day,start_equity,end_equity,return_pct,entries,active
2021-09-02,1.0,1.0,0.0,0,False
2021-09-03,1.0,1.0,0.0,0,False
2021-09-04,1.0,1.0,0.0,0,False
2021-09-05,1.0,1.0,0.0,0,False
2021-09-06,1.0,1.0,0.0,0,False
2021-09-07,1.0,1.0,0.0,0,False
2021-09-08,1.0,1.0,0.0,0,False
2021-09-09,1.0,1.0,0.0,0,False
2021-09-10,1.0,1.0,0.0,0,False
2021-09-11,1.0,1.0,0.0,0,False
2021-09-12,1.0,1.0,0.0,0,False
2021-09-13,1.0,1.0,0.0,0,False
2021-09-14,1.0,1.0,0.0,0,False
2021-09-15,1.0,1.0,0.0,0,False
2021-09-16,1.0,1.0,0.0,0,False
2021-09-17,1.0,1.0,0.0,0,False
2021-09-18,1.0,1.0,0.0,0,False
2021-09-19,1.0,1.0,0.0,0,False
2021-09-20,1.0,1.0,0.0,0,False
2021-09-21,1.0,1.0,0.0,0,False
2021-09-22,1.0,1.0,0.0,0,False
2021-09-23,1.0,1.0,0.0,0,False
2021-09-24,1.0,1.0,0.0,0,False
2021-09-25,1.0,1.0,0.0,0,False
2021-09-26,1.0,1.0,0.0,0,False
2021-09-27,1.0,1.0,0.0,0,False
2021-09-28,1.0,1.0,0.0,0,False
2021-09-29,1.0,1.0,0.0,0,False
2021-09-30,1.0,1.0,0.0,0,False
2021-10-01,1.0,1.0,0.0,0,False
2021-10-02,1.0,1.0,0.0,0,False
2021-10-03,1.0,1.0,0.0,0,False
2021-10-04,1.0,1.0,0.0,0,False
2021-10-05,1.0,1.0,0.0,0,False
2021-10-06,1.0,1.001489821323389,0.1489821323388929,1,True
2021-10-07,1.001489821323389,1.0006266840307554,-0.08618532852315841,0,True
2021-10-08,1.0006266840307554,1.0006266840307554,0.0,0,False
2021-10-09,1.0006266840307554,0.9986866545947173,-0.19388144120074946,3,True
2021-10-10,0.9986866545947173,1.0011029499451742,0.24194729541444637,1,True
2021-10-11,1.0011029499451742,0.9973633736513651,-0.3735456272518145,0,True
2021-10-12,0.9973633736513651,0.9973633736513651,0.0,0,False
2021-10-13,0.9973633736513651,1.0110936133521444,1.376653691473817,4,True
2021-10-14,1.0110936133521444,1.026493397529733,1.523081935660997,0,True
2021-10-15,1.026493397529733,1.0296614828987463,0.3086318311094072,1,True
2021-10-16,1.0296614828987463,1.0362316106110756,0.6380861886600586,0,True
2021-10-17,1.0362316106110756,1.0362316106110756,0.0,0,False
2021-10-18,1.0362316106110756,1.0352761769146124,-0.09220271671694924,1,True
2021-10-19,1.0352761769146124,1.0373913247201767,0.2043075898711333,0,True
2021-10-20,1.0373913247201767,1.0373913247201767,0.0,0,False
2021-10-21,1.0373913247201767,1.0373913247201767,0.0,0,False
2021-10-22,1.0373913247201767,1.0373913247201767,0.0,0,False
2021-10-23,1.0373913247201767,1.0373913247201767,0.0,0,False
2021-10-24,1.0373913247201767,1.0373913247201767,0.0,0,False
2021-10-25,1.0373913247201767,1.0410490874159612,0.352592373641758,1,True
2021-10-26,1.0410490874159612,1.0410490874159612,0.0,0,False
2021-10-27,1.0410490874159612,1.0352034547144413,-0.5615136473564042,6,True
2021-10-28,1.0352034547144413,1.0385456593474216,0.32285485696164073,0,True
2021-10-29,1.0385456593474216,1.0385456593474216,0.0,0,False
2021-10-30,1.0385456593474216,1.0385456593474216,0.0,0,False
2021-10-31,1.0385456593474216,1.0385456593474216,0.0,0,False
2021-11-01,1.0385456593474216,1.0399112157246555,0.13148737033785718,1,True
2021-11-02,1.0399112157246555,1.039448059960733,-0.044538010256944816,0,True
2021-11-03,1.039448059960733,1.0396045099617253,0.015051257202625123,1,True
2021-11-04,1.0396045099617253,1.0568520878951093,1.6590518575202218,1,True
2021-11-05,1.0568520878951093,1.0568520878951093,0.0,0,False
2021-11-06,1.0568520878951093,1.0537649219178937,-0.292109559376863,1,True
2021-11-07,1.0537649219178937,1.053943958135674,0.016990147807760536,0,True
2021-11-08,1.053943958135674,1.053943958135674,0.0,0,False
2021-11-09,1.053943958135674,1.053943958135674,0.0,0,False
2021-11-10,1.053943958135674,1.053943958135674,0.0,0,False
2021-11-11,1.053943958135674,1.0474610901976784,-0.6151055649546211,9,True
2021-11-12,1.0474610901976784,1.048359919354067,0.08581026682517034,0,True
2021-11-13,1.048359919354067,1.0472690622125096,-0.1040536862787933,1,True
2021-11-14,1.0472690622125096,1.0476107895187994,0.032630325731930476,0,True
2021-11-15,1.0476107895187994,1.0476107895187994,0.0,0,False
2021-11-16,1.0476107895187994,1.064031747637622,1.5674674490862461,5,True
2021-11-17,1.064031747637622,1.0490645048286953,-1.4066537809757196,0,True
2021-11-18,1.0490645048286953,1.0463095148907118,-0.2626139694273055,2,True
2021-11-19,1.0463095148907118,1.0501487150695958,0.36692777082172334,1,True
2021-11-20,1.0501487150695958,1.0506878455995539,0.05133849351253161,0,True
2021-11-21,1.0506878455995539,1.0506878455995539,0.0,0,False
2021-11-22,1.0506878455995539,1.04544293683771,-0.4991881065161574,1,True
2021-11-23,1.04544293683771,1.04544293683771,0.0,0,False
2021-11-24,1.04544293683771,1.04544293683771,0.0,0,False
2021-11-25,1.04544293683771,1.0480751784619027,0.2517824293839288,2,True
2021-11-26,1.0480751784619027,1.0258714463226517,-2.118524758103324,7,True
2021-11-27,1.0258714463226517,1.0376451859135483,1.147681771736675,0,True
2021-11-28,1.0376451859135483,1.0324659262114424,-0.4991359062246348,1,True
2021-11-29,1.0324659262114424,1.0324659262114424,0.0,0,False
2021-11-30,1.0324659262114424,1.0324659262114424,0.0,0,False
2021-12-01,1.0324659262114424,1.0304040609509768,-0.19970298371312367,1,True
2021-12-02,1.0304040609509768,1.028386665991819,-0.19578678264290383,2,True
2021-12-03,1.028386665991819,1.0231479302824396,-0.5094130333095137,1,True
2021-12-04,1.0231479302824396,0.9536332732372778,-6.794194171508739,15,True
2021-12-05,0.9536332732372778,0.9508537036955793,-0.29147153520164837,1,True
2021-12-06,0.9508537036955793,0.9463245768337868,-0.4763221559941022,7,True
2021-12-07,0.9463245768337868,0.9703315869661696,2.5368685036909255,0,True
2021-12-08,0.9703315869661696,0.9738289502021988,0.3604297008370061,1,True
2021-12-09,0.9738289502021988,0.9714834296640628,-0.2408554949664521,0,True
2021-12-10,0.9714834296640628,0.9666301001800758,-0.49957923478584076,1,True
2021-12-11,0.9666301001800758,0.9663631042919925,-0.027621309126790727,1,True
2021-12-12,0.9663631042919925,0.9679102186175744,0.16009658468030263,0,True
2021-12-13,0.9679102186175744,0.9645495329371709,-0.3472104763191153,1,True
2021-12-14,0.9645495329371709,0.9630762336210672,-0.1527448063364245,0,True
2021-12-15,0.9630762336210672,0.9630762336210672,0.0,0,False
2021-12-16,0.9630762336210672,0.9630762336210672,0.0,0,False
2021-12-17,0.9630762336210672,0.9635945079116839,0.053814461672252456,2,True
2021-12-18,0.9635945079116839,0.9692915042360788,0.5912234116756787,0,True
2021-12-19,0.9692915042360788,0.9663418512945097,-0.30431020272830844,1,True
2021-12-20,0.9663418512945097,0.9644485809741314,-0.1959213830842632,0,True
2021-12-21,0.9644485809741314,0.9619097869673375,-0.2632378808862579,1,True
2021-12-22,0.9619097869673375,0.9623554758107054,0.046333746615978555,0,True
2021-12-23,0.9623554758107054,0.9623554758107054,0.0,0,False
2021-12-24,0.9623554758107054,0.9623554758107054,0.0,0,False
2021-12-25,0.9623554758107054,0.9640759781431718,0.17878033384879366,1,True
2021-12-26,0.9640759781431718,0.963746167543605,-0.03421002151740016,0,True
2021-12-27,0.963746167543605,0.963746167543605,0.0,0,False
2021-12-28,0.963746167543605,0.963746167543605,0.0,0,False
2021-12-29,0.963746167543605,0.963746167543605,0.0,0,False
2021-12-30,0.963746167543605,0.963746167543605,0.0,0,False
2021-12-31,0.963746167543605,0.963746167543605,0.0,0,False
2022-01-01,0.963746167543605,0.963746167543605,0.0,0,False
2022-01-02,0.963746167543605,0.963746167543605,0.0,0,False
2022-01-03,0.963746167543605,0.963746167543605,0.0,0,False
2022-01-04,0.963746167543605,0.963746167543605,0.0,0,False
2022-01-05,0.963746167543605,0.9651599381818715,0.14669533180815542,1,True
2022-01-06,0.9651599381818715,0.9495061147430163,-1.6218890589619006,9,True
2022-01-07,0.9495061147430163,0.9609705198680675,1.2074071927545171,4,True
2022-01-08,0.9609705198680675,0.9588817019871966,-0.2173654485423393,0,True
2022-01-09,0.9588817019871966,0.9595417176605521,0.06883181439250041,1,True
2022-01-10,0.9595417176605521,0.9610043577266083,0.15243110738554222,0,True
2022-01-11,0.9610043577266083,0.9610043577266083,0.0,0,False
2022-01-12,0.9610043577266083,0.9610043577266083,0.0,0,False
2022-01-13,0.9610043577266083,0.9610043577266083,0.0,0,False
2022-01-14,0.9610043577266083,0.9610043577266083,0.0,0,False
2022-01-15,0.9610043577266083,0.9614678734493914,0.048232426737349066,1,True
2022-01-16,0.9614678734493914,0.9604681767285823,-0.10397609201674429,0,True
2022-01-17,0.9604681767285823,0.9626173405784574,0.22376210914090144,1,True
2022-01-18,0.9626173405784574,0.9695623849690729,0.7214750968897121,0,True
2022-01-19,0.9695623849690729,0.9695623849690729,0.0,0,False
2022-01-20,0.9695623849690729,0.9695623849690729,0.0,0,False
2022-01-21,0.9695623849690729,0.938276919590489,-3.22676146100509,7,True
2022-01-22,0.938276919590489,0.9161709030535377,-2.356022627797294,8,True
2022-01-23,0.9161709030535377,0.9238869291927511,0.8422037977299235,0,True
2022-01-24,0.9238869291927511,0.9183773001878638,-0.5963531716701831,2,True
2022-01-25,0.9183773001878638,0.9355402473940758,1.8688339969532342,0,True
2022-01-26,0.9355402473940758,0.9355402473940758,0.0,0,False
2022-01-27,0.9355402473940758,0.9490304863314334,1.4419731246126721,4,True
2022-01-28,0.9490304863314334,0.9364646452334121,-1.3240713843235663,0,True
2022-01-29,0.9364646452334121,0.9364646452334121,0.0,0,False
2022-01-30,0.9364646452334121,0.9431884881355206,0.7180028564166996,1,True
2022-01-31,0.9431884881355206,0.9453122269499837,0.22516589644359097,0,True
2022-02-01,0.9453122269499837,0.9453122269499837,0.0,0,False
2022-02-02,0.9453122269499837,0.9453122269499837,0.0,0,False
2022-02-03,0.9453122269499837,0.9428910499782955,-0.2561245800765777,3,True
2022-02-04,0.9428910499782955,0.9544798809939485,1.2290742409655664,0,True
2022-02-05,0.9544798809939485,0.9544798809939485,0.0,0,False
2022-02-06,0.9544798809939485,0.9544798809939485,0.0,0,False
2022-02-07,0.9544798809939485,0.9544798809939485,0.0,0,False
2022-02-08,0.9544798809939485,0.9544798809939485,0.0,0,False
2022-02-09,0.9544798809939485,0.9570353612573853,0.26773537235542655,2,True
2022-02-10,0.9570353612573853,0.9588691606511821,0.19161250127555096,5,True
2022-02-11,0.9588691606511821,0.9497384436208854,-0.9522380534270014,0,True
2022-02-12,0.9497384436208854,0.9308033755698557,-1.993713972326916,4,True
2022-02-13,0.9308033755698557,0.9308033755698557,0.0,0,False
2022-02-14,0.9308033755698557,0.9308033755698557,0.0,0,False
2022-02-15,0.9308033755698557,0.9308033755698557,0.0,0,False
2022-02-16,0.9308033755698557,0.9308033755698557,0.0,0,False
2022-02-17,0.9308033755698557,0.9308033755698557,0.0,0,False
2022-02-18,0.9308033755698557,0.9308033755698557,0.0,0,False
2022-02-19,0.9308033755698557,0.9308033755698557,0.0,0,False
2022-02-20,0.9308033755698557,0.9308033755698557,0.0,0,False
2022-02-21,0.9308033755698557,0.9308033755698557,0.0,0,False
2022-02-22,0.9308033755698557,0.9294146624046686,-0.14919511484763337,2,True
2022-02-23,0.9294146624046686,0.9286236503135413,-0.0851086305310389,0,True
2022-02-24,0.9286236503135413,0.9101199637218594,-1.9925926488555734,4,True
2022-02-25,0.9101199637218594,0.9101199637218594,0.0,0,False
2022-02-26,0.9101199637218594,0.9101199637218594,0.0,0,False
2022-02-27,0.9101199637218594,0.9101199637218594,0.0,0,False
2022-02-28,0.9101199637218594,0.91244111158777,0.25503757289515594,1,True
2022-03-01,0.91244111158777,0.9152127618404378,0.3037620968047827,0,True
2022-03-02,0.9152127618404378,0.9152127618404378,0.0,0,False
2022-03-03,0.9152127618404378,0.9152127618404378,0.0,0,False
2022-03-04,0.9152127618404378,0.9135417281728411,-0.1825841746608048,1,True
2022-03-05,0.9135417281728411,0.912914848060218,-0.0686208514937614,0,True
2022-03-06,0.912914848060218,0.9070432056452334,-0.643175256428441,3,True
2022-03-07,0.9070432056452334,0.9019448864273728,-0.5620811871066111,0,True
2022-03-08,0.9019448864273728,0.9030339080549207,0.12074148253797823,1,True
2022-03-09,0.9030339080549207,0.9114875160881519,0.9361340651581784,1,True
2022-03-10,0.9114875160881519,0.9115430689090114,0.006094742920659257,3,True
2022-03-11,0.9115430689090114,0.9074080542544598,-0.4536280067929832,0,True
2022-03-12,0.9074080542544598,0.9074080542544598,0.0,0,False
2022-03-13,0.9074080542544598,0.9074080542544598,0.0,0,False
2022-03-14,0.9074080542544598,0.902879521524341,-0.4990624349085704,1,True
2022-03-15,0.902879521524341,0.9038653650992278,0.10918882878441227,1,True
2022-03-16,0.9038653650992278,0.9071502637094019,0.3634278662523416,1,True
2022-03-17,0.9071502637094019,0.9084737630031224,0.14589636873483247,1,True
2022-03-18,0.9084737630031224,0.9075839737722584,-0.09794330525547679,0,True
2022-03-19,0.9075839737722584,0.9075839737722584,0.0,0,False
2022-03-20,0.9075839737722584,0.9030504988016574,-0.49951024936658595,1,True
2022-03-21,0.9030504988016574,0.9089458942203892,0.6528312011958137,3,True
2022-03-22,0.9089458942203892,0.9082715738591811,-0.0741870737846817,0,True
2022-03-23,0.9082715738591811,0.9082715738591811,0.0,0,False
2022-03-24,0.9082715738591811,0.9082715738591811,0.0,0,False
2022-03-25,0.9082715738591811,0.9082715738591811,0.0,0,False
2022-03-26,0.9082715738591811,0.9082715738591811,0.0,0,False
2022-03-27,0.9082715738591811,0.9082715738591811,0.0,0,False
2022-03-28,0.9082715738591811,0.9082715738591811,0.0,0,False
2022-03-29,0.9082715738591811,0.9082715738591811,0.0,0,False
2022-03-30,0.9082715738591811,0.9157269317063945,0.8208291508602583,4,True
2022-03-31,0.9157269317063945,0.9233673511124407,0.8343556513958683,5,True
2022-04-01,0.9233673511124407,0.9022254938174419,-2.289647480986612,0,True
2022-04-02,0.9022254938174419,0.9022254938174419,0.0,0,False
2022-04-03,0.9022254938174419,0.8977219160393778,-0.4991632146204239,1,True
2022-04-04,0.8977219160393778,0.8977219160393778,0.0,0,False
2022-04-05,0.8977219160393778,0.8977448220520642,0.002551571068631908,3,True
2022-04-06,0.8977448220520642,0.8733068738549035,-2.722148610258812,7,True
2022-04-07,0.8733068738549035,0.8695016732773644,-0.43572319094917766,0,True
2022-04-08,0.8695016732773644,0.8695016732773644,0.0,0,False
2022-04-09,0.8695016732773644,0.8695016732773644,0.0,0,False
2022-04-10,0.8695016732773644,0.8695016732773644,0.0,0,False
2022-04-11,0.8695016732773644,0.8621668275734901,-0.8435689003596147,6,True
2022-04-12,0.8621668275734901,0.8666295149467066,0.5176129758757364,0,True
2022-04-13,0.8666295149467066,0.8666295149467066,0.0,0,False
2022-04-14,0.8666295149467066,0.8666295149467066,0.0,0,False
2022-04-15,0.8666295149467066,0.8666295149467066,0.0,0,False
2022-04-16,0.8666295149467066,0.8666295149467066,0.0,0,False
2022-04-17,0.8666295149467066,0.8706124568662207,0.4595899228932998,1,True
2022-04-18,0.8706124568662207,0.8728135949480909,0.2528263941677489,6,True
2022-04-19,0.8728135949480909,0.8856457282791802,1.470203191765429,0,True
2022-04-20,0.8856457282791802,0.8856457282791802,0.0,0,False
2022-04-21,0.8856457282791802,0.8881146851033859,0.27877476798796597,2,True
2022-04-22,0.8881146851033859,0.8835309816966103,-0.5161161597324604,0,True
2022-04-23,0.8835309816966103,0.8835309816966103,0.0,0,False
2022-04-24,0.8835309816966103,0.8835309816966103,0.0,0,False
2022-04-25,0.8835309816966103,0.8784142844625992,-0.5791191639013871,3,True
2022-04-26,0.8784142844625992,0.8818697488709708,0.3933752523714418,2,True
2022-04-27,0.8818697488709708,0.8806099397695925,-0.1428565956584027,0,True
2022-04-28,0.8806099397695925,0.8806099397695925,0.0,0,False
2022-04-29,0.8806099397695925,0.8806099397695925,0.0,0,False
2022-04-30,0.8806099397695925,0.8780911836870015,-0.28602403502849816,1,True
2022-05-01,0.8780911836870015,0.8829621305666019,0.55471993912386,6,True
2022-05-02,0.8829621305666019,0.8854086795117942,0.2770842441025545,0,True
2022-05-03,0.8854086795117942,0.8866119218626093,0.13589683257662077,3,True
2022-05-04,0.8866119218626093,0.8795640900950807,-0.794917324450406,1,True
2022-05-05,0.8795640900950807,0.8795640900950807,0.0,0,False
2022-05-06,0.8795640900950807,0.8682651258998764,-1.2846095381159772,4,True
2022-05-07,0.8682651258998764,0.8644153710663429,-0.4433847126525503,2,True
2022-05-08,0.8644153710663429,0.8534504840453906,-1.2684743224112283,3,True
2022-05-09,0.8534504840453906,0.8442955707133496,-1.072694140220809,3,True
2022-05-10,0.8442955707133496,0.8312411623552584,-1.5461893690928097,7,True
2022-05-11,0.8312411623552584,0.8059685445226529,-3.040347251451969,8,True
2022-05-12,0.8059685445226529,0.7972899674571772,-1.0767885576248748,0,True
2022-05-13,0.7972899674571772,0.7972899674571772,0.0,0,False
2022-05-14,0.7972899674571772,0.7874917997129091,-1.2289340320583375,4,True
2022-05-15,0.7874917997129091,0.8099084472542051,2.846588059643085,1,True
2022-05-16,0.8099084472542051,0.8092831250510679,-0.07720899877722287,8,True
2022-05-17,0.8092831250510679,0.8221643799959167,1.5916870803448502,4,True
2022-05-18,0.8221643799959167,0.8073745360254057,-1.7988913568092735,0,True
2022-05-19,0.8073745360254057,0.8226276471602139,1.8892237064965123,6,True
2022-05-20,0.8226276471602139,0.8322876946298929,1.1742916133473669,1,True
2022-05-21,0.8322876946298929,0.8322876946298929,0.0,0,False
2022-05-22,0.8322876946298929,0.8322876946298929,0.0,0,False
2022-05-23,0.8322876946298929,0.8325062038333666,0.026254047114182555,1,True
2022-05-24,0.8325062038333666,0.8195133274092501,-1.5606942463959328,7,True
2022-05-25,0.8195133274092501,0.8154345183747433,-0.4977111290430325,1,True
2022-05-26,0.8154345183747433,0.7986247153340226,-2.061453453580142,8,True
2022-05-27,0.7986247153340226,0.7903905307470874,-1.0310455497850701,2,True
2022-05-28,0.7903905307470874,0.7913768798106458,0.12479262151914305,0,True
2022-05-29,0.7913768798106458,0.7874304703280909,-0.49867636814195926,1,True
2022-05-30,0.7874304703280909,0.7874304703280909,0.0,0,False
2022-05-31,0.7874304703280909,0.7855050127116883,-0.24452414390319088,1,True
2022-06-01,0.7855050127116883,0.7896543855087101,0.5282426884454239,1,True
2022-06-02,0.7896543855087101,0.7906871239749128,0.13078360421405755,1,True
2022-06-03,0.7906871239749128,0.7919954162554578,0.16546270210748837,0,True
2022-06-04,0.7919954162554578,0.7919954162554578,0.0,0,False
2022-06-05,0.7919954162554578,0.7919954162554578,0.0,0,False
2022-06-06,0.7919954162554578,0.7936890744115539,0.21384696443114137,1,True
2022-06-07,0.7936890744115539,0.7907896712591028,-0.36530717707066174,4,True
2022-06-08,0.7907896712591028,0.8025412291411811,1.4860535372657635,3,True
2022-06-09,0.8025412291411811,0.8011871228478818,-0.16872731819003173,2,True
2022-06-10,0.8011871228478818,0.7982730738282744,-0.36371640737924427,4,True
2022-06-11,0.7982730738282744,0.7739184047349352,-3.050919527642537,3,True
2022-06-12,0.7739184047349352,0.7633701518856112,-1.3629670498580215,7,True
2022-06-13,0.7633701518856112,0.7351879129418044,-3.6918182973480707,4,True
2022-06-14,0.7351879129418044,0.7445161890329078,1.2688288159930394,4,True
2022-06-15,0.7445161890329078,0.7445642805965977,0.006459438276595897,4,True
2022-06-16,0.7445642805965977,0.7673604876704507,3.061684218263472,1,True
2022-06-17,0.7673604876704507,0.7673604876704507,0.0,0,False
2022-06-18,0.7673604876704507,0.761980419076502,-0.7011135809561253,5,True
2022-06-19,0.761980419076502,0.7652346090314314,0.4270700235149416,2,True
2022-06-20,0.7652346090314314,0.7652346090314314,0.0,0,False
2022-06-21,0.7652346090314314,0.7652346090314314,0.0,0,False
2022-06-22,0.7652346090314314,0.7652346090314314,0.0,0,False
2022-06-23,0.7652346090314314,0.7652346090314314,0.0,0,False
2022-06-24,0.7652346090314314,0.7614163023492877,-0.49897203250863775,1,True
2022-06-25,0.7614163023492877,0.7603589630188112,-0.13886481379689064,3,True
2022-06-26,0.7603589630188112,0.7642056208461278,0.5059002411235358,0,True
2022-06-27,0.7642056208461278,0.7611425788574221,-0.4008138523391436,4,True
2022-06-28,0.7611425788574221,0.7588699895765331,-0.2985760281996708,2,True
2022-06-29,0.7588699895765331,0.7596512374476156,0.10294884259667292,2,True
2022-06-30,0.7596512374476156,0.7599382598059686,0.0377834385312692,1,True
2022-07-01,0.7599382598059686,0.7597317810587332,-0.02717046346477625,1,True
2022-07-02,0.7597317810587332,0.7584282365915653,-0.17157956263871288,1,True
2022-07-03,0.7584282365915653,0.7594870829661019,0.13961062147358483,1,True
2022-07-04,0.7594870829661019,0.7623673853233581,0.37924309996260064,0,True
2022-07-05,0.7623673853233581,0.7623673853233581,0.0,0,False
2022-07-06,0.7623673853233581,0.7623673853233581,0.0,0,False
2022-07-07,0.7623673853233581,0.7623673853233581,0.0,0,False
2022-07-08,0.7623673853233581,0.7623673853233581,0.0,0,False
2022-07-09,0.7623673853233581,0.7623673853233581,0.0,0,False
2022-07-10,0.7623673853233581,0.7623673853233581,0.0,0,False
2022-07-11,0.7623673853233581,0.7585605184233116,-0.4993480798541561,1,True
2022-07-12,0.7585605184233116,0.759749927429903,0.15679816938845015,2,True
2022-07-13,0.759749927429903,0.7651964965223025,0.7168897153862597,5,True
2022-07-14,0.7651964965223025,0.778795326063956,1.777168296438636,0,True
2022-07-15,0.778795326063956,0.778795326063956,0.0,0,False
2022-07-16,0.778795326063956,0.778795326063956,0.0,0,False
2022-07-17,0.778795326063956,0.778795326063956,0.0,0,False
2022-07-18,0.778795326063956,0.778795326063956,0.0,0,False
2022-07-19,0.778795326063956,0.778795326063956,0.0,0,False
2022-07-20,0.778795326063956,0.7788877841738923,0.01187193949963028,1,True
2022-07-21,0.7788877841738923,0.7729573999169794,-0.7613913553930929,5,True
2022-07-22,0.7729573999169794,0.7729775194605364,0.0026029304537544817,0,True
2022-07-23,0.7729775194605364,0.7717170471325199,-0.163067139248263,1,True
2022-07-24,0.7717170471325199,0.7756336579228643,0.507519019425251,1,True
2022-07-25,0.7756336579228643,0.7761044016136713,0.060691498621623374,1,True
2022-07-26,0.7761044016136713,0.7756960644779982,-0.05261368635767205,1,True
2022-07-27,0.7756960644779982,0.7771599237750356,0.18871557612227807,0,True
2022-07-28,0.7771599237750356,0.7771599237750356,0.0,0,False
2022-07-29,0.7771599237750356,0.7771599237750356,0.0,0,False
2022-07-30,0.7771599237750356,0.7771599237750356,0.0,0,False
2022-07-31,0.7771599237750356,0.776409301514183,-0.09658530218678019,1,True
2022-08-01,0.776409301514183,0.7763659890956408,-0.005578554823815196,1,True
2022-08-02,0.7763659890956408,0.7751970992788614,-0.1505591220116509,1,True
2022-08-03,0.7751970992788614,0.7777451330922158,0.32869496231664463,1,True
2022-08-04,0.7777451330922158,0.7756649998720953,-0.2674569253619419,0,True
2022-08-05,0.7756649998720953,0.777358851393817,0.21837410763680953,1,True
2022-08-06,0.777358851393817,0.7772406834907728,-0.015201203772530203,0,True
2022-08-07,0.7772406834907728,0.7781149768875325,0.11248682876880967,2,True
2022-08-08,0.7781149768875325,0.7786510183111367,0.0688897450282111,0,True
2022-08-09,0.7786510183111367,0.7758974499031915,-0.35363318652270603,5,True
2022-08-10,0.7758974499031915,0.7874137389677153,1.4842540165534324,1,True
2022-08-11,0.7874137389677153,0.7896855111894978,0.2885106151133243,1,True
2022-08-12,0.7896855111894978,0.7884407103500899,-0.15763247796365398,1,True
2022-08-13,0.7884407103500899,0.7884407103500899,0.0,0,False
2022-08-14,0.7884407103500899,0.7884407103500899,0.0,0,False
2022-08-15,0.7884407103500899,0.7884407103500899,0.0,0,False
2022-08-16,0.7884407103500899,0.7879349279107495,-0.06414971128467784,1,True
2022-08-17,0.7879349279107495,0.7853926165266016,-0.3226549927021205,1,True
2022-08-18,0.7853926165266016,0.7816103543688019,-0.48157597591467205,1,True
2022-08-19,0.7816103543688019,0.7646979389726166,-2.163791114287772,10,True
2022-08-20,0.7646979389726166,0.7647764816584341,0.010271073297651867,1,True
2022-08-21,0.7647764816584341,0.7687583464162047,0.5206573231875122,0,True
2022-08-22,0.7687583464162047,0.7687583464162047,0.0,0,False
2022-08-23,0.7687583464162047,0.7687583464162047,0.0,0,False
2022-08-24,0.7687583464162047,0.7687583464162047,0.0,0,False
2022-08-25,0.7687583464162047,0.7673823273220627,-0.17899241036622993,1,True
2022-08-26,0.7673823273220627,0.7661774488469121,-0.1570114963886704,0,True
2022-08-27,0.7661774488469121,0.7670735206168527,0.11695355577081568,3,True
2022-08-28,0.7670735206168527,0.7670083956360239,-0.008490057221177683,0,True
2022-08-29,0.7670083956360239,0.7670464591889941,0.004962599260549538,1,True
2022-08-30,0.7670464591889941,0.7647116737546273,-0.30438644314130237,1,True
2022-08-31,0.7647116737546273,0.7647116737546273,0.0,0,False
2022-09-01,0.7647116737546273,0.7647116737546273,0.0,0,False
2022-09-02,0.7647116737546273,0.7647116737546273,0.0,0,False
2022-09-03,0.7647116737546273,0.7647116737546273,0.0,0,False
2022-09-04,0.7647116737546273,0.7647116737546273,0.0,0,False
2022-09-05,0.7647116737546273,0.7647116737546273,0.0,0,False
2022-09-06,0.7647116737546273,0.763126252404518,-0.2073227602666372,1,True
2022-09-07,0.763126252404518,0.751042166894275,-1.5834975500013893,5,True
2022-09-08,0.751042166894275,0.7510417059314735,-6.137642091230688e-05,0,True
2022-09-09,0.7510417059314735,0.7510417059314735,0.0,0,False
2022-09-10,0.7510417059314735,0.7510417059314735,0.0,0,False
2022-09-11,0.7510417059314735,0.7510417059314735,0.0,0,False
2022-09-12,0.7510417059314735,0.7510417059314735,0.0,0,False
2022-09-13,0.7510417059314735,0.7445445945674612,-0.8650799699537637,4,True
2022-09-14,0.7445445945674612,0.7397614755751127,-0.6424220963053617,0,True
2022-09-15,0.7397614755751127,0.7426354376279808,0.3884984752191567,1,True
2022-09-16,0.7426354376279808,0.7405587532891044,-0.27963711851799467,1,True
2022-09-17,0.7405587532891044,0.7399931413022816,-0.07637638260444835,1,True
2022-09-18,0.7399931413022816,0.7410342953805993,0.1406978011289972,0,True
2022-09-19,0.7410342953805993,0.7352918052428266,-0.7749290651687502,8,True
2022-09-20,0.7352918052428266,0.7353001749116117,0.0011382785345182,0,True
2022-09-21,0.7353001749116117,0.7353001749116117,0.0,0,False
2022-09-22,0.7353001749116117,0.7361541489353219,0.11613951048126125,1,True
2022-09-23,0.7361541489353219,0.7364843101929412,0.04484947318394994,0,True
2022-09-24,0.7364843101929412,0.7364843101929412,0.0,0,False
2022-09-25,0.7364843101929412,0.7364843101929412,0.0,0,False
2022-09-26,0.7364843101929412,0.7364843101929412,0.0,0,False
2022-09-27,0.7364843101929412,0.7364843101929412,0.0,0,False
2022-09-28,0.7364843101929412,0.7364843101929412,0.0,0,False
2022-09-29,0.7364843101929412,0.7364843101929412,0.0,0,False
2022-09-30,0.7364843101929412,0.7364843101929412,0.0,0,False
2022-10-01,0.7364843101929412,0.7364843101929412,0.0,0,False
2022-10-02,0.7364843101929412,0.7364843101929412,0.0,0,False
2022-10-03,0.7364843101929412,0.7364843101929412,0.0,0,False
2022-10-04,0.7364843101929412,0.7364843101929412,0.0,0,False
2022-10-05,0.7364843101929412,0.7364843101929412,0.0,0,False
2022-10-06,0.7364843101929412,0.7364843101929412,0.0,0,False
2022-10-07,0.7364843101929412,0.7364843101929412,0.0,0,False
2022-10-08,0.7364843101929412,0.734974564910026,-0.2049935432459793,1,True
2022-10-09,0.734974564910026,0.7340568585590728,-0.12486232786376172,0,True
2022-10-10,0.7340568585590728,0.7340568585590728,0.0,0,False
2022-10-11,0.7340568585590728,0.7513437451775213,2.354979238581345,5,True
2022-10-12,0.7513437451775213,0.7522116707992479,0.11551645000005273,2,True
2022-10-13,0.7522116707992479,0.7520893431518727,-0.016262396892252617,1,True
2022-10-14,0.7520893431518727,0.7562139651582354,0.5484218123710027,0,True
2022-10-15,0.7562139651582354,0.7562139651582354,0.0,0,False
2022-10-16,0.7562139651582354,0.7562139651582354,0.0,0,False
2022-10-17,0.7562139651582354,0.7562139651582354,0.0,0,False
2022-10-18,0.7562139651582354,0.7562139651582354,0.0,0,False
2022-10-19,0.7562139651582354,0.7562139651582354,0.0,0,False
2022-10-20,0.7562139651582354,0.7599717656374458,0.4969229149879739,2,True
2022-10-21,0.7599717656374458,0.7563319347852099,-0.4789429050937155,0,True
2022-10-22,0.7563319347852099,0.7563319347852099,0.0,0,False
2022-10-23,0.7563319347852099,0.7563319347852099,0.0,0,False
2022-10-24,0.7563319347852099,0.7563319347852099,0.0,0,False
2022-10-25,0.7563319347852099,0.7558742523529938,-0.060513434798448174,1,True
2022-10-26,0.7558742523529938,0.7570427240970621,0.1545854671502367,0,True
2022-10-27,0.7570427240970621,0.7570427240970621,0.0,0,False
2022-10-28,0.7570427240970621,0.7570427240970621,0.0,0,False
2022-10-29,0.7570427240970621,0.7570427240970621,0.0,0,False
2022-10-30,0.7570427240970621,0.7570427240970621,0.0,0,False
2022-10-31,0.7570427240970621,0.7570427240970621,0.0,0,False
2022-11-01,0.7570427240970621,0.7570427240970621,0.0,0,False
2022-11-02,0.7570427240970621,0.7608896146779827,0.5081470911049157,2,True
2022-11-03,0.7608896146779827,0.762530358542641,0.2156349400763924,0,True
2022-11-04,0.762530358542641,0.7628798616483964,0.0458346480031846,2,True
2022-11-05,0.7628798616483964,0.7614579171570575,-0.18639166700068488,0,True
2022-11-06,0.7614579171570575,0.7617705602258465,0.041058482910827365,1,True
2022-11-07,0.7617705602258465,0.7639440758193072,0.2853241785579552,3,True
2022-11-08,0.7639440758193072,0.7510503544554381,-1.687783408758159,8,True
2022-11-09,0.7510503544554381,0.7212099130666092,-3.9731612150646356,5,True
2022-11-10,0.7212099130666092,0.7212099130666092,0.0,0,False
2022-11-11,0.7212099130666092,0.7153132944848438,-0.8176008780429456,7,True
2022-11-12,0.7153132944848438,0.7129177284611282,-0.3348974557282447,5,True
2022-11-13,0.7129177284611282,0.71617608109613,0.4570446918237048,1,True
2022-11-14,0.71617608109613,0.7138059612937833,-0.3309409326710755,2,True
2022-11-15,0.7138059612937833,0.7145064942556876,0.09814053116543597,0,True
2022-11-16,0.7145064942556876,0.7141683662375768,-0.04732329528550627,1,True
2022-11-17,0.7141683662375768,0.7153009052631957,0.15858151651064745,1,True
2022-11-18,0.7153009052631957,0.7169317442244754,0.22799341497821146,0,True
2022-11-19,0.7169317442244754,0.7168773034286343,-0.007593581436393659,3,True
2022-11-20,0.7168773034286343,0.7105435357124998,-0.883521864319281,2,True
2022-11-21,0.7105435357124998,0.6963829159085744,-1.9929278210554457,4,True
2022-11-22,0.6963829159085744,0.6935300529099933,-0.40966872296960277,0,True
2022-11-23,0.6935300529099933,0.7000662785536581,0.9424574488501758,1,True
2022-11-24,0.7000662785536581,0.6982878513447782,-0.25403697669228453,1,True
2022-11-25,0.6982878513447782,0.6970813673735706,-0.1727774540089877,1,True
2022-11-26,0.6970813673735706,0.6980451287044551,0.13825664778785995,0,True
2022-11-27,0.6980451287044551,0.6980451287044551,0.0,0,False
2022-11-28,0.6980451287044551,0.6951506523434022,-0.4146546178790622,4,True
2022-11-29,0.6951506523434022,0.6958898004128027,0.10632919165201038,0,True
2022-11-30,0.6958898004128027,0.6958898004128027,0.0,0,False
2022-12-01,0.6958898004128027,0.6958554067014426,-0.004942407740371468,1,True
2022-12-02,0.6958554067014426,0.6958554067014426,0.0,0,False
2022-12-03,0.6958554067014426,0.6958554067014426,0.0,0,False
2022-12-04,0.6958554067014426,0.6958554067014426,0.0,0,False
2022-12-05,0.6958554067014426,0.6958554067014426,0.0,0,False
2022-12-06,0.6958554067014426,0.6967692399516676,0.1313251634498025,2,True
2022-12-07,0.6967692399516676,0.6933091444975789,-0.4965913039342573,1,True
2022-12-08,0.6933091444975789,0.6913704998564507,-0.27962196323445543,1,True
2022-12-09,0.6913704998564507,0.6913704998564507,0.0,0,False
2022-12-10,0.6913704998564507,0.6913704998564507,0.0,0,False
2022-12-11,0.6913704998564507,0.6913704998564507,0.0,0,False
2022-12-12,0.6913704998564507,0.6910080952715892,-0.05241828873762122,1,True
2022-12-13,0.6910080952715892,0.6909740418365089,-0.004928080483190822,0,True
2022-12-14,0.6909740418365089,0.6909740418365089,0.0,0,False
2022-12-15,0.6909740418365089,0.6909740418365089,0.0,0,False
2022-12-16,0.6909740418365089,0.6921504812346976,0.17025811781030686,5,True
2022-12-17,0.6921504812346976,0.6791008057893871,-1.885381257271057,5,True
2022-12-18,0.6791008057893871,0.679116815747078,0.002357523000173778,0,True
2022-12-19,0.679116815747078,0.679116815747078,0.0,0,False
2022-12-20,0.679116815747078,0.679116815747078,0.0,0,False
2022-12-21,0.679116815747078,0.679116815747078,0.0,0,False
2022-12-22,0.679116815747078,0.679116815747078,0.0,0,False
2022-12-23,0.679116815747078,0.679116815747078,0.0,0,False
2022-12-24,0.679116815747078,0.679116815747078,0.0,0,False
2022-12-25,0.679116815747078,0.679116815747078,0.0,0,False
2022-12-26,0.679116815747078,0.679116815747078,0.0,0,False
2022-12-27,0.679116815747078,0.679116815747078,0.0,0,False
2022-12-28,0.679116815747078,0.6804891014225349,0.2020691644849526,4,True
2022-12-29,0.6804891014225349,0.675321471351866,-0.7593993878617811,0,True
2022-12-30,0.675321471351866,0.675321471351866,0.0,0,False
2022-12-31,0.675321471351866,0.675321471351866,0.0,0,False
2023-01-01,0.675321471351866,0.675321471351866,0.0,0,False
2023-01-02,0.675321471351866,0.675321471351866,0.0,0,False
2023-01-03,0.675321471351866,0.675321471351866,0.0,0,False
2023-01-04,0.675321471351866,0.675321471351866,0.0,0,False
2023-01-05,0.675321471351866,0.675321471351866,0.0,0,False
2023-01-06,0.675321471351866,0.6747602817567027,-0.08309962276780158,1,True
2023-01-07,0.6747602817567027,0.6759341993030591,0.17397549590503214,0,True
2023-01-08,0.6759341993030591,0.6759341993030591,0.0,0,False
2023-01-09,0.6759341993030591,0.6759341993030591,0.0,0,False
2023-01-10,0.6759341993030591,0.6748953255989908,-0.15369450238491567,2,True
2023-01-11,0.6748953255989908,0.6736060459839965,-0.19103401165950773,1,True
2023-01-12,0.6736060459839965,0.6742181764763722,0.09087366362359184,0,True
2023-01-13,0.6742181764763722,0.6742181764763722,0.0,0,False
2023-01-14,0.6742181764763722,0.6760989705744168,0.2789592692196585,4,True
2023-01-15,0.6760989705744168,0.6779223653297148,0.2696934671781559,1,True
2023-01-16,0.6779223653297148,0.677921028622613,-0.0001971770176245613,0,True
2023-01-17,0.677921028622613,0.677921028622613,0.0,0,False
2023-01-18,0.677921028622613,0.677921028622613,0.0,0,False
2023-01-19,0.677921028622613,0.6712031116651821,-0.9909586329074793,5,True
2023-01-20,0.6712031116651821,0.6711994741507437,-0.0005419394480177253,0,True
2023-01-21,0.6711994741507437,0.6718676047282786,0.09954277428185776,1,True
2023-01-22,0.6718676047282786,0.6717852633948325,-0.012255589176590753,0,True
2023-01-23,0.6717852633948325,0.6717852633948325,0.0,0,False
2023-01-24,0.6717852633948325,0.6717852633948325,0.0,0,False
2023-01-25,0.6717852633948325,0.6728704737703942,0.1615412594908161,6,True
2023-01-26,0.6728704737703942,0.6846221367379186,1.746497048930462,0,True
2023-01-27,0.6846221367379186,0.6846221367379186,0.0,0,False
2023-01-28,0.6846221367379186,0.6846221367379186,0.0,0,False
2023-01-29,0.6846221367379186,0.6846221367379186,0.0,0,False
2023-01-30,0.6846221367379186,0.687343431090723,0.397488513265265,4,True
2023-01-31,0.687343431090723,0.6939431116306041,0.9601721994212165,2,True
2023-02-01,0.6939431116306041,0.6957339575439597,0.25806811586437384,0,True
2023-02-02,0.6957339575439597,0.6957339575439597,0.0,0,False
2023-02-03,0.6957339575439597,0.6961359054017068,0.057773212502953974,1,True
2023-02-04,0.6961359054017068,0.6975421265760249,0.20200382761561553,0,True
2023-02-05,0.6975421265760249,0.6996505820616541,0.30226926880800864,5,True
2023-02-06,0.6996505820616541,0.6924244556381342,-1.032819325644918,0,True
2023-02-07,0.6924244556381342,0.6924244556381342,0.0,0,False
2023-02-08,0.6924244556381342,0.6907961007302597,-0.23516715717006864,1,True
2023-02-09,0.6907961007302597,0.695348359908739,0.658987387691834,4,True
2023-02-10,0.695348359908739,0.66516038850037,-4.341416928391273,3,True
2023-02-11,0.66516038850037,0.66516038850037,0.0,0,False
2023-02-12,0.66516038850037,0.66516038850037,0.0,0,False
2023-02-13,0.66516038850037,0.6654659157621411,0.04593287078624719,2,True
2023-02-14,0.6654659157621411,0.6651600270228151,-0.045966101656114144,0,True
2023-02-15,0.6651600270228151,0.6651600270228151,0.0,0,False
2023-02-16,0.6651600270228151,0.6651600270228151,0.0,0,False
2023-02-17,0.6651600270228151,0.6714328806931354,0.9430593263995535,1,True
2023-02-18,0.6714328806931354,0.6714328806931354,0.0,0,False
2023-02-19,0.6714328806931354,0.6714328806931354,0.0,0,False
2023-02-20,0.6714328806931354,0.6776855299296987,0.9312396542314749,1,True
2023-02-21,0.6776855299296987,0.6743019920091434,-0.49927846635684503,1,True
2023-02-22,0.6743019920091434,0.6743019920091434,0.0,0,False
2023-02-23,0.6743019920091434,0.6806678894582169,0.9440721701126309,1,True
2023-02-24,0.6806678894582169,0.6806678894582169,0.0,0,False
2023-02-25,0.6806678894582169,0.6803667415632505,-0.04424300009305826,1,True
2023-02-26,0.6803667415632505,0.6809590301237394,0.08705430825850513,0,True
2023-02-27,0.6809590301237394,0.6809590301237394,0.0,0,False
2023-02-28,0.6809590301237394,0.6809590301237394,0.0,0,False
2023-03-01,0.6809590301237394,0.6809590301237394,0.0,0,False
2023-03-02,0.6809590301237394,0.6785986671781313,-0.34662334166846165,1,True
2023-03-03,0.6785986671781313,0.671534423728948,-1.0410046159623487,9,True
2023-03-04,0.671534423728948,0.6732839089017771,0.26052054980509887,0,True
2023-03-05,0.6732839089017771,0.6784608428262525,0.7689080128054249,3,True
2023-03-06,0.6784608428262525,0.6772748208977277,-0.17481066756692698,0,True
2023-03-07,0.6772748208977277,0.6772748208977277,0.0,0,False
2023-03-08,0.6772748208977277,0.6772748208977277,0.0,0,False
2023-03-09,0.6772748208977277,0.6772748208977277,0.0,0,False
2023-03-10,0.6772748208977277,0.6617773632415118,-2.2882081509650765,7,True
2023-03-11,0.6617773632415118,0.6586130428547659,-0.47815482404029996,5,True
2023-03-12,0.6586130428547659,0.664360826551887,0.8727102749449545,0,True
2023-03-13,0.664360826551887,0.664360826551887,0.0,0,False
2023-03-14,0.664360826551887,0.664360826551887,0.0,0,False
2023-03-15,0.664360826551887,0.6610408189376109,-0.4997295869335505,1,True
2023-03-16,0.6610408189376109,0.661595748823934,0.08394790010319841,1,True
2023-03-17,0.661595748823934,0.6616691827737207,0.01109951959594735,1,True
2023-03-18,0.6616691827737207,0.6683737083846559,1.0132745767046147,1,True
2023-03-19,0.6683737083846559,0.6657657847396246,-0.390189442270894,1,True
2023-03-20,0.6657657847396246,0.6657520526996752,-0.0020625932218409915,0,True
2023-03-21,0.6657520526996752,0.6657520526996752,0.0,0,False
2023-03-22,0.6657520526996752,0.6657520526996752,0.0,0,False
2023-03-23,0.6657520526996752,0.6795956156537151,2.079387197967053,6,True
2023-03-24,0.6795956156537151,0.6732736975428552,-0.9302470418056985,1,True
2023-03-25,0.6732736975428552,0.6705387711314378,-0.4062131673045588,1,True
2023-03-26,0.6705387711314378,0.6707247093420363,0.02772967330209042,0,True
2023-03-27,0.6707247093420363,0.6673780490760154,-0.4989618273201657,1,True
2023-03-28,0.6673780490760154,0.6781390806070372,1.6124341437241618,4,True
2023-03-29,0.6781390806070372,0.6782330888974382,0.013862685854482137,0,True
2023-03-30,0.6782330888974382,0.6782330888974382,0.0,0,False
2023-03-31,0.6782330888974382,0.6782330888974382,0.0,0,False
2023-04-01,0.6782330888974382,0.6782330888974382,0.0,0,False
2023-04-02,0.6782330888974382,0.6782330888974382,0.0,0,False
2023-04-03,0.6782330888974382,0.6782330888974382,0.0,0,False
2023-04-04,0.6782330888974382,0.6782330888974382,0.0,0,False
2023-04-05,0.6782330888974382,0.6782330888974382,0.0,0,False
2023-04-06,0.6782330888974382,0.6782330888974382,0.0,0,False
2023-04-07,0.6782330888974382,0.6762823915519273,-0.2876145940744368,1,True
2023-04-08,0.6762823915519273,0.6762823915519273,0.0,0,False
2023-04-09,0.6762823915519273,0.6762823915519273,0.0,0,False
2023-04-10,0.6762823915519273,0.6762823915519273,0.0,0,False
2023-04-11,0.6762823915519273,0.6762823915519273,0.0,0,False
2023-04-12,0.6762823915519273,0.6789437255585535,0.3935240721733235,1,True
2023-04-13,0.6789437255585535,0.679190548048647,0.03635389514651255,0,True
2023-04-14,0.679190548048647,0.6830538160910778,0.5688047416929187,1,True
2023-04-15,0.6830538160910778,0.6826444199910641,-0.0599361412482291,0,True
2023-04-16,0.6826444199910641,0.6826444199910641,0.0,0,False
2023-04-17,0.6826444199910641,0.6826444199910641,0.0,0,False
2023-04-18,0.6826444199910641,0.6826444199910641,0.0,0,False
2023-04-19,0.6826444199910641,0.6778659941660564,-0.6999875315863879,7,True
2023-04-20,0.6778659941660564,0.673300388603915,-0.6735262723657209,0,True
2023-04-21,0.673300388603915,0.673300388603915,0.0,0,False
2023-04-22,0.673300388603915,0.673300388603915,0.0,0,False
2023-04-23,0.673300388603915,0.673300388603915,0.0,0,False
2023-04-24,0.673300388603915,0.673300388603915,0.0,0,False
2023-04-25,0.673300388603915,0.673300388603915,0.0,0,False
2023-04-26,0.673300388603915,0.673300388603915,0.0,0,False
2023-04-27,0.673300388603915,0.6728728964487768,-0.0634920404582795,8,True
2023-04-28,0.6728728964487768,0.6776379679264384,0.708168140344223,0,True
2023-04-29,0.6776379679264384,0.6776379679264384,0.0,0,False
2023-04-30,0.6776379679264384,0.6776379679264384,0.0,0,False
2023-05-01,0.6776379679264384,0.6776379679264384,0.0,0,False
2023-05-02,0.6776379679264384,0.6776379679264384,0.0,0,False
2023-05-03,0.6776379679264384,0.6776379679264384,0.0,0,False
2023-05-04,0.6776379679264384,0.6776379679264384,0.0,0,False
2023-05-05,0.6776379679264384,0.6776379679264384,0.0,0,False
2023-05-06,0.6776379679264384,0.6742588931179326,-0.4986548818752934,1,True
2023-05-07,0.6742588931179326,0.6742588931179326,0.0,0,False
2023-05-08,0.6742588931179326,0.6779544142603771,0.5480863775271017,6,True
2023-05-09,0.6779544142603771,0.6631427979548672,-2.184751067911961,6,True
2023-05-10,0.6631427979548672,0.6584850123295902,-0.7023804887335894,1,True
2023-05-11,0.6584850123295902,0.654728362575652,-0.570498900293559,5,True
2023-05-12,0.654728362575652,0.6522967915539692,-0.3713862359829956,0,True
2023-05-13,0.6522967915539692,0.6522967915539692,0.0,0,False
2023-05-14,0.6522967915539692,0.6522967915539692,0.0,0,False
2023-05-15,0.6522967915539692,0.6522967915539692,0.0,0,False
2023-05-16,0.6522967915539692,0.6522967915539692,0.0,0,False
2023-05-17,0.6522967915539692,0.6522967915539692,0.0,0,False
2023-05-18,0.6522967915539692,0.6507541339222039,-0.23649627772814874,1,True
2023-05-19,0.6507541339222039,0.6490364701740651,-0.26394972518825055,0,True
2023-05-20,0.6490364701740651,0.6490364701740651,0.0,0,False
2023-05-21,0.6490364701740651,0.6490364701740651,0.0,0,False
2023-05-22,0.6490364701740651,0.6490364701740651,0.0,0,False
2023-05-23,0.6490364701740651,0.6490364701740651,0.0,0,False
2023-05-24,0.6490364701740651,0.6490364701740651,0.0,0,False
2023-05-25,0.6490364701740651,0.6490364701740651,0.0,0,False
2023-05-26,0.6490364701740651,0.6500130934589192,0.15047279001012548,1,True
2023-05-27,0.6500130934589192,0.65170900119426,0.2609036267740894,0,True
2023-05-28,0.65170900119426,0.65170900119426,0.0,0,False
2023-05-29,0.65170900119426,0.65170900119426,0.0,0,False
2023-05-30,0.65170900119426,0.654273787541755,0.39354778632718634,2,True
2023-05-31,0.654273787541755,0.6486227977071928,-0.8637041468211981,1,True
2023-06-01,0.6486227977071928,0.6483196123705255,-0.04674293560741338,0,True
2023-06-02,0.6483196123705255,0.6483196123705255,0.0,0,False
2023-06-03,0.6483196123705255,0.6483196123705255,0.0,0,False
2023-06-04,0.6483196123705255,0.6450791713465474,-0.49982153279765074,1,True
2023-06-05,0.6450791713465474,0.6450791713465474,0.0,0,False
2023-06-06,0.6450791713465474,0.6367740457520243,-1.2874583405300122,9,True
2023-06-07,0.6367740457520243,0.6368349911277651,0.009570957884874609,0,True
2023-06-08,0.6368349911277651,0.6368349911277651,0.0,0,False
2023-06-09,0.6368349911277651,0.6368349911277651,0.0,0,False
2023-06-10,0.6368349911277651,0.6423932986494237,0.8728018402091031,6,True
2023-06-11,0.6423932986494237,0.6418609416609287,-0.08287088137661769,1,True
2023-06-12,0.6418609416609287,0.641856460513792,-0.0006981492167268399,0,True
2023-06-13,0.641856460513792,0.641856460513792,0.0,0,False
2023-06-14,0.641856460513792,0.641856460513792,0.0,0,False
2023-06-15,0.641856460513792,0.6447733839559496,0.45445105278254516,4,True
2023-06-16,0.6447733839559496,0.6496882129794814,0.7622568092648718,0,True
2023-06-17,0.6496882129794814,0.6496882129794814,0.0,0,False
2023-06-18,0.6496882129794814,0.6496882129794814,0.0,0,False
2023-06-19,0.6496882129794814,0.6496882129794814,0.0,0,False
2023-06-20,0.6496882129794814,0.6464454450623697,-0.499126789177895,1,True
2023-06-21,0.6464454450623697,0.6464454450623697,0.0,0,False
2023-06-22,0.6464454450623697,0.6464454450623697,0.0,0,False
2023-06-23,0.6464454450623697,0.6464454450623697,0.0,0,False
2023-06-24,0.6464454450623697,0.6464454450623697,0.0,0,False
2023-06-25,0.6464454450623697,0.6457701365667606,-0.10446488574823443,3,True
2023-06-26,0.6457701365667606,0.6436851964133083,-0.3228610360548556,0,True
2023-06-27,0.6436851964133083,0.6436851964133083,0.0,0,False
2023-06-28,0.6436851964133083,0.6436851964133083,0.0,0,False
2023-06-29,0.6436851964133083,0.6416110849055827,-0.32222451584762446,2,True
2023-06-30,0.6416110849055827,0.6339106860812268,-1.2001661139456554,7,True
2023-07-01,0.6339106860812268,0.6433434121208255,1.4880213012200327,0,True
2023-07-02,0.6433434121208255,0.6433434121208255,0.0,0,False
2023-07-03,0.6433434121208255,0.6433434121208255,0.0,0,False
2023-07-04,0.6433434121208255,0.6433434121208255,0.0,0,False
2023-07-05,0.6433434121208255,0.6437891977341317,0.06929201494993986,1,True
2023-07-06,0.6437891977341317,0.6440226070948469,0.036255557181874565,1,True
2023-07-07,0.6440226070948469,0.6435156002401988,-0.07872500888365108,0,True
2023-07-08,0.6435156002401988,0.6435156002401988,0.0,0,False
2023-07-09,0.6435156002401988,0.6435156002401988,0.0,0,False
2023-07-10,0.6435156002401988,0.6435156002401988,0.0,0,False
2023-07-11,0.6435156002401988,0.6435156002401988,0.0,0,False
2023-07-12,0.6435156002401988,0.64256120998482,-0.14830879857808954,1,True
2023-07-13,0.64256120998482,0.642156450152287,-0.06299163818846987,0,True
2023-07-14,0.642156450152287,0.642156450152287,0.0,0,False
2023-07-15,0.642156450152287,0.6482669509436007,0.9515595132408405,5,True
2023-07-16,0.6482669509436007,0.6491038953834248,0.12910490633617488,1,True
2023-07-17,0.6491038953834248,0.6499130784729253,0.12466156731696376,0,True
2023-07-18,0.6499130784729253,0.6499130784729253,0.0,0,False
2023-07-19,0.6499130784729253,0.6499130784729253,0.0,0,False
2023-07-20,0.6499130784729253,0.6499130784729253,0.0,0,False
2023-07-21,0.6499130784729253,0.6499130784729253,0.0,0,False
2023-07-22,0.6499130784729253,0.6499130784729253,0.0,0,False
2023-07-23,0.6499130784729253,0.6499130784729253,0.0,0,False
2023-07-24,0.6499130784729253,0.649777467635156,-0.020865996124896924,2,True
2023-07-25,0.649777467635156,0.6503448017804737,0.08731206814274195,0,True
2023-07-26,0.6503448017804737,0.6503448017804737,0.0,0,False
2023-07-27,0.6503448017804737,0.6503448017804737,0.0,0,False
2023-07-28,0.6503448017804737,0.6503448017804737,0.0,0,False
2023-07-29,0.6503448017804737,0.6503448017804737,0.0,0,False
2023-07-30,0.6503448017804737,0.6503448017804737,0.0,0,False
2023-07-31,0.6503448017804737,0.647100885167183,-0.4987994990364619,1,True
2023-08-01,0.647100885167183,0.6440749174608283,-0.46761915733941617,2,True
2023-08-02,0.6440749174608283,0.6472935807657092,0.4997343038244617,0,True
2023-08-03,0.6472935807657092,0.6472935807657092,0.0,0,False
2023-08-04,0.6472935807657092,0.6472935807657092,0.0,0,False
2023-08-05,0.6472935807657092,0.6472935807657092,0.0,0,False
2023-08-06,0.6472935807657092,0.6472935807657092,0.0,0,False
2023-08-07,0.6472935807657092,0.6475734358116649,0.043234639469891256,1,True
2023-08-08,0.6475734358116649,0.6463464582008115,-0.18947312273789318,1,True
2023-08-09,0.6463464582008115,0.6464335230245671,0.013470302598705963,0,True
2023-08-10,0.6464335230245671,0.6436444437586645,-0.4314564710154567,1,True
2023-08-11,0.6436444437586645,0.6432028654783603,-0.06860593369307777,0,True
2023-08-12,0.6432028654783603,0.6432028654783603,0.0,0,False
2023-08-13,0.6432028654783603,0.6450400606256849,0.285632301398131,1,True
2023-08-14,0.6450400606256849,0.6445033048360204,-0.08321278358182083,0,True
2023-08-15,0.6445033048360204,0.6445033048360204,0.0,0,False
2023-08-16,0.6445033048360204,0.6465529028729671,0.3180120290412036,6,True
2023-08-17,0.6465529028729671,0.6503391114071576,0.5855991856762888,4,True
2023-08-18,0.6503391114071576,0.6652918591310785,2.29922319935012,5,True
2023-08-19,0.6652918591310785,0.6653351717480346,0.006510318195185327,0,True
2023-08-20,0.6653351717480346,0.6653351717480346,0.0,0,False
2023-08-21,0.6653351717480346,0.6653351717480346,0.0,0,False
2023-08-22,0.6653351717480346,0.6658841815674124,0.08251627791378002,1,True
2023-08-23,0.6658841815674124,0.666501304449739,0.09267721015298047,0,True
2023-08-24,0.666501304449739,0.666501304449739,0.0,0,False
2023-08-25,0.666501304449739,0.6540774896869422,-1.8640345757543253,4,True
2023-08-26,0.6540774896869422,0.6540774896869422,0.0,0,False
2023-08-27,0.6540774896869422,0.6540774896869422,0.0,0,False
2023-08-28,0.6540774896869422,0.65238043274647,-0.2594580867298357,1,True
2023-08-29,0.65238043274647,0.6569177264123032,0.695498123193472,1,True
2023-08-30,0.6569177264123032,0.6541520362863703,-0.4210101226887919,1,True
2023-08-31,0.6541520362863703,0.6575587787303937,0.5207875623782332,1,True
2023-09-01,0.6575587787303937,0.6564084054072169,-0.17494608244724708,0,True
2023-09-02,0.6564084054072169,0.6545721510102406,-0.2797426696321992,1,True
2023-09-03,0.6545721510102406,0.6561771077197552,0.2451917190545938,0,True
2023-09-04,0.6561771077197552,0.6548084132529616,-0.20858613485464916,2,True
2023-09-05,0.6548084132529616,0.65715228605615,0.3579478754013765,0,True
2023-09-06,0.65715228605615,0.6570977104331722,-0.00830486694419763,2,True
2023-09-07,0.6570977104331722,0.6569788021421029,-0.018095983166788177,1,True
2023-09-08,0.6569788021421029,0.6563668367207497,-0.09314842721833694,1,True
2023-09-09,0.6563668367207497,0.6556934548518958,-0.10259230527522867,2,True
2023-09-10,0.6556934548518958,0.6488057633193459,-1.0504438440834596,3,True
2023-09-11,0.6488057633193459,0.6490350068731128,0.035333156196704074,0,True
2023-09-12,0.6490350068731128,0.6490350068731128,0.0,0,False
2023-09-13,0.6490350068731128,0.6490350068731128,0.0,0,False
2023-09-14,0.6490350068731128,0.6498890799694824,0.1315912219410631,2,True
2023-09-15,0.6498890799694824,0.6576889369278291,1.2001828002269344,0,True
2023-09-16,0.6576889369278291,0.6551693798592287,-0.3830925118445294,2,True
2023-09-17,0.6551693798592287,0.6553550850634338,0.028344609793107267,1,True
2023-09-18,0.6553550850634338,0.6553550850634338,0.0,0,False
2023-09-19,0.6553550850634338,0.6553550850634338,0.0,0,False
2023-09-20,0.6553550850634338,0.6565972537981591,0.18954132851585204,1,True
2023-09-21,0.6565972537981591,0.6520796497762124,-0.6880327317566715,0,True
2023-09-22,0.6520796497762124,0.6582276237883128,0.9428256217181907,1,True
2023-09-23,0.6582276237883128,0.6582276237883128,0.0,0,False
2023-09-24,0.6582276237883128,0.6549420608734569,-0.499152997552188,1,True
2023-09-25,0.6549420608734569,0.6548331057039437,-0.016635848576873613,1,True
2023-09-26,0.6548331057039437,0.6549370421165971,0.015872198847000085,0,True
2023-09-27,0.6549370421165971,0.6549370421165971,0.0,0,False
2023-09-28,0.6549370421165971,0.6549370421165971,0.0,0,False
2023-09-29,0.6549370421165971,0.6516718120911013,-0.4985563215272437,1,True
2023-09-30,0.6516718120911013,0.6516718120911013,0.0,0,False
2023-10-01,0.6516718120911013,0.6513358083576581,-0.051560268099515305,1,True
2023-10-02,0.6513358083576581,0.6530880075301149,0.2690162509067173,0,True
2023-10-03,0.6530880075301149,0.6576094874596522,0.6923232209755215,3,True
2023-10-04,0.6576094874596522,0.6512853021661169,-0.9616931346239643,3,True
2023-10-05,0.6512853021661169,0.6463003783205904,-0.765397872322171,0,True
2023-10-06,0.6463003783205904,0.6463003783205904,0.0,0,False
2023-10-07,0.6463003783205904,0.6446267588831978,-0.2589538074759479,1,True
2023-10-08,0.6446267588831978,0.6430364384121899,-0.24670407318538867,1,True
2023-10-09,0.6430364384121899,0.6418983051231136,-0.17699359182298258,1,True
2023-10-10,0.6418983051231136,0.6398573464135384,-0.31795670642622564,1,True
2023-10-11,0.6398573464135384,0.6397542218628711,-0.01611680341646604,0,True
2023-10-12,0.6397542218628711,0.6397542218628711,0.0,0,False
2023-10-13,0.6397542218628711,0.6397542218628711,0.0,0,False
2023-10-14,0.6397542218628711,0.6397542218628711,0.0,0,False
2023-10-15,0.6397542218628711,0.6397542218628711,0.0,0,False
2023-10-16,0.6397542218628711,0.6397542218628711,0.0,0,False
2023-10-17,0.6397542218628711,0.6397542218628711,0.0,0,False
2023-10-18,0.6397542218628711,0.6370902197684437,-0.41641024058742815,3,True
2023-10-19,0.6370902197684437,0.6299252019951449,-1.124647271449719,3,True
2023-10-20,0.6299252019951449,0.6290132239183586,-0.14477561365981995,0,True
2023-10-21,0.6290132239183586,0.6294397951924384,0.06781594692439885,2,True
2023-10-22,0.6294397951924384,0.6290640515216676,-0.05969493407324,0,True
2023-10-23,0.6290640515216676,0.6290640515216676,0.0,0,False
2023-10-24,0.6290640515216676,0.6279079909447611,-0.18377470054281586,1,True
2023-10-25,0.6279079909447611,0.6335410736605372,0.897119131626356,3,True
2023-10-26,0.6335410736605372,0.6303598340637235,-0.5021362827247855,1,True
2023-10-27,0.6303598340637235,0.6261229149578265,-0.6721429375636245,5,True
2023-10-28,0.6261229149578265,0.6264904071292042,0.05869329529371026,1,True
2023-10-29,0.6264904071292042,0.6273933438625248,0.14412618661763243,0,True
2023-10-30,0.6273933438625248,0.6273933438625248,0.0,0,False
2023-10-31,0.6273933438625248,0.6259719819096927,-0.22655037174629244,1,True
2023-11-01,0.6259719819096927,0.6245609259709701,-0.22541838604626108,1,True
2023-11-02,0.6245609259709701,0.6241032675102665,-0.07327683203879332,2,True
2023-11-03,0.6241032675102665,0.6224671902634469,-0.2621484827897702,0,True
2023-11-04,0.6224671902634469,0.6221947988364545,-0.043759965385026245,1,True
2023-11-05,0.6221947988364545,0.6275510450964364,0.8608632328650945,1,True
2023-11-06,0.6275510450964364,0.6212972121051429,-0.9965457057493299,2,True
2023-11-07,0.6212972121051429,0.6163924571650838,-0.7894377834788968,2,True
2023-11-08,0.6163924571650838,0.6172294119199737,0.13578277040235953,0,True
2023-11-09,0.6172294119199737,0.6172294119199737,0.0,0,False
2023-11-10,0.6172294119199737,0.6231184347157099,0.9541059907397509,5,True
2023-11-11,0.6231184347157099,0.62305536843425,-0.010121074573676836,0,True
2023-11-12,0.62305536843425,0.6238530906288625,0.12803391721303292,1,True
2023-11-13,0.6238530906288625,0.6247986852172944,0.15157327945249932,1,True
2023-11-14,0.6247986852172944,0.6239999953499387,-0.12783155378728317,2,True
2023-11-15,0.6239999953499387,0.6206895663233946,-0.5305174761560116,1,True
2023-11-16,0.6206895663233946,0.6199729579333924,-0.11545359047148152,0,True
2023-11-17,0.6199729579333924,0.6201491492992465,0.02841920177316659,2,True
2023-11-18,0.6201491492992465,0.6187868843786257,-0.21966730457666506,3,True
2023-11-19,0.6187868843786257,0.6163654345949231,-0.3913220924412819,2,True
2023-11-20,0.6163654345949231,0.6175023487300384,0.18445455752438278,0,True
2023-11-21,0.6175023487300384,0.6202531702544292,0.4454754755262247,2,True
2023-11-22,0.6202531702544292,0.6204174819757202,0.026491073189305325,4,True
2023-11-23,0.6204174819757202,0.6209106873410077,0.07949572338241673,2,True
2023-11-24,0.6209106873410077,0.6266847872527899,0.9299404937784583,1,True
2023-11-25,0.6266847872527899,0.6253687347790534,-0.2100023010779717,2,True
2023-11-26,0.6253687347790534,0.6241097106608859,-0.20132508201138322,0,True
2023-11-27,0.6241097106608859,0.6241097106608859,0.0,0,False
2023-11-28,0.6241097106608859,0.6242162082649176,0.017063923571858375,1,True
2023-11-29,0.6242162082649176,0.6259874467806723,0.2837540089960289,1,True
2023-11-30,0.6259874467806723,0.6259816901609949,-0.0009196062488170398,0,True
2023-12-01,0.6259816901609949,0.6259816901609949,0.0,0,False
2023-12-02,0.6259816901609949,0.6259816901609949,0.0,0,False
2023-12-03,0.6259816901609949,0.6269240543800669,0.15054181837645952,2,True
2023-12-04,0.6269240543800669,0.6368471469655737,1.5828221163597167,4,True
2023-12-05,0.6368471469655737,0.635991080867629,-0.1344225379706243,0,True
2023-12-06,0.635991080867629,0.6332090649497938,-0.4374300208801585,1,True
2023-12-07,0.6332090649497938,0.6329278365162357,-0.04441320396768589,2,True
2023-12-08,0.6329278365162357,0.633699118392226,0.12185937029338678,0,True
2023-12-09,0.633699118392226,0.633699118392226,0.0,0,False
2023-12-10,0.633699118392226,0.6321282614321853,-0.24788687792816066,1,True
2023-12-11,0.6321282614321853,0.6371228460652911,0.7901220271009368,5,True
2023-12-12,0.6371228460652911,0.6371540925338418,0.004904308288988801,0,True
2023-12-13,0.6371540925338418,0.6383845570811536,0.19311883290562548,3,True
2023-12-14,0.6383845570811536,0.6429673920996878,0.7178799937592517,0,True
2023-12-15,0.6429673920996878,0.6429673920996878,0.0,0,False
2023-12-16,0.6429673920996878,0.6513283583936328,1.3003717446138596,3,True
2023-12-17,0.6513283583936328,0.6443361585674618,-1.0735291556191018,2,True
2023-12-18,0.6443361585674618,0.6441987932204621,-0.021318894675270705,2,True
2023-12-19,0.6441987932204621,0.6544534028312888,1.5918393077953619,1,True
2023-12-20,0.6544534028312888,0.6562152688594789,0.2692118370181795,0,True
2023-12-21,0.6562152688594789,0.6554119793483411,-0.12241249926018272,1,True
2023-12-22,0.6554119793483411,0.6538698191910882,-0.2352963030651578,0,True
2023-12-23,0.6538698191910882,0.6537184464225088,-0.023150291409190782,1,True
2023-12-24,0.6537184464225088,0.6534822194803349,-0.03613588441118143,1,True
2023-12-25,0.6534822194803349,0.654207405911361,0.11097263390007495,1,True
2023-12-26,0.654207405911361,0.6536383278580228,-0.08698740616447376,0,True
2023-12-27,0.6536383278580228,0.6501051491451774,-0.5405403205812065,7,True
2023-12-28,0.6501051491451774,0.652421202608451,0.35625828626630884,1,True
2023-12-29,0.652421202608451,0.6573544071854307,0.7561379914166055,0,True
2023-12-30,0.6573544071854307,0.6567920730478863,-0.08554504714619604,1,True
2023-12-31,0.6567920730478863,0.6572303245857608,0.06672606991748875,0,True
