day,start_equity,end_equity,return_pct,entries,active
2021-09-02,1.0,1.0,0.0,0,False
2021-09-03,1.0,1.0,0.0,0,False
2021-09-04,1.0,1.0,0.0,0,False
2021-09-05,1.0,1.0,0.0,0,False
2021-09-06,1.0,1.0,0.0,0,False
2021-09-07,1.0,1.0,0.0,0,False
2021-09-08,1.0,1.0,0.0,0,False
2021-09-09,1.0,1.0,0.0,0,False
2021-09-10,1.0,1.0,0.0,0,False
2021-09-11,1.0,1.0,0.0,0,False
2021-09-12,1.0,1.0,0.0,0,False
2021-09-13,1.0,1.0,0.0,0,False
2021-09-14,1.0,1.0,0.0,0,False
2021-09-15,1.0,1.0,0.0,0,False
2021-09-16,1.0,1.0,0.0,0,False
2021-09-17,1.0,1.0,0.0,0,False
2021-09-18,1.0,1.0,0.0,0,False
2021-09-19,1.0,1.0,0.0,0,False
2021-09-20,1.0,1.0,0.0,0,False
2021-09-21,1.0,1.0,0.0,0,False
2021-09-22,1.0,1.0,0.0,0,False
2021-09-23,1.0,1.0,0.0,0,False
2021-09-24,1.0,1.0,0.0,0,False
2021-09-25,1.0,1.0,0.0,0,False
2021-09-26,1.0,1.0,0.0,0,False
2021-09-27,1.0,1.0,0.0,0,False
2021-09-28,1.0,1.0,0.0,0,False
2021-09-29,1.0,1.0,0.0,0,False
2021-09-30,1.0,1.0,0.0,0,False
2021-10-01,1.0,1.0,0.0,0,False
2021-10-02,1.0,1.0,0.0,0,False
2021-10-03,1.0,1.0,0.0,0,False
2021-10-04,1.0,1.0,0.0,0,False
2021-10-05,1.0,1.0,0.0,0,False
2021-10-06,1.0,1.0,0.0,0,False
2021-10-07,1.0,1.0,0.0,0,False
2021-10-08,1.0,1.0,0.0,0,False
2021-10-09,1.0,1.0,0.0,0,False
2021-10-10,1.0,1.0,0.0,0,False
2021-10-11,1.0,1.0,0.0,0,False
2021-10-12,1.0,1.0,0.0,0,False
2021-10-13,1.0,1.0041608138854907,0.4160813885490722,1,True
2021-10-14,1.0041608138854907,1.007338994356227,0.3165011447159083,0,True
2021-10-15,1.007338994356227,1.007338994356227,0.0,0,False
2021-10-16,1.007338994356227,1.007338994356227,0.0,0,False
2021-10-17,1.007338994356227,1.007338994356227,0.0,0,False
2021-10-18,1.007338994356227,1.007338994356227,0.0,0,False
2021-10-19,1.007338994356227,1.007338994356227,0.0,0,False
2021-10-20,1.007338994356227,1.007338994356227,0.0,0,False
2021-10-21,1.007338994356227,1.007338994356227,0.0,0,False
2021-10-22,1.007338994356227,1.007338994356227,0.0,0,False
2021-10-23,1.007338994356227,1.007338994356227,0.0,0,False
2021-10-24,1.007338994356227,1.007338994356227,0.0,0,False
2021-10-25,1.007338994356227,1.0106508322010632,0.3287709364366176,1,True
2021-10-26,1.0106508322010632,1.0106508322010632,0.0,0,False
2021-10-27,1.0106508322010632,1.0184728118641302,0.7739547046166084,4,True
2021-10-28,1.0184728118641302,1.0141151834128959,-0.4278590847465513,0,True
2021-10-29,1.0141151834128959,1.0141151834128959,0.0,0,False
2021-10-30,1.0141151834128959,1.0141151834128959,0.0,0,False
2021-10-31,1.0141151834128959,1.0141151834128959,0.0,0,False
2021-11-01,1.0141151834128959,1.0141151834128959,0.0,0,False
2021-11-02,1.0141151834128959,1.0141151834128959,0.0,0,False
2021-11-03,1.0141151834128959,1.0141151834128959,0.0,0,False
2021-11-04,1.0141151834128959,1.0141151834128959,0.0,0,False
2021-11-05,1.0141151834128959,1.0141151834128959,0.0,0,False
2021-11-06,1.0141151834128959,1.0141151834128959,0.0,0,False
2021-11-07,1.0141151834128959,1.0141151834128959,0.0,0,False
2021-11-08,1.0141151834128959,1.0141151834128959,0.0,0,False
2021-11-09,1.0141151834128959,1.0141151834128959,0.0,0,False
2021-11-10,1.0141151834128959,1.0141151834128959,0.0,0,False
2021-11-11,1.0141151834128959,1.0099980166804376,-0.405986104911904,3,True
2021-11-12,1.0099980166804376,1.0099980166804376,0.0,0,False
2021-11-13,1.0099980166804376,1.0099980166804376,0.0,0,False
2021-11-14,1.0099980166804376,1.0099980166804376,0.0,0,False
2021-11-15,1.0099980166804376,1.0099980166804376,0.0,0,False
2021-11-16,1.0099980166804376,1.0351352773491793,2.4888425772716216,4,True
2021-11-17,1.0351352773491793,1.0383538960021188,0.3109370073042017,0,True
2021-11-18,1.0383538960021188,1.0350860963069686,-0.31470962912856226,1,True
2021-11-19,1.0350860963069686,1.0331626532179068,-0.18582445420959326,0,True
2021-11-20,1.0331626532179068,1.0331626532179068,0.0,0,False
2021-11-21,1.0331626532179068,1.0331626532179068,0.0,0,False
2021-11-22,1.0331626532179068,1.0331626532179068,0.0,0,False
2021-11-23,1.0331626532179068,1.0331626532179068,0.0,0,False
2021-11-24,1.0331626532179068,1.0331626532179068,0.0,0,False
2021-11-25,1.0331626532179068,1.0331626532179068,0.0,0,False
2021-11-26,1.0331626532179068,1.035672979131422,0.24297489903419844,5,True
2021-11-27,1.035672979131422,1.0343113148218286,-0.13147628035400372,0,True
2021-11-28,1.0343113148218286,1.0343113148218286,0.0,0,False
2021-11-29,1.0343113148218286,1.0343113148218286,0.0,0,False
2021-11-30,1.0343113148218286,1.0343113148218286,0.0,0,False
2021-12-01,1.0343113148218286,1.0321696261238984,-0.2070642240145193,1,True
2021-12-02,1.0321696261238984,1.032810540638124,0.06209391344254023,1,True
2021-12-03,1.032810540638124,1.0303583848339186,-0.23742552072428813,1,True
2021-12-04,1.0303583848339186,1.0099056201605463,-1.9850146293193927,4,True
2021-12-05,1.0099056201605463,1.0099056201605463,0.0,0,False
2021-12-06,1.0099056201605463,1.0099056201605463,0.0,0,False
2021-12-07,1.0099056201605463,1.0099056201605463,0.0,0,False
2021-12-08,1.0099056201605463,1.0099056201605463,0.0,0,False
2021-12-09,1.0099056201605463,1.0099056201605463,0.0,0,False
2021-12-10,1.0099056201605463,1.0099056201605463,0.0,0,False
2021-12-11,1.0099056201605463,1.0099056201605463,0.0,0,False
2021-12-12,1.0099056201605463,1.0099056201605463,0.0,0,False
2021-12-13,1.0099056201605463,1.0099056201605463,0.0,0,False
2021-12-14,1.0099056201605463,1.0099056201605463,0.0,0,False
2021-12-15,1.0099056201605463,1.0099056201605463,0.0,0,False
2021-12-16,1.0099056201605463,1.0099056201605463,0.0,0,False
2021-12-17,1.0099056201605463,1.0099056201605463,0.0,0,False
2021-12-18,1.0099056201605463,1.0099056201605463,0.0,0,False
2021-12-19,1.0099056201605463,1.0099056201605463,0.0,0,False
2021-12-20,1.0099056201605463,1.0099056201605463,0.0,0,False
2021-12-21,1.0099056201605463,1.0099056201605463,0.0,0,False
2021-12-22,1.0099056201605463,1.0099056201605463,0.0,0,False
2021-12-23,1.0099056201605463,1.0099056201605463,0.0,0,False
2021-12-24,1.0099056201605463,1.0099056201605463,0.0,0,False
2021-12-25,1.0099056201605463,1.0099056201605463,0.0,0,False
2021-12-26,1.0099056201605463,1.0099056201605463,0.0,0,False
2021-12-27,1.0099056201605463,1.0099056201605463,0.0,0,False
2021-12-28,1.0099056201605463,1.0099056201605463,0.0,0,False
2021-12-29,1.0099056201605463,1.0099056201605463,0.0,0,False
2021-12-30,1.0099056201605463,1.0099056201605463,0.0,0,False
2021-12-31,1.0099056201605463,1.0099056201605463,0.0,0,False
2022-01-01,1.0099056201605463,1.0099056201605463,0.0,0,False
2022-01-02,1.0099056201605463,1.0099056201605463,0.0,0,False
2022-01-03,1.0099056201605463,1.0099056201605463,0.0,0,False
2022-01-04,1.0099056201605463,1.0099056201605463,0.0,0,False
2022-01-05,1.0099056201605463,1.0099056201605463,0.0,0,False
2022-01-06,1.0099056201605463,1.01076421360269,0.08501719616207382,1,True
2022-01-07,1.01076421360269,1.01076421360269,0.0,0,False
2022-01-08,1.01076421360269,1.01076421360269,0.0,0,False
2022-01-09,1.01076421360269,1.01076421360269,0.0,0,False
2022-01-10,1.01076421360269,1.01076421360269,0.0,0,False
2022-01-11,1.01076421360269,1.01076421360269,0.0,0,False
2022-01-12,1.01076421360269,1.01076421360269,0.0,0,False
2022-01-13,1.01076421360269,1.01076421360269,0.0,0,False
2022-01-14,1.01076421360269,1.01076421360269,0.0,0,False
2022-01-15,1.01076421360269,1.01076421360269,0.0,0,False
2022-01-16,1.01076421360269,1.01076421360269,0.0,0,False
2022-01-17,1.01076421360269,1.01076421360269,0.0,0,False
2022-01-18,1.01076421360269,1.01076421360269,0.0,0,False
2022-01-19,1.01076421360269,1.01076421360269,0.0,0,False
2022-01-20,1.01076421360269,1.01076421360269,0.0,0,False
2022-01-21,1.01076421360269,1.01076421360269,0.0,0,False
2022-01-22,1.01076421360269,1.01076421360269,0.0,0,False
2022-01-23,1.01076421360269,1.01076421360269,0.0,0,False
2022-01-24,1.01076421360269,1.01076421360269,0.0,0,False
2022-01-25,1.01076421360269,1.01076421360269,0.0,0,False
2022-01-26,1.01076421360269,1.01076421360269,0.0,0,False
2022-01-27,1.01076421360269,1.01076421360269,0.0,0,False
2022-01-28,1.01076421360269,1.01076421360269,0.0,0,False
2022-01-29,1.01076421360269,1.01076421360269,0.0,0,False
2022-01-30,1.01076421360269,1.01076421360269,0.0,0,False
2022-01-31,1.01076421360269,1.01076421360269,0.0,0,False
2022-02-01,1.01076421360269,1.01076421360269,0.0,0,False
2022-02-02,1.01076421360269,1.01076421360269,0.0,0,False
2022-02-03,1.01076421360269,1.01076421360269,0.0,0,False
2022-02-04,1.01076421360269,1.01076421360269,0.0,0,False
2022-02-05,1.01076421360269,1.01076421360269,0.0,0,False
2022-02-06,1.01076421360269,1.01076421360269,0.0,0,False
2022-02-07,1.01076421360269,1.01076421360269,0.0,0,False
2022-02-08,1.01076421360269,1.01076421360269,0.0,0,False
2022-02-09,1.01076421360269,1.01076421360269,0.0,0,False
2022-02-10,1.01076421360269,1.0104760034593212,-0.028514082660435758,1,True
2022-02-11,1.0104760034593212,1.0079364993629416,-0.25131760553300797,0,True
2022-02-12,1.0079364993629416,1.0079364993629416,0.0,0,False
2022-02-13,1.0079364993629416,1.0079364993629416,0.0,0,False
2022-02-14,1.0079364993629416,1.0079364993629416,0.0,0,False
2022-02-15,1.0079364993629416,1.0079364993629416,0.0,0,False
2022-02-16,1.0079364993629416,1.0079364993629416,0.0,0,False
2022-02-17,1.0079364993629416,1.0079364993629416,0.0,0,False
2022-02-18,1.0079364993629416,1.0079364993629416,0.0,0,False
2022-02-19,1.0079364993629416,1.0079364993629416,0.0,0,False
2022-02-20,1.0079364993629416,1.0079364993629416,0.0,0,False
2022-02-21,1.0079364993629416,1.0079364993629416,0.0,0,False
2022-02-22,1.0079364993629416,1.0079364993629416,0.0,0,False
2022-02-23,1.0079364993629416,1.0079364993629416,0.0,0,False
2022-02-24,1.0079364993629416,1.0079364993629416,0.0,0,False
2022-02-25,1.0079364993629416,1.0079364993629416,0.0,0,False
2022-02-26,1.0079364993629416,1.0079364993629416,0.0,0,False
2022-02-27,1.0079364993629416,1.0079364993629416,0.0,0,False
2022-02-28,1.0079364993629416,1.0079364993629416,0.0,0,False
2022-03-01,1.0079364993629416,1.0079364993629416,0.0,0,False
2022-03-02,1.0079364993629416,1.0079364993629416,0.0,0,False
2022-03-03,1.0079364993629416,1.0079364993629416,0.0,0,False
2022-03-04,1.0079364993629416,1.0079364993629416,0.0,0,False
2022-03-05,1.0079364993629416,1.0079364993629416,0.0,0,False
2022-03-06,1.0079364993629416,1.0079364993629416,0.0,0,False
2022-03-07,1.0079364993629416,1.0079364993629416,0.0,0,False
2022-03-08,1.0079364993629416,1.0079364993629416,0.0,0,False
2022-03-09,1.0079364993629416,1.0079364993629416,0.0,0,False
2022-03-10,1.0079364993629416,1.0079364993629416,0.0,0,False
2022-03-11,1.0079364993629416,1.0079364993629416,0.0,0,False
2022-03-12,1.0079364993629416,1.0079364993629416,0.0,0,False
2022-03-13,1.0079364993629416,1.0079364993629416,0.0,0,False
2022-03-14,1.0079364993629416,1.0079364993629416,0.0,0,False
2022-03-15,1.0079364993629416,1.0079364993629416,0.0,0,False
2022-03-16,1.0079364993629416,1.0079364993629416,0.0,0,False
2022-03-17,1.0079364993629416,1.0079364993629416,0.0,0,False
2022-03-18,1.0079364993629416,1.0079364993629416,0.0,0,False
2022-03-19,1.0079364993629416,1.0079364993629416,0.0,0,False
2022-03-20,1.0079364993629416,1.0079364993629416,0.0,0,False
2022-03-21,1.0079364993629416,1.0079364993629416,0.0,0,False
2022-03-22,1.0079364993629416,1.0079364993629416,0.0,0,False
2022-03-23,1.0079364993629416,1.0079364993629416,0.0,0,False
2022-03-24,1.0079364993629416,1.0079364993629416,0.0,0,False
2022-03-25,1.0079364993629416,1.0079364993629416,0.0,0,False
2022-03-26,1.0079364993629416,1.0079364993629416,0.0,0,False
2022-03-27,1.0079364993629416,1.0079364993629416,0.0,0,False
2022-03-28,1.0079364993629416,1.0079364993629416,0.0,0,False
2022-03-29,1.0079364993629416,1.0079364993629416,0.0,0,False
2022-03-30,1.0079364993629416,1.0067032602428991,-0.12235285861975642,1,True
2022-03-31,1.0067032602428991,1.0067032602428991,0.0,0,False
2022-04-01,1.0067032602428991,1.0067032602428991,0.0,0,False
2022-04-02,1.0067032602428991,1.0067032602428991,0.0,0,False
2022-04-03,1.0067032602428991,1.0067032602428991,0.0,0,False
2022-04-04,1.0067032602428991,1.0067032602428991,0.0,0,False
2022-04-05,1.0067032602428991,1.0067032602428991,0.0,0,False
2022-04-06,1.0067032602428991,1.0076559554859423,0.09463516019738716,1,True
2022-04-07,1.0076559554859423,1.0076559554859423,0.0,0,False
2022-04-08,1.0076559554859423,1.0076559554859423,0.0,0,False
2022-04-09,1.0076559554859423,1.0076559554859423,0.0,0,False
2022-04-10,1.0076559554859423,1.0076559554859423,0.0,0,False
2022-04-11,1.0076559554859423,1.0076559554859423,0.0,0,False
2022-04-12,1.0076559554859423,1.0076559554859423,0.0,0,False
2022-04-13,1.0076559554859423,1.0076559554859423,0.0,0,False
2022-04-14,1.0076559554859423,1.0076559554859423,0.0,0,False
2022-04-15,1.0076559554859423,1.0076559554859423,0.0,0,False
2022-04-16,1.0076559554859423,1.0076559554859423,0.0,0,False
2022-04-17,1.0076559554859423,1.0076559554859423,0.0,0,False
2022-04-18,1.0076559554859423,1.009759691062282,0.20877518411779317,1,True
2022-04-19,1.009759691062282,1.0086648696158629,-0.10842396028576395,0,True
2022-04-20,1.0086648696158629,1.0086648696158629,0.0,0,False
2022-04-21,1.0086648696158629,1.0086648696158629,0.0,0,False
2022-04-22,1.0086648696158629,1.0086648696158629,0.0,0,False
2022-04-23,1.0086648696158629,1.0086648696158629,0.0,0,False
2022-04-24,1.0086648696158629,1.0086648696158629,0.0,0,False
2022-04-25,1.0086648696158629,1.0086648696158629,0.0,0,False
2022-04-26,1.0086648696158629,1.0086648696158629,0.0,0,False
2022-04-27,1.0086648696158629,1.0086648696158629,0.0,0,False
2022-04-28,1.0086648696158629,1.0086648696158629,0.0,0,False
2022-04-29,1.0086648696158629,1.0086648696158629,0.0,0,False
2022-04-30,1.0086648696158629,1.0086648696158629,0.0,0,False
2022-05-01,1.0086648696158629,1.0212746072271297,1.2501414484742623,4,True
2022-05-02,1.0212746072271297,1.0212746072271297,0.0,0,False
2022-05-03,1.0212746072271297,1.0212746072271297,0.0,0,False
2022-05-04,1.0212746072271297,1.0212746072271297,0.0,0,False
2022-05-05,1.0212746072271297,1.0212746072271297,0.0,0,False
2022-05-06,1.0212746072271297,1.0218741547646684,0.05870581068949665,1,True
2022-05-07,1.0218741547646684,1.021120353715498,-0.0737665245427288,0,True
2022-05-08,1.021120353715498,1.021120353715498,0.0,0,False
2022-05-09,1.021120353715498,1.021120353715498,0.0,0,False
2022-05-10,1.021120353715498,1.021120353715498,0.0,0,False
2022-05-11,1.021120353715498,1.021120353715498,0.0,0,False
2022-05-12,1.021120353715498,1.021120353715498,0.0,0,False
2022-05-13,1.021120353715498,1.021120353715498,0.0,0,False
2022-05-14,1.021120353715498,1.021120353715498,0.0,0,False
2022-05-15,1.021120353715498,1.021120353715498,0.0,0,False
2022-05-16,1.021120353715498,1.021120353715498,0.0,0,False
2022-05-17,1.021120353715498,1.021120353715498,0.0,0,False
2022-05-18,1.021120353715498,1.021120353715498,0.0,0,False
2022-05-19,1.021120353715498,1.021120353715498,0.0,0,False
2022-05-20,1.021120353715498,1.0241046234653053,0.29225445746414724,1,True
2022-05-21,1.0241046234653053,1.0241046234653053,0.0,0,False
2022-05-22,1.0241046234653053,1.0241046234653053,0.0,0,False
2022-05-23,1.0241046234653053,1.0241046234653053,0.0,0,False
2022-05-24,1.0241046234653053,1.0241046234653053,0.0,0,False
2022-05-25,1.0241046234653053,1.0189921061041745,-0.49921826774215194,1,True
2022-05-26,1.0189921061041745,1.0189921061041745,0.0,0,False
2022-05-27,1.0189921061041745,1.0189921061041745,0.0,0,False
2022-05-28,1.0189921061041745,1.0189921061041745,0.0,0,False
2022-05-29,1.0189921061041745,1.0189921061041745,0.0,0,False
2022-05-30,1.0189921061041745,1.0189921061041745,0.0,0,False
2022-05-31,1.0189921061041745,1.0189921061041745,0.0,0,False
2022-06-01,1.0189921061041745,1.0189921061041745,0.0,0,False
2022-06-02,1.0189921061041745,1.0189921061041745,0.0,0,False
2022-06-03,1.0189921061041745,1.0189921061041745,0.0,0,False
2022-06-04,1.0189921061041745,1.0189921061041745,0.0,0,False
2022-06-05,1.0189921061041745,1.0189921061041745,0.0,0,False
2022-06-06,1.0189921061041745,1.0189921061041745,0.0,0,False
2022-06-07,1.0189921061041745,1.0189921061041745,0.0,0,False
2022-06-08,1.0189921061041745,1.0189921061041745,0.0,0,False
2022-06-09,1.0189921061041745,1.0189921061041745,0.0,0,False
2022-06-10,1.0189921061041745,1.0189921061041745,0.0,0,False
2022-06-11,1.0189921061041745,1.0189921061041745,0.0,0,False
2022-06-12,1.0189921061041745,1.0189921061041745,0.0,0,False
2022-06-13,1.0189921061041745,1.0189921061041745,0.0,0,False
2022-06-14,1.0189921061041745,1.0189921061041745,0.0,0,False
2022-06-15,1.0189921061041745,1.0189921061041745,0.0,0,False
2022-06-16,1.0189921061041745,1.0189921061041745,0.0,0,False
2022-06-17,1.0189921061041745,1.0189921061041745,0.0,0,False
2022-06-18,1.0189921061041745,1.0114502090558983,-0.7401330199809264,4,True
2022-06-19,1.0114502090558983,1.0113125029531511,-0.013614718897114741,0,True
2022-06-20,1.0113125029531511,1.0113125029531511,0.0,0,False
2022-06-21,1.0113125029531511,1.0113125029531511,0.0,0,False
2022-06-22,1.0113125029531511,1.0113125029531511,0.0,0,False
2022-06-23,1.0113125029531511,1.0113125029531511,0.0,0,False
2022-06-24,1.0113125029531511,1.0113125029531511,0.0,0,False
2022-06-25,1.0113125029531511,1.0113125029531511,0.0,0,False
2022-06-26,1.0113125029531511,1.0113125029531511,0.0,0,False
2022-06-27,1.0113125029531511,1.0113125029531511,0.0,0,False
2022-06-28,1.0113125029531511,1.0124695031333149,0.11440580204291617,1,True
2022-06-29,1.0124695031333149,1.016735918505412,0.4213870500685335,0,True
2022-06-30,1.016735918505412,1.016735918505412,0.0,0,False
2022-07-01,1.016735918505412,1.016735918505412,0.0,0,False
2022-07-02,1.016735918505412,1.016735918505412,0.0,0,False
2022-07-03,1.016735918505412,1.016735918505412,0.0,0,False
2022-07-04,1.016735918505412,1.016735918505412,0.0,0,False
2022-07-05,1.016735918505412,1.016735918505412,0.0,0,False
2022-07-06,1.016735918505412,1.016735918505412,0.0,0,False
2022-07-07,1.016735918505412,1.016735918505412,0.0,0,False
2022-07-08,1.016735918505412,1.016735918505412,0.0,0,False
2022-07-09,1.016735918505412,1.016735918505412,0.0,0,False
2022-07-10,1.016735918505412,1.016735918505412,0.0,0,False
2022-07-11,1.016735918505412,1.016735918505412,0.0,0,False
2022-07-12,1.016735918505412,1.016735918505412,0.0,0,False
2022-07-13,1.016735918505412,1.0249620766959728,0.8090752024039194,4,True
2022-07-14,1.0249620766959728,1.042593921123685,1.720243590333559,0,True
2022-07-15,1.042593921123685,1.042593921123685,0.0,0,False
2022-07-16,1.042593921123685,1.042593921123685,0.0,0,False
2022-07-17,1.042593921123685,1.042593921123685,0.0,0,False
2022-07-18,1.042593921123685,1.042593921123685,0.0,0,False
2022-07-19,1.042593921123685,1.042593921123685,0.0,0,False
2022-07-20,1.042593921123685,1.042593921123685,0.0,0,False
2022-07-21,1.042593921123685,1.0400910835156896,-0.24005871867139872,3,True
2022-07-22,1.0400910835156896,1.0400910835156896,0.0,0,False
2022-07-23,1.0400910835156896,1.0400910835156896,0.0,0,False
2022-07-24,1.0400910835156896,1.0400910835156896,0.0,0,False
2022-07-25,1.0400910835156896,1.0408140989761088,0.06951462923567853,1,True
2022-07-26,1.0408140989761088,1.0408140989761088,0.0,0,False
2022-07-27,1.0408140989761088,1.0408140989761088,0.0,0,False
2022-07-28,1.0408140989761088,1.0408140989761088,0.0,0,False
2022-07-29,1.0408140989761088,1.0408140989761088,0.0,0,False
2022-07-30,1.0408140989761088,1.0408140989761088,0.0,0,False
2022-07-31,1.0408140989761088,1.0408140989761088,0.0,0,False
2022-08-01,1.0408140989761088,1.0408140989761088,0.0,0,False
2022-08-02,1.0408140989761088,1.0408140989761088,0.0,0,False
2022-08-03,1.0408140989761088,1.0408140989761088,0.0,0,False
2022-08-04,1.0408140989761088,1.0408140989761088,0.0,0,False
2022-08-05,1.0408140989761088,1.0408140989761088,0.0,0,False
2022-08-06,1.0408140989761088,1.0408140989761088,0.0,0,False
2022-08-07,1.0408140989761088,1.0408140989761088,0.0,0,False
2022-08-08,1.0408140989761088,1.0408140989761088,0.0,0,False
2022-08-09,1.0408140989761088,1.0422553593847135,0.13847433562079736,1,True
2022-08-10,1.0422553593847135,1.0422553593847135,0.0,0,False
2022-08-11,1.0422553593847135,1.0422553593847135,0.0,0,False
2022-08-12,1.0422553593847135,1.0424116947141808,0.014999714615004933,1,True
2022-08-13,1.0424116947141808,1.0424116947141808,0.0,0,False
2022-08-14,1.0424116947141808,1.0424116947141808,0.0,0,False
2022-08-15,1.0424116947141808,1.0424116947141808,0.0,0,False
2022-08-16,1.0424116947141808,1.0424116947141808,0.0,0,False
2022-08-17,1.0424116947141808,1.0424116947141808,0.0,0,False
2022-08-18,1.0424116947141808,1.0424116947141808,0.0,0,False
2022-08-19,1.0424116947141808,1.018957542900792,-2.249989321140511,7,True
2022-08-20,1.018957542900792,1.018957542900792,0.0,0,False
2022-08-21,1.018957542900792,1.018957542900792,0.0,0,False
2022-08-22,1.018957542900792,1.018957542900792,0.0,0,False
2022-08-23,1.018957542900792,1.018957542900792,0.0,0,False
2022-08-24,1.018957542900792,1.018957542900792,0.0,0,False
2022-08-25,1.018957542900792,1.018957542900792,0.0,0,False
2022-08-26,1.018957542900792,1.018957542900792,0.0,0,False
2022-08-27,1.018957542900792,1.018957542900792,0.0,0,False
2022-08-28,1.018957542900792,1.018957542900792,0.0,0,False
2022-08-29,1.018957542900792,1.018957542900792,0.0,0,False
2022-08-30,1.018957542900792,1.018957542900792,0.0,0,False
2022-08-31,1.018957542900792,1.018957542900792,0.0,0,False
2022-09-01,1.018957542900792,1.018957542900792,0.0,0,False
2022-09-02,1.018957542900792,1.018957542900792,0.0,0,False
2022-09-03,1.018957542900792,1.018957542900792,0.0,0,False
2022-09-04,1.018957542900792,1.018957542900792,0.0,0,False
2022-09-05,1.018957542900792,1.018957542900792,0.0,0,False
2022-09-06,1.018957542900792,1.018957542900792,0.0,0,False
2022-09-07,1.018957542900792,1.0055523859567759,-1.315575613273734,4,True
2022-09-08,1.0055523859567759,1.0055523859567759,0.0,0,False
2022-09-09,1.0055523859567759,1.0055523859567759,0.0,0,False
2022-09-10,1.0055523859567759,1.0055523859567759,0.0,0,False
2022-09-11,1.0055523859567759,1.0055523859567759,0.0,0,False
2022-09-12,1.0055523859567759,1.0055523859567759,0.0,0,False
2022-09-13,1.0055523859567759,0.9989129166771977,-0.6602807941488487,4,True
2022-09-14,0.9989129166771977,0.9942260540328863,-0.4691963199256466,0,True
2022-09-15,0.9942260540328863,0.9978667384704158,0.3661827632420067,1,True
2022-09-16,0.9978667384704158,0.9978667384704158,0.0,0,False
2022-09-17,0.9978667384704158,0.9978667384704158,0.0,0,False
2022-09-18,0.9978667384704158,0.9978667384704158,0.0,0,False
2022-09-19,0.9978667384704158,0.9943687430179465,-0.35054735443244,5,True
2022-09-20,0.9943687430179465,0.9943687430179465,0.0,0,False
2022-09-21,0.9943687430179465,0.9943687430179465,0.0,0,False
2022-09-22,0.9943687430179465,0.9943687430179465,0.0,0,False
2022-09-23,0.9943687430179465,0.9943687430179465,0.0,0,False
2022-09-24,0.9943687430179465,0.9943687430179465,0.0,0,False
2022-09-25,0.9943687430179465,0.9943687430179465,0.0,0,False
2022-09-26,0.9943687430179465,0.9943687430179465,0.0,0,False
2022-09-27,0.9943687430179465,0.9943687430179465,0.0,0,False
2022-09-28,0.9943687430179465,0.9943687430179465,0.0,0,False
2022-09-29,0.9943687430179465,0.9943687430179465,0.0,0,False
2022-09-30,0.9943687430179465,0.9943687430179465,0.0,0,False
2022-10-01,0.9943687430179465,0.9943687430179465,0.0,0,False
2022-10-02,0.9943687430179465,0.9943687430179465,0.0,0,False
2022-10-03,0.9943687430179465,0.9943687430179465,0.0,0,False
2022-10-04,0.9943687430179465,0.9943687430179465,0.0,0,False
2022-10-05,0.9943687430179465,0.9943687430179465,0.0,0,False
2022-10-06,0.9943687430179465,0.9943687430179465,0.0,0,False
2022-10-07,0.9943687430179465,0.9943687430179465,0.0,0,False
2022-10-08,0.9943687430179465,0.9943687430179465,0.0,0,False
2022-10-09,0.9943687430179465,0.9943687430179465,0.0,0,False
2022-10-10,0.9943687430179465,0.9943687430179465,0.0,0,False
2022-10-11,0.9943687430179465,1.012614214304501,1.8348798083876572,4,True
2022-10-12,1.012614214304501,1.012614214304501,0.0,0,False
2022-10-13,1.012614214304501,1.012614214304501,0.0,0,False
2022-10-14,1.012614214304501,1.012614214304501,0.0,0,False
2022-10-15,1.012614214304501,1.012614214304501,0.0,0,False
2022-10-16,1.012614214304501,1.012614214304501,0.0,0,False
2022-10-17,1.012614214304501,1.012614214304501,0.0,0,False
2022-10-18,1.012614214304501,1.012614214304501,0.0,0,False
2022-10-19,1.012614214304501,1.012614214304501,0.0,0,False
2022-10-20,1.012614214304501,1.015618901375403,0.2967257449536964,1,True
2022-10-21,1.015618901375403,1.015618901375403,0.0,0,False
2022-10-22,1.015618901375403,1.015618901375403,0.0,0,False
2022-10-23,1.015618901375403,1.015618901375403,0.0,0,False
2022-10-24,1.015618901375403,1.015618901375403,0.0,0,False
2022-10-25,1.015618901375403,1.015618901375403,0.0,0,False
2022-10-26,1.015618901375403,1.015618901375403,0.0,0,False
2022-10-27,1.015618901375403,1.015618901375403,0.0,0,False
2022-10-28,1.015618901375403,1.015618901375403,0.0,0,False
2022-10-29,1.015618901375403,1.015618901375403,0.0,0,False
2022-10-30,1.015618901375403,1.015618901375403,0.0,0,False
2022-10-31,1.015618901375403,1.015618901375403,0.0,0,False
2022-11-01,1.015618901375403,1.015618901375403,0.0,0,False
2022-11-02,1.015618901375403,1.0189661491992124,0.3295771493890598,1,True
2022-11-03,1.0189661491992124,1.0189661491992124,0.0,0,False
2022-11-04,1.0189661491992124,1.0138791801775924,-0.499228460692025,1,True
2022-11-05,1.0138791801775924,1.0138791801775924,0.0,0,False
2022-11-06,1.0138791801775924,1.0138791801775924,0.0,0,False
2022-11-07,1.0138791801775924,1.0138791801775924,0.0,0,False
2022-11-08,1.0138791801775924,1.0106092162410165,-0.322520079365185,2,True
2022-11-09,1.0106092162410165,1.012991536735117,0.2357311269099327,0,True
2022-11-10,1.012991536735117,1.012991536735117,0.0,0,False
2022-11-11,1.012991536735117,1.0097104142946929,-0.3239042303353479,2,True
2022-11-12,1.0097104142946929,1.0114131736407275,0.16863838600931214,0,True
2022-11-13,1.0114131736407275,1.00635998539108,-0.49961661379767097,1,True
2022-11-14,1.00635998539108,1.00635998539108,0.0,0,False
2022-11-15,1.00635998539108,1.00635998539108,0.0,0,False
2022-11-16,1.00635998539108,1.00635998539108,0.0,0,False
2022-11-17,1.00635998539108,1.00635998539108,0.0,0,False
2022-11-18,1.00635998539108,1.00635998539108,0.0,0,False
2022-11-19,1.00635998539108,1.006328848267867,-0.00309403430831523,2,True
2022-11-20,1.006328848267867,1.0012807683422662,-0.5016332319489503,0,True
2022-11-21,1.0012807683422662,1.0012807683422662,0.0,0,False
2022-11-22,1.0012807683422662,1.0012807683422662,0.0,0,False
2022-11-23,1.0012807683422662,1.0012807683422662,0.0,0,False
2022-11-24,1.0012807683422662,1.0012807683422662,0.0,0,False
2022-11-25,1.0012807683422662,1.0012807683422662,0.0,0,False
2022-11-26,1.0012807683422662,1.0012807683422662,0.0,0,False
2022-11-27,1.0012807683422662,1.0012807683422662,0.0,0,False
2022-11-28,1.0012807683422662,0.9984887534254133,-0.2788443566608567,2,True
2022-11-29,0.9984887534254133,0.9984887534254133,0.0,0,False
2022-11-30,0.9984887534254133,0.9984887534254133,0.0,0,False
2022-12-01,0.9984887534254133,0.9983214833342421,-0.016752326012425822,1,True
2022-12-02,0.9983214833342421,0.9983214833342421,0.0,0,False
2022-12-03,0.9983214833342421,0.9983214833342421,0.0,0,False
2022-12-04,0.9983214833342421,0.9983214833342421,0.0,0,False
2022-12-05,0.9983214833342421,0.9983214833342421,0.0,0,False
2022-12-06,0.9983214833342421,0.9983214833342421,0.0,0,False
2022-12-07,0.9983214833342421,0.9983214833342421,0.0,0,False
2022-12-08,0.9983214833342421,0.9933368009186456,-0.4993063355652083,1,True
2022-12-09,0.9933368009186456,0.9933368009186456,0.0,0,False
2022-12-10,0.9933368009186456,0.9933368009186456,0.0,0,False
2022-12-11,0.9933368009186456,0.9933368009186456,0.0,0,False
2022-12-12,0.9933368009186456,0.9933368009186456,0.0,0,False
2022-12-13,0.9933368009186456,0.9933368009186456,0.0,0,False
2022-12-14,0.9933368009186456,0.9933368009186456,0.0,0,False
2022-12-15,0.9933368009186456,0.9933368009186456,0.0,0,False
2022-12-16,0.9933368009186456,0.9933368009186456,0.0,0,False
2022-12-17,0.9933368009186456,0.9954082677026738,0.20853619659639833,4,True
2022-12-18,0.9954082677026738,0.9954082677026738,0.0,0,False
2022-12-19,0.9954082677026738,0.9954082677026738,0.0,0,False
2022-12-20,0.9954082677026738,0.9954082677026738,0.0,0,False
2022-12-21,0.9954082677026738,0.9954082677026738,0.0,0,False
2022-12-22,0.9954082677026738,0.9954082677026738,0.0,0,False
2022-12-23,0.9954082677026738,0.9954082677026738,0.0,0,False
2022-12-24,0.9954082677026738,0.9954082677026738,0.0,0,False
2022-12-25,0.9954082677026738,0.9954082677026738,0.0,0,False
2022-12-26,0.9954082677026738,0.9954082677026738,0.0,0,False
2022-12-27,0.9954082677026738,0.9954082677026738,0.0,0,False
2022-12-28,0.9954082677026738,0.9971989011873587,0.17988935221699975,1,True
2022-12-29,0.9971989011873587,0.9964570975167076,-0.07438873726873796,0,True
2022-12-30,0.9964570975167076,0.9964570975167076,0.0,0,False
2022-12-31,0.9964570975167076,0.9964570975167076,0.0,0,False
2023-01-01,0.9964570975167076,0.9964570975167076,0.0,0,False
2023-01-02,0.9964570975167076,0.9964570975167076,0.0,0,False
2023-01-03,0.9964570975167076,0.9964570975167076,0.0,0,False
2023-01-04,0.9964570975167076,0.9964570975167076,0.0,0,False
2023-01-05,0.9964570975167076,0.9964570975167076,0.0,0,False
2023-01-06,0.9964570975167076,0.9964570975167076,0.0,0,False
2023-01-07,0.9964570975167076,0.9964570975167076,0.0,0,False
2023-01-08,0.9964570975167076,0.9964570975167076,0.0,0,False
2023-01-09,0.9964570975167076,0.9964570975167076,0.0,0,False
2023-01-10,0.9964570975167076,0.9947088352032769,-0.17544782588106989,2,True
2023-01-11,0.9947088352032769,0.9952243171985432,0.051822400387235845,0,True
2023-01-12,0.9952243171985432,0.9952243171985432,0.0,0,False
2023-01-13,0.9952243171985432,0.9952243171985432,0.0,0,False
2023-01-14,0.9952243171985432,0.9952243171985432,0.0,0,False
2023-01-15,0.9952243171985432,0.9952243171985432,0.0,0,False
2023-01-16,0.9952243171985432,0.9952243171985432,0.0,0,False
2023-01-17,0.9952243171985432,0.9952243171985432,0.0,0,False
2023-01-18,0.9952243171985432,0.9952243171985432,0.0,0,False
2023-01-19,0.9952243171985432,0.9952243171985432,0.0,0,False
2023-01-20,0.9952243171985432,0.9952243171985432,0.0,0,False
2023-01-21,0.9952243171985432,0.9952243171985432,0.0,0,False
2023-01-22,0.9952243171985432,0.9952243171985432,0.0,0,False
2023-01-23,0.9952243171985432,0.9952243171985432,0.0,0,False
2023-01-24,0.9952243171985432,0.9952243171985432,0.0,0,False
2023-01-25,0.9952243171985432,1.0032561281701207,0.807035241480647,4,True
2023-01-26,1.0032561281701207,1.0032561281701207,0.0,0,False
2023-01-27,1.0032561281701207,1.0032561281701207,0.0,0,False
2023-01-28,1.0032561281701207,1.0032561281701207,0.0,0,False
2023-01-29,1.0032561281701207,1.0032561281701207,0.0,0,False
2023-01-30,1.0032561281701207,1.0041587650340256,0.08997073016152601,1,True
2023-01-31,1.0041587650340256,1.0015806546410517,-0.2567433042210743,1,True
2023-02-01,1.0015806546410517,1.0015806546410517,0.0,0,False
2023-02-02,1.0015806546410517,1.0015806546410517,0.0,0,False
2023-02-03,1.0015806546410517,1.0015806546410517,0.0,0,False
2023-02-04,1.0015806546410517,1.0015806546410517,0.0,0,False
2023-02-05,1.0015806546410517,1.0033289410868247,0.17455273698347984,4,True
2023-02-06,1.0033289410868247,1.0140838334047875,1.071920870369092,0,True
2023-02-07,1.0140838334047875,1.0140838334047875,0.0,0,False
2023-02-08,1.0140838334047875,1.0140838334047875,0.0,0,False
2023-02-09,1.0140838334047875,1.0140838334047875,0.0,0,False
2023-02-10,1.0140838334047875,1.0140838334047875,0.0,0,False
2023-02-11,1.0140838334047875,1.0140838334047875,0.0,0,False
2023-02-12,1.0140838334047875,1.0140838334047875,0.0,0,False
2023-02-13,1.0140838334047875,1.0140838334047875,0.0,0,False
2023-02-14,1.0140838334047875,1.0140838334047875,0.0,0,False
2023-02-15,1.0140838334047875,1.0140838334047875,0.0,0,False
2023-02-16,1.0140838334047875,1.0140838334047875,0.0,0,False
2023-02-17,1.0140838334047875,1.0140838334047875,0.0,0,False
2023-02-18,1.0140838334047875,1.0140838334047875,0.0,0,False
2023-02-19,1.0140838334047875,1.0140838334047875,0.0,0,False
2023-02-20,1.0140838334047875,1.0140838334047875,0.0,0,False
2023-02-21,1.0140838334047875,1.0140838334047875,0.0,0,False
2023-02-22,1.0140838334047875,1.0140838334047875,0.0,0,False
2023-02-23,1.0140838334047875,1.0232656958934274,0.9054342635373525,1,True
2023-02-24,1.0232656958934274,1.0232656958934274,0.0,0,False
2023-02-25,1.0232656958934274,1.0232656958934274,0.0,0,False
2023-02-26,1.0232656958934274,1.0232656958934274,0.0,0,False
2023-02-27,1.0232656958934274,1.0232656958934274,0.0,0,False
2023-02-28,1.0232656958934274,1.0232656958934274,0.0,0,False
2023-03-01,1.0232656958934274,1.0232656958934274,0.0,0,False
2023-03-02,1.0232656958934274,1.0232656958934274,0.0,0,False
2023-03-03,1.0232656958934274,1.0239268394394045,0.06461113165725507,1,True
2023-03-04,1.0239268394394045,1.0239268394394045,0.0,0,False
2023-03-05,1.0239268394394045,1.0239268394394045,0.0,0,False
2023-03-06,1.0239268394394045,1.0239268394394045,0.0,0,False
2023-03-07,1.0239268394394045,1.0239268394394045,0.0,0,False
2023-03-08,1.0239268394394045,1.0239268394394045,0.0,0,False
2023-03-09,1.0239268394394045,1.0239268394394045,0.0,0,False
2023-03-10,1.0239268394394045,1.0239268394394045,0.0,0,False
2023-03-11,1.0239268394394045,1.0239268394394045,0.0,0,False
2023-03-12,1.0239268394394045,1.0239268394394045,0.0,0,False
2023-03-13,1.0239268394394045,1.0239268394394045,0.0,0,False
2023-03-14,1.0239268394394045,1.0239268394394045,0.0,0,False
2023-03-15,1.0239268394394045,1.0239268394394045,0.0,0,False
2023-03-16,1.0239268394394045,1.0239268394394045,0.0,0,False
2023-03-17,1.0239268394394045,1.0239268394394045,0.0,0,False
2023-03-18,1.0239268394394045,1.0239268394394045,0.0,0,False
2023-03-19,1.0239268394394045,1.0239268394394045,0.0,0,False
2023-03-20,1.0239268394394045,1.0239268394394045,0.0,0,False
2023-03-21,1.0239268394394045,1.0239268394394045,0.0,0,False
2023-03-22,1.0239268394394045,1.0239268394394045,0.0,0,False
2023-03-23,1.0239268394394045,1.0309122941268414,0.6822220512611388,3,True
2023-03-24,1.0309122941268414,1.0318374473912628,0.08974121947056268,0,True
2023-03-25,1.0318374473912628,1.027621265546594,-0.40860911331803695,1,True
2023-03-26,1.027621265546594,1.0278989465998172,0.02702173091713167,0,True
2023-03-27,1.0278989465998172,1.0278989465998172,0.0,0,False
2023-03-28,1.0278989465998172,1.0278989465998172,0.0,0,False
2023-03-29,1.0278989465998172,1.0278989465998172,0.0,0,False
2023-03-30,1.0278989465998172,1.0278989465998172,0.0,0,False
2023-03-31,1.0278989465998172,1.0278989465998172,0.0,0,False
2023-04-01,1.0278989465998172,1.0278989465998172,0.0,0,False
2023-04-02,1.0278989465998172,1.0278989465998172,0.0,0,False
2023-04-03,1.0278989465998172,1.0278989465998172,0.0,0,False
2023-04-04,1.0278989465998172,1.0278989465998172,0.0,0,False
2023-04-05,1.0278989465998172,1.0278989465998172,0.0,0,False
2023-04-06,1.0278989465998172,1.0278989465998172,0.0,0,False
2023-04-07,1.0278989465998172,1.0248763305251933,-0.2940577071921635,1,True
2023-04-08,1.0248763305251933,1.0248763305251933,0.0,0,False
2023-04-09,1.0248763305251933,1.0248763305251933,0.0,0,False
2023-04-10,1.0248763305251933,1.0248763305251933,0.0,0,False
2023-04-11,1.0248763305251933,1.0248763305251933,0.0,0,False
2023-04-12,1.0248763305251933,1.0248763305251933,0.0,0,False
2023-04-13,1.0248763305251933,1.0248763305251933,0.0,0,False
2023-04-14,1.0248763305251933,1.0248763305251933,0.0,0,False
2023-04-15,1.0248763305251933,1.0248763305251933,0.0,0,False
2023-04-16,1.0248763305251933,1.0248763305251933,0.0,0,False
2023-04-17,1.0248763305251933,1.0248763305251933,0.0,0,False
2023-04-18,1.0248763305251933,1.0248763305251933,0.0,0,False
2023-04-19,1.0248763305251933,1.0188517361938758,-0.5878362249063018,2,True
2023-04-20,1.0188517361938758,1.0175251516717714,-0.13020388295751362,0,True
2023-04-21,1.0175251516717714,1.0175251516717714,0.0,0,False
2023-04-22,1.0175251516717714,1.0175251516717714,0.0,0,False
2023-04-23,1.0175251516717714,1.0175251516717714,0.0,0,False
2023-04-24,1.0175251516717714,1.0175251516717714,0.0,0,False
2023-04-25,1.0175251516717714,1.0175251516717714,0.0,0,False
2023-04-26,1.0175251516717714,1.0175251516717714,0.0,0,False
2023-04-27,1.0175251516717714,1.0175251516717714,0.0,0,False
2023-04-28,1.0175251516717714,1.0175251516717714,0.0,0,False
2023-04-29,1.0175251516717714,1.0175251516717714,0.0,0,False
2023-04-30,1.0175251516717714,1.0175251516717714,0.0,0,False
2023-05-01,1.0175251516717714,1.0175251516717714,0.0,0,False
2023-05-02,1.0175251516717714,1.0175251516717714,0.0,0,False
2023-05-03,1.0175251516717714,1.0175251516717714,0.0,0,False
2023-05-04,1.0175251516717714,1.0175251516717714,0.0,0,False
2023-05-05,1.0175251516717714,1.0175251516717714,0.0,0,False
2023-05-06,1.0175251516717714,1.0175251516717714,0.0,0,False
2023-05-07,1.0175251516717714,1.0175251516717714,0.0,0,False
2023-05-08,1.0175251516717714,1.025594131057963,0.7930004848464511,4,True
2023-05-09,1.025594131057963,1.0204741002303357,-0.4992258314062026,1,True
2023-05-10,1.0204741002303357,1.0204741002303357,0.0,0,False
2023-05-11,1.0204741002303357,1.0204741002303357,0.0,0,False
2023-05-12,1.0204741002303357,1.0204741002303357,0.0,0,False
2023-05-13,1.0204741002303357,1.0204741002303357,0.0,0,False
2023-05-14,1.0204741002303357,1.0204741002303357,0.0,0,False
2023-05-15,1.0204741002303357,1.0204741002303357,0.0,0,False
2023-05-16,1.0204741002303357,1.0204741002303357,0.0,0,False
2023-05-17,1.0204741002303357,1.0204741002303357,0.0,0,False
2023-05-18,1.0204741002303357,1.0204741002303357,0.0,0,False
2023-05-19,1.0204741002303357,1.0204741002303357,0.0,0,False
2023-05-20,1.0204741002303357,1.0204741002303357,0.0,0,False
2023-05-21,1.0204741002303357,1.0204741002303357,0.0,0,False
2023-05-22,1.0204741002303357,1.0204741002303357,0.0,0,False
2023-05-23,1.0204741002303357,1.0204741002303357,0.0,0,False
2023-05-24,1.0204741002303357,1.0204741002303357,0.0,0,False
2023-05-25,1.0204741002303357,1.0204741002303357,0.0,0,False
2023-05-26,1.0204741002303357,1.0218418826858393,0.13403401959881656,1,True
2023-05-27,1.0218418826858393,1.0244409548899664,0.25435170041139266,0,True
2023-05-28,1.0244409548899664,1.0244409548899664,0.0,0,False
2023-05-29,1.0244409548899664,1.0244409548899664,0.0,0,False
2023-05-30,1.0244409548899664,1.0244409548899664,0.0,0,False
2023-05-31,1.0244409548899664,1.0244409548899664,0.0,0,False
2023-06-01,1.0244409548899664,1.0244409548899664,0.0,0,False
2023-06-02,1.0244409548899664,1.0244409548899664,0.0,0,False
2023-06-03,1.0244409548899664,1.0244409548899664,0.0,0,False
2023-06-04,1.0244409548899664,1.0244409548899664,0.0,0,False
2023-06-05,1.0244409548899664,1.0244409548899664,0.0,0,False
2023-06-06,1.0244409548899664,1.016121189603823,-0.8121273604331014,4,True
2023-06-07,1.016121189603823,1.016121189603823,0.0,0,False
2023-06-08,1.016121189603823,1.016121189603823,0.0,0,False
2023-06-09,1.016121189603823,1.016121189603823,0.0,0,False
2023-06-10,1.016121189603823,1.0239641880508987,0.7718565981419623,5,True
2023-06-11,1.0239641880508987,1.0230771887254615,-0.08662405734380929,0,True
2023-06-12,1.0230771887254615,1.0230771887254615,0.0,0,False
2023-06-13,1.0230771887254615,1.0230771887254615,0.0,0,False
2023-06-14,1.0230771887254615,1.0230771887254615,0.0,0,False
2023-06-15,1.0230771887254615,1.0230771887254615,0.0,0,False
2023-06-16,1.0230771887254615,1.0230771887254615,0.0,0,False
2023-06-17,1.0230771887254615,1.0230771887254615,0.0,0,False
2023-06-18,1.0230771887254615,1.0230771887254615,0.0,0,False
2023-06-19,1.0230771887254615,1.0230771887254615,0.0,0,False
2023-06-20,1.0230771887254615,1.0230771887254615,0.0,0,False
2023-06-21,1.0230771887254615,1.0230771887254615,0.0,0,False
2023-06-22,1.0230771887254615,1.0230771887254615,0.0,0,False
2023-06-23,1.0230771887254615,1.0230771887254615,0.0,0,False
2023-06-24,1.0230771887254615,1.0230771887254615,0.0,0,False
2023-06-25,1.0230771887254615,1.0230771887254615,0.0,0,False
2023-06-26,1.0230771887254615,1.0230771887254615,0.0,0,False
2023-06-27,1.0230771887254615,1.0230771887254615,0.0,0,False
2023-06-28,1.0230771887254615,1.0230771887254615,0.0,0,False
2023-06-29,1.0230771887254615,1.0230771887254615,0.0,0,False
2023-06-30,1.0230771887254615,1.0113140873457358,-1.149776528042823,3,True
2023-07-01,1.0113140873457358,1.014847232427884,0.34936179831344116,0,True
2023-07-02,1.014847232427884,1.014847232427884,0.0,0,False
2023-07-03,1.014847232427884,1.014847232427884,0.0,0,False
2023-07-04,1.014847232427884,1.014847232427884,0.0,0,False
2023-07-05,1.014847232427884,1.014847232427884,0.0,0,False
2023-07-06,1.014847232427884,1.014847232427884,0.0,0,False
2023-07-07,1.014847232427884,1.014847232427884,0.0,0,False
2023-07-08,1.014847232427884,1.014847232427884,0.0,0,False
2023-07-09,1.014847232427884,1.014847232427884,0.0,0,False
2023-07-10,1.014847232427884,1.014847232427884,0.0,0,False
2023-07-11,1.014847232427884,1.014847232427884,0.0,0,False
2023-07-12,1.014847232427884,1.014847232427884,0.0,0,False
2023-07-13,1.014847232427884,1.014847232427884,0.0,0,False
2023-07-14,1.014847232427884,1.014847232427884,0.0,0,False
2023-07-15,1.014847232427884,1.014847232427884,0.0,0,False
2023-07-16,1.014847232427884,1.014847232427884,0.0,0,False
2023-07-17,1.014847232427884,1.014847232427884,0.0,0,False
2023-07-18,1.014847232427884,1.014847232427884,0.0,0,False
2023-07-19,1.014847232427884,1.014847232427884,0.0,0,False
2023-07-20,1.014847232427884,1.014847232427884,0.0,0,False
2023-07-21,1.014847232427884,1.014847232427884,0.0,0,False
2023-07-22,1.014847232427884,1.014847232427884,0.0,0,False
2023-07-23,1.014847232427884,1.014847232427884,0.0,0,False
2023-07-24,1.014847232427884,1.0146706881785377,-0.017396140394854154,1,True
2023-07-25,1.0146706881785377,1.0149313184019273,0.02568618828020508,0,True
2023-07-26,1.0149313184019273,1.0149313184019273,0.0,0,False
2023-07-27,1.0149313184019273,1.0149313184019273,0.0,0,False
2023-07-28,1.0149313184019273,1.0149313184019273,0.0,0,False
2023-07-29,1.0149313184019273,1.0149313184019273,0.0,0,False
2023-07-30,1.0149313184019273,1.0149313184019273,0.0,0,False
2023-07-31,1.0149313184019273,1.0149313184019273,0.0,0,False
2023-08-01,1.0149313184019273,1.0149313184019273,0.0,0,False
2023-08-02,1.0149313184019273,1.0149313184019273,0.0,0,False
2023-08-03,1.0149313184019273,1.0149313184019273,0.0,0,False
2023-08-04,1.0149313184019273,1.0149313184019273,0.0,0,False
2023-08-05,1.0149313184019273,1.0149313184019273,0.0,0,False
2023-08-06,1.0149313184019273,1.0149313184019273,0.0,0,False
2023-08-07,1.0149313184019273,1.0149313184019273,0.0,0,False
2023-08-08,1.0149313184019273,1.0149313184019273,0.0,0,False
2023-08-09,1.0149313184019273,1.0149313184019273,0.0,0,False
2023-08-10,1.0149313184019273,1.0149313184019273,0.0,0,False
2023-08-11,1.0149313184019273,1.0149313184019273,0.0,0,False
2023-08-12,1.0149313184019273,1.0149313184019273,0.0,0,False
2023-08-13,1.0149313184019273,1.0149313184019273,0.0,0,False
2023-08-14,1.0149313184019273,1.0149313184019273,0.0,0,False
2023-08-15,1.0149313184019273,1.0149313184019273,0.0,0,False
2023-08-16,1.0149313184019273,1.0174940210387828,0.2525001042327446,4,True
2023-08-17,1.0174940210387828,1.0174940210387828,0.0,0,False
2023-08-18,1.0174940210387828,1.047944796304641,2.992722771458678,4,True
2023-08-19,1.047944796304641,1.047944796304641,0.0,0,False
2023-08-20,1.047944796304641,1.047944796304641,0.0,0,False
2023-08-21,1.047944796304641,1.047944796304641,0.0,0,False
2023-08-22,1.047944796304641,1.047944796304641,0.0,0,False
2023-08-23,1.047944796304641,1.047944796304641,0.0,0,False
2023-08-24,1.047944796304641,1.047944796304641,0.0,0,False
2023-08-25,1.047944796304641,1.0335310748058568,-1.3754275558799711,3,True
2023-08-26,1.0335310748058568,1.0335310748058568,0.0,0,False
2023-08-27,1.0335310748058568,1.0335310748058568,0.0,0,False
2023-08-28,1.0335310748058568,1.0335310748058568,0.0,0,False
2023-08-29,1.0335310748058568,1.0335310748058568,0.0,0,False
2023-08-30,1.0335310748058568,1.0335310748058568,0.0,0,False
2023-08-31,1.0335310748058568,1.0335310748058568,0.0,0,False
2023-09-01,1.0335310748058568,1.0335310748058568,0.0,0,False
2023-09-02,1.0335310748058568,1.0335310748058568,0.0,0,False
2023-09-03,1.0335310748058568,1.0335310748058568,0.0,0,False
2023-09-04,1.0335310748058568,1.0335310748058568,0.0,0,False
2023-09-05,1.0335310748058568,1.0335310748058568,0.0,0,False
2023-09-06,1.0335310748058568,1.0335310748058568,0.0,0,False
2023-09-07,1.0335310748058568,1.0335310748058568,0.0,0,False
2023-09-08,1.0335310748058568,1.0335310748058568,0.0,0,False
2023-09-09,1.0335310748058568,1.0335310748058568,0.0,0,False
2023-09-10,1.0335310748058568,1.0326433649894773,-0.08589096525678519,1,True
2023-09-11,1.0326433649894773,1.032223092070936,-0.040698747775858024,0,True
2023-09-12,1.032223092070936,1.032223092070936,0.0,0,False
2023-09-13,1.032223092070936,1.032223092070936,0.0,0,False
2023-09-14,1.032223092070936,1.032223092070936,0.0,0,False
2023-09-15,1.032223092070936,1.032223092070936,0.0,0,False
2023-09-16,1.032223092070936,1.032223092070936,0.0,0,False
2023-09-17,1.032223092070936,1.032223092070936,0.0,0,False
2023-09-18,1.032223092070936,1.032223092070936,0.0,0,False
2023-09-19,1.032223092070936,1.032223092070936,0.0,0,False
2023-09-20,1.032223092070936,1.032223092070936,0.0,0,False
2023-09-21,1.032223092070936,1.032223092070936,0.0,0,False
2023-09-22,1.032223092070936,1.032223092070936,0.0,0,False
2023-09-23,1.032223092070936,1.032223092070936,0.0,0,False
2023-09-24,1.032223092070936,1.032223092070936,0.0,0,False
2023-09-25,1.032223092070936,1.032223092070936,0.0,0,False
2023-09-26,1.032223092070936,1.032223092070936,0.0,0,False
2023-09-27,1.032223092070936,1.032223092070936,0.0,0,False
2023-09-28,1.032223092070936,1.032223092070936,0.0,0,False
2023-09-29,1.032223092070936,1.032223092070936,0.0,0,False
2023-09-30,1.032223092070936,1.032223092070936,0.0,0,False
2023-10-01,1.032223092070936,1.032223092070936,0.0,0,False
2023-10-02,1.032223092070936,1.032223092070936,0.0,0,False
2023-10-03,1.032223092070936,1.032371954301487,0.01442151717923057,1,True
2023-10-04,1.032371954301487,1.027062127624469,-0.5143327126327146,0,True
2023-10-05,1.027062127624469,1.027062127624469,0.0,0,False
2023-10-06,1.027062127624469,1.027062127624469,0.0,0,False
2023-10-07,1.027062127624469,1.027062127624469,0.0,0,False
2023-10-08,1.027062127624469,1.027062127624469,0.0,0,False
2023-10-09,1.027062127624469,1.027062127624469,0.0,0,False
2023-10-10,1.027062127624469,1.027062127624469,0.0,0,False
2023-10-11,1.027062127624469,1.027062127624469,0.0,0,False
2023-10-12,1.027062127624469,1.027062127624469,0.0,0,False
2023-10-13,1.027062127624469,1.027062127624469,0.0,0,False
2023-10-14,1.027062127624469,1.027062127624469,0.0,0,False
2023-10-15,1.027062127624469,1.027062127624469,0.0,0,False
2023-10-16,1.027062127624469,1.027062127624469,0.0,0,False
2023-10-17,1.027062127624469,1.027062127624469,0.0,0,False
2023-10-18,1.027062127624469,1.027062127624469,0.0,0,False
2023-10-19,1.027062127624469,1.0219343274676438,-0.4992687412868957,1,True
2023-10-20,1.0219343274676438,1.0219343274676438,0.0,0,False
2023-10-21,1.0219343274676438,1.0225291691663292,0.05820742905850995,1,True
2023-10-22,1.0225291691663292,1.0225291691663292,0.0,0,False
2023-10-23,1.0225291691663292,1.0225291691663292,0.0,0,False
2023-10-24,1.0225291691663292,1.0225291691663292,0.0,0,False
2023-10-25,1.0225291691663292,1.0225291691663292,0.0,0,False
2023-10-26,1.0225291691663292,1.0225291691663292,0.0,0,False
2023-10-27,1.0225291691663292,1.0231404426664397,0.05978054402191457,1,True
2023-10-28,1.0231404426664397,1.0241248252862407,0.09621187656658758,0,True
2023-10-29,1.0241248252862407,1.0241248252862407,0.0,0,False
2023-10-30,1.0241248252862407,1.0241248252862407,0.0,0,False
2023-10-31,1.0241248252862407,1.0241248252862407,0.0,0,False
2023-11-01,1.0241248252862407,1.0241248252862407,0.0,0,False
2023-11-02,1.0241248252862407,1.0241248252862407,0.0,0,False
2023-11-03,1.0241248252862407,1.0241248252862407,0.0,0,False
2023-11-04,1.0241248252862407,1.0241248252862407,0.0,0,False
2023-11-05,1.0241248252862407,1.0241248252862407,0.0,0,False
2023-11-06,1.0241248252862407,1.0241248252862407,0.0,0,False
2023-11-07,1.0241248252862407,1.0241248252862407,0.0,0,False
2023-11-08,1.0241248252862407,1.0241248252862407,0.0,0,False
2023-11-09,1.0241248252862407,1.0241248252862407,0.0,0,False
2023-11-10,1.0241248252862407,1.0373702437866303,1.2933402426493767,4,True
2023-11-11,1.0373702437866303,1.0373702437866303,0.0,0,False
2023-11-12,1.0373702437866303,1.0373702437866303,0.0,0,False
2023-11-13,1.0373702437866303,1.0373702437866303,0.0,0,False
2023-11-14,1.0373702437866303,1.0373702437866303,0.0,0,False
2023-11-15,1.0373702437866303,1.0373702437866303,0.0,0,False
2023-11-16,1.0373702437866303,1.0373702437866303,0.0,0,False
2023-11-17,1.0373702437866303,1.0373702437866303,0.0,0,False
2023-11-18,1.0373702437866303,1.0373702437866303,0.0,0,False
2023-11-19,1.0373702437866303,1.0373702437866303,0.0,0,False
2023-11-20,1.0373702437866303,1.0373702437866303,0.0,0,False
2023-11-21,1.0373702437866303,1.0373702437866303,0.0,0,False
2023-11-22,1.0373702437866303,1.0373702437866303,0.0,0,False
2023-11-23,1.0373702437866303,1.0373702437866303,0.0,0,False
2023-11-24,1.0373702437866303,1.0373702437866303,0.0,0,False
2023-11-25,1.0373702437866303,1.0373702437866303,0.0,0,False
2023-11-26,1.0373702437866303,1.0373702437866303,0.0,0,False
2023-11-27,1.0373702437866303,1.0373702437866303,0.0,0,False
2023-11-28,1.0373702437866303,1.0373702437866303,0.0,0,False
2023-11-29,1.0373702437866303,1.0373702437866303,0.0,0,False
2023-11-30,1.0373702437866303,1.0373702437866303,0.0,0,False
2023-12-01,1.0373702437866303,1.0373702437866303,0.0,0,False
2023-12-02,1.0373702437866303,1.0373702437866303,0.0,0,False
2023-12-03,1.0373702437866303,1.037866181542888,0.047807208586148064,1,True
2023-12-04,1.037866181542888,1.0445335941438327,0.6424154404022442,4,True
2023-12-05,1.0445335941438327,1.0488094461797852,0.40935514759170566,0,True
2023-12-06,1.0488094461797852,1.0488094461797852,0.0,0,False
2023-12-07,1.0488094461797852,1.0488094461797852,0.0,0,False
2023-12-08,1.0488094461797852,1.0488094461797852,0.0,0,False
2023-12-09,1.0488094461797852,1.0488094461797852,0.0,0,False
2023-12-10,1.0488094461797852,1.0488094461797852,0.0,0,False
2023-12-11,1.0488094461797852,1.05867770793752,0.9409013042053882,4,True
2023-12-12,1.05867770793752,1.05867770793752,0.0,0,False
2023-12-13,1.05867770793752,1.05867770793752,0.0,0,False
2023-12-14,1.05867770793752,1.05867770793752,0.0,0,False
2023-12-15,1.05867770793752,1.05867770793752,0.0,0,False
2023-12-16,1.05867770793752,1.05867770793752,0.0,0,False
2023-12-17,1.05867770793752,1.05867770793752,0.0,0,False
2023-12-18,1.05867770793752,1.05867770793752,0.0,0,False
2023-12-19,1.05867770793752,1.05867770793752,0.0,0,False
2023-12-20,1.05867770793752,1.05867770793752,0.0,0,False
2023-12-21,1.05867770793752,1.05867770793752,0.0,0,False
2023-12-22,1.05867770793752,1.05867770793752,0.0,0,False
2023-12-23,1.05867770793752,1.05867770793752,0.0,0,False
2023-12-24,1.05867770793752,1.0574304492025681,-0.11781288352445962,1,True
2023-12-25,1.0574304492025681,1.0598954354421886,0.23311095698816953,0,True
2023-12-26,1.0598954354421886,1.0598954354421886,0.0,0,False
2023-12-27,1.0598954354421886,1.0546021527065332,-0.49941556106871676,1,True
2023-12-28,1.0546021527065332,1.0546021527065332,0.0,0,False
2023-12-29,1.0546021527065332,1.0546021527065332,0.0,0,False
2023-12-30,1.0546021527065332,1.0546021527065332,0.0,0,False
2023-12-31,1.0546021527065332,1.0546021527065332,0.0,0,False
