day,start_equity,end_equity,return_pct,entries,active
2021-09-02,1.0,1.0,0.0,0,False
2021-09-03,1.0,1.0,0.0,0,False
2021-09-04,1.0,1.0,0.0,0,False
2021-09-05,1.0,1.0,0.0,0,False
2021-09-06,1.0,1.0,0.0,0,False
2021-09-07,1.0,1.0,0.0,0,False
2021-09-08,1.0,1.0,0.0,0,False
2021-09-09,1.0,1.0,0.0,0,False
2021-09-10,1.0,1.0,0.0,0,False
2021-09-11,1.0,1.0,0.0,0,False
2021-09-12,1.0,1.0,0.0,0,False
2021-09-13,1.0,1.0,0.0,0,False
2021-09-14,1.0,1.0,0.0,0,False
2021-09-15,1.0,1.0,0.0,0,False
2021-09-16,1.0,1.0,0.0,0,False
2021-09-17,1.0,1.0,0.0,0,False
2021-09-18,1.0,1.0,0.0,0,False
2021-09-19,1.0,1.0,0.0,0,False
2021-09-20,1.0,1.0,0.0,0,False
2021-09-21,1.0,1.0,0.0,0,False
2021-09-22,1.0,1.0,0.0,0,False
2021-09-23,1.0,1.0,0.0,0,False
2021-09-24,1.0,1.0,0.0,0,False
2021-09-25,1.0,1.0,0.0,0,False
2021-09-26,1.0,1.0,0.0,0,False
2021-09-27,1.0,1.0,0.0,0,False
2021-09-28,1.0,1.0,0.0,0,False
2021-09-29,1.0,1.0,0.0,0,False
2021-09-30,1.0,1.0,0.0,0,False
2021-10-01,1.0,1.0,0.0,0,False
2021-10-02,1.0,1.0,0.0,0,False
2021-10-03,1.0,1.0,0.0,0,False
2021-10-04,1.0,1.0,0.0,0,False
2021-10-05,1.0,0.9991229226558256,-0.08770773441744151,1,True
2021-10-06,0.9991229226558256,1.0054133362515478,0.6295935618213289,5,True
2021-10-07,1.0054133362515478,0.9839335148139698,-2.136417000162394,2,True
2021-10-08,0.9839335148139698,0.9831020798729001,-0.08450113026456929,1,True
2021-10-09,0.9831020798729001,0.9844842746249638,0.14059524238239085,3,True
2021-10-10,0.9844842746249638,0.972454424579888,-1.2219443575834266,1,True
2021-10-11,0.972454424579888,0.9700387297924847,-0.2484121339102141,0,True
2021-10-12,0.9700387297924847,0.9700387297924847,0.0,0,False
2021-10-13,0.9700387297924847,0.9928914656416638,2.355858085590845,4,True
2021-10-14,0.9928914656416638,1.0169580890112302,2.423892661219851,1,True
2021-10-15,1.0169580890112302,1.011625930790947,-0.5243242841470042,6,True
2021-10-16,1.011625930790947,1.047662219690763,3.5622148269411014,3,True
2021-10-17,1.047662219690763,1.050196912553637,0.2419379848995762,0,True
2021-10-18,1.050196912553637,1.0397104797644894,-0.9985206263508295,2,True
2021-10-19,1.0397104797644894,1.0397104797644894,0.0,0,False
2021-10-20,1.0397104797644894,1.0397104797644894,0.0,0,False
2021-10-21,1.0397104797644894,1.0397104797644894,0.0,0,False
2021-10-22,1.0397104797644894,1.0397104797644894,0.0,0,False
2021-10-23,1.0397104797644894,1.0397104797644894,0.0,0,False
2021-10-24,1.0397104797644894,1.0438521784078245,0.3983511490884828,1,True
2021-10-25,1.0438521784078245,1.0357229976066809,-0.7787674317586868,2,True
2021-10-26,1.0357229976066809,1.0357229976066809,0.0,0,False
2021-10-27,1.0357229976066809,1.0317826389098135,-0.38044522579614437,7,True
2021-10-28,1.0317826389098135,1.0252810636909238,-0.630130317540456,6,True
2021-10-29,1.0252810636909238,1.0233705386811691,-0.18634158743524587,2,True
2021-10-30,1.0233705386811691,1.079487800122724,5.483572110046664,3,True
2021-10-31,1.079487800122724,1.1271364139175113,4.414002065550937,12,True
2021-11-01,1.1271364139175113,1.1038120102556523,-2.0693505572046855,2,True
2021-11-02,1.1038120102556523,1.1153964229584206,1.0494914528140775,3,True
2021-11-03,1.1153964229584206,1.105922547014476,-0.8493729896332791,2,True
2021-11-04,1.105922547014476,1.123762021882547,1.6130853753031804,5,True
2021-11-05,1.123762021882547,1.1009043141613453,-2.0340345443344066,2,True
2021-11-06,1.1009043141613453,1.0971942056975506,-0.33700553409321543,3,True
2021-11-07,1.0971942056975506,1.0934240541649387,-0.3436175212222281,0,True
2021-11-08,1.0934240541649387,1.0934240541649387,0.0,0,False
2021-11-09,1.0934240541649387,1.1001849973536333,0.6183276436019236,1,True
2021-11-10,1.1001849973536333,1.1244814588722034,2.2083978219128886,0,True
2021-11-11,1.1244814588722034,1.0912556372015239,-2.9547682986256874,7,True
2021-11-12,1.0912556372015239,1.0691428291711143,-2.026363693031352,7,True
2021-11-13,1.0691428291711143,1.0668560718140545,-0.21388698447639687,1,True
2021-11-14,1.0668560718140545,1.0652688715695129,-0.14877360559449881,2,True
2021-11-15,1.0652688715695129,1.0632918814732635,-0.18558601954984377,0,True
2021-11-16,1.0632918814732635,1.078961534597333,1.4736925389064348,9,True
2021-11-17,1.078961534597333,1.0530039037149734,-2.4057976165060224,0,True
2021-11-18,1.0530039037149734,1.0408169763445019,-1.1573487360755585,4,True
2021-11-19,1.0408169763445019,1.0447225637320237,0.3752424755059991,7,True
2021-11-20,1.0447225637320237,1.0454684911683416,0.07139957173445399,0,True
2021-11-21,1.0454684911683416,1.0402471578640318,-0.4994252192598192,3,True
2021-11-22,1.0402471578640318,1.0356583454388384,-0.44112712930797215,9,True
2021-11-23,1.0356583454388384,1.0340233544381385,-0.1578697268168172,0,True
2021-11-24,1.0340233544381385,1.0264814096207706,-0.7293785759283966,4,True
2021-11-25,1.0264814096207706,1.0340757746297469,0.7398443788457776,7,True
2021-11-26,1.0340757746297469,1.011631800620289,-2.170438043333345,13,True
2021-11-27,1.011631800620289,1.0139573381590707,0.22987983744242602,6,True
2021-11-28,1.0139573381590707,0.9934417414937702,-2.023319511898636,9,True
2021-11-29,0.9934417414937702,0.9919391292962553,-0.15125317718737152,2,True
2021-11-30,0.9919391292962553,0.9865025215746028,-0.5480787642190843,3,True
2021-12-01,0.9865025215746028,0.9823726557806751,-0.41863712495492367,1,True
2021-12-02,0.9823726557806751,0.9732265459405055,-0.9310224369896924,3,True
2021-12-03,0.9732265459405055,0.9732265459405055,0.0,0,False
2021-12-04,0.9732265459405055,0.9732265459405055,0.0,0,False
2021-12-05,0.9732265459405055,0.9732265459405055,0.0,0,False
2021-12-06,0.9732265459405055,0.9732265459405055,0.0,0,False
2021-12-07,0.9732265459405055,0.9732265459405055,0.0,0,False
2021-12-08,0.9732265459405055,0.9732265459405055,0.0,0,False
2021-12-09,0.9732265459405055,0.9732265459405055,0.0,0,False
2021-12-10,0.9732265459405055,0.9732265459405055,0.0,0,False
2021-12-11,0.9732265459405055,0.9732265459405055,0.0,0,False
2021-12-12,0.9732265459405055,0.9732265459405055,0.0,0,False
2021-12-13,0.9732265459405055,0.9732265459405055,0.0,0,False
2021-12-14,0.9732265459405055,0.9732265459405055,0.0,0,False
2021-12-15,0.9732265459405055,0.9732265459405055,0.0,0,False
2021-12-16,0.9732265459405055,0.9732265459405055,0.0,0,False
2021-12-17,0.9732265459405055,0.9732265459405055,0.0,0,False
2021-12-18,0.9732265459405055,0.9732265459405055,0.0,0,False
2021-12-19,0.9732265459405055,0.9732265459405055,0.0,0,False
2021-12-20,0.9732265459405055,0.9732265459405055,0.0,0,False
2021-12-21,0.9732265459405055,0.9732265459405055,0.0,0,False
2021-12-22,0.9732265459405055,0.9732265459405055,0.0,0,False
2021-12-23,0.9732265459405055,0.9732265459405055,0.0,0,False
2021-12-24,0.9732265459405055,0.9732265459405055,0.0,0,False
2021-12-25,0.9732265459405055,0.9732265459405055,0.0,0,False
2021-12-26,0.9732265459405055,0.9732265459405055,0.0,0,False
2021-12-27,0.9732265459405055,0.9732265459405055,0.0,0,False
2021-12-28,0.9732265459405055,0.9732265459405055,0.0,0,False
2021-12-29,0.9732265459405055,0.9732265459405055,0.0,0,False
2021-12-30,0.9732265459405055,0.9732265459405055,0.0,0,False
2021-12-31,0.9732265459405055,0.9732265459405055,0.0,0,False
2022-01-01,0.9732265459405055,0.9732265459405055,0.0,0,False
2022-01-02,0.9732265459405055,0.9732265459405055,0.0,0,False
2022-01-03,0.9732265459405055,0.9732265459405055,0.0,0,False
2022-01-04,0.9732265459405055,0.9732265459405055,0.0,0,False
2022-01-05,0.9732265459405055,0.9732265459405055,0.0,0,False
2022-01-06,0.9732265459405055,0.9732265459405055,0.0,0,False
2022-01-07,0.9732265459405055,0.9732265459405055,0.0,0,False
2022-01-08,0.9732265459405055,0.9732265459405055,0.0,0,False
2022-01-09,0.9732265459405055,0.9732265459405055,0.0,0,False
2022-01-10,0.9732265459405055,0.9732265459405055,0.0,0,False
2022-01-11,0.9732265459405055,0.9732265459405055,0.0,0,False
2022-01-12,0.9732265459405055,0.9732265459405055,0.0,0,False
2022-01-13,0.9732265459405055,0.9732265459405055,0.0,0,False
2022-01-14,0.9732265459405055,0.9732265459405055,0.0,0,False
2022-01-15,0.9732265459405055,0.9732265459405055,0.0,0,False
2022-01-16,0.9732265459405055,0.9732265459405055,0.0,0,False
2022-01-17,0.9732265459405055,0.9732265459405055,0.0,0,False
2022-01-18,0.9732265459405055,0.9732265459405055,0.0,0,False
2022-01-19,0.9732265459405055,0.9732265459405055,0.0,0,False
2022-01-20,0.9732265459405055,0.9732265459405055,0.0,0,False
2022-01-21,0.9732265459405055,0.9732265459405055,0.0,0,False
2022-01-22,0.9732265459405055,0.9732265459405055,0.0,0,False
2022-01-23,0.9732265459405055,0.9732265459405055,0.0,0,False
2022-01-24,0.9732265459405055,0.9732265459405055,0.0,0,False
2022-01-25,0.9732265459405055,0.9732265459405055,0.0,0,False
2022-01-26,0.9732265459405055,0.9732265459405055,0.0,0,False
2022-01-27,0.9732265459405055,0.9732265459405055,0.0,0,False
2022-01-28,0.9732265459405055,0.9732265459405055,0.0,0,False
2022-01-29,0.9732265459405055,0.9732265459405055,0.0,0,False
2022-01-30,0.9732265459405055,0.9732265459405055,0.0,0,False
2022-01-31,0.9732265459405055,0.9732265459405055,0.0,0,False
2022-02-01,0.9732265459405055,0.9732265459405055,0.0,0,False
2022-02-02,0.9732265459405055,0.9732265459405055,0.0,0,False
2022-02-03,0.9732265459405055,0.9732265459405055,0.0,0,False
2022-02-04,0.9732265459405055,0.9732265459405055,0.0,0,False
2022-02-05,0.9732265459405055,0.9732265459405055,0.0,0,False
2022-02-06,0.9732265459405055,0.9732265459405055,0.0,0,False
2022-02-07,0.9732265459405055,0.9732265459405055,0.0,0,False
2022-02-08,0.9732265459405055,0.9732265459405055,0.0,0,False
2022-02-09,0.9732265459405055,0.9732265459405055,0.0,0,False
2022-02-10,0.9732265459405055,0.9732265459405055,0.0,0,False
2022-02-11,0.9732265459405055,0.9732265459405055,0.0,0,False
2022-02-12,0.9732265459405055,0.9732265459405055,0.0,0,False
2022-02-13,0.9732265459405055,0.9732265459405055,0.0,0,False
2022-02-14,0.9732265459405055,0.9732265459405055,0.0,0,False
2022-02-15,0.9732265459405055,0.9732265459405055,0.0,0,False
2022-02-16,0.9732265459405055,0.9732265459405055,0.0,0,False
2022-02-17,0.9732265459405055,0.9732265459405055,0.0,0,False
2022-02-18,0.9732265459405055,0.9732265459405055,0.0,0,False
2022-02-19,0.9732265459405055,0.9732265459405055,0.0,0,False
2022-02-20,0.9732265459405055,0.9732265459405055,0.0,0,False
2022-02-21,0.9732265459405055,0.9732265459405055,0.0,0,False
2022-02-22,0.9732265459405055,0.9732265459405055,0.0,0,False
2022-02-23,0.9732265459405055,0.9732265459405055,0.0,0,False
2022-02-24,0.9732265459405055,0.9732265459405055,0.0,0,False
2022-02-25,0.9732265459405055,0.9732265459405055,0.0,0,False
2022-02-26,0.9732265459405055,0.9732265459405055,0.0,0,False
2022-02-27,0.9732265459405055,0.9732265459405055,0.0,0,False
2022-02-28,0.9732265459405055,0.9732265459405055,0.0,0,False
2022-03-01,0.9732265459405055,0.9732265459405055,0.0,0,False
2022-03-02,0.9732265459405055,0.9732265459405055,0.0,0,False
2022-03-03,0.9732265459405055,0.9732265459405055,0.0,0,False
2022-03-04,0.9732265459405055,0.9732265459405055,0.0,0,False
2022-03-05,0.9732265459405055,0.9732265459405055,0.0,0,False
2022-03-06,0.9732265459405055,0.9732265459405055,0.0,0,False
2022-03-07,0.9732265459405055,0.9732265459405055,0.0,0,False
2022-03-08,0.9732265459405055,0.9732265459405055,0.0,0,False
2022-03-09,0.9732265459405055,0.9732265459405055,0.0,0,False
2022-03-10,0.9732265459405055,0.9732265459405055,0.0,0,False
2022-03-11,0.9732265459405055,0.9732265459405055,0.0,0,False
2022-03-12,0.9732265459405055,0.9732265459405055,0.0,0,False
2022-03-13,0.9732265459405055,0.9732265459405055,0.0,0,False
2022-03-14,0.9732265459405055,0.9732265459405055,0.0,0,False
2022-03-15,0.9732265459405055,0.9732265459405055,0.0,0,False
2022-03-16,0.9732265459405055,0.9732265459405055,0.0,0,False
2022-03-17,0.9732265459405055,0.9732265459405055,0.0,0,False
2022-03-18,0.9732265459405055,0.9732265459405055,0.0,0,False
2022-03-19,0.9732265459405055,0.9732265459405055,0.0,0,False
2022-03-20,0.9732265459405055,0.9732265459405055,0.0,0,False
2022-03-21,0.9732265459405055,0.9732265459405055,0.0,0,False
2022-03-22,0.9732265459405055,0.9732265459405055,0.0,0,False
2022-03-23,0.9732265459405055,0.9732265459405055,0.0,0,False
2022-03-24,0.9732265459405055,0.9732265459405055,0.0,0,False
2022-03-25,0.9732265459405055,0.9732265459405055,0.0,0,False
2022-03-26,0.9732265459405055,0.9732265459405055,0.0,0,False
2022-03-27,0.9732265459405055,0.9732265459405055,0.0,0,False
2022-03-28,0.9732265459405055,0.9732265459405055,0.0,0,False
2022-03-29,0.9732265459405055,0.9732265459405055,0.0,0,False
2022-03-30,0.9732265459405055,0.9732265459405055,0.0,0,False
2022-03-31,0.9732265459405055,0.9732265459405055,0.0,0,False
2022-04-01,0.9732265459405055,0.9732265459405055,0.0,0,False
2022-04-02,0.9732265459405055,0.9732265459405055,0.0,0,False
2022-04-03,0.9732265459405055,0.9732265459405055,0.0,0,False
2022-04-04,0.9732265459405055,0.9732265459405055,0.0,0,False
2022-04-05,0.9732265459405055,0.9732265459405055,0.0,0,False
2022-04-06,0.9732265459405055,0.9732265459405055,0.0,0,False
2022-04-07,0.9732265459405055,0.9732265459405055,0.0,0,False
2022-04-08,0.9732265459405055,0.9732265459405055,0.0,0,False
2022-04-09,0.9732265459405055,0.9732265459405055,0.0,0,False
2022-04-10,0.9732265459405055,0.9732265459405055,0.0,0,False
2022-04-11,0.9732265459405055,0.9732265459405055,0.0,0,False
2022-04-12,0.9732265459405055,0.9732265459405055,0.0,0,False
2022-04-13,0.9732265459405055,0.9732265459405055,0.0,0,False
2022-04-14,0.9732265459405055,0.9732265459405055,0.0,0,False
2022-04-15,0.9732265459405055,0.9732265459405055,0.0,0,False
2022-04-16,0.9732265459405055,0.9732265459405055,0.0,0,False
2022-04-17,0.9732265459405055,0.9732265459405055,0.0,0,False
2022-04-18,0.9732265459405055,0.9732265459405055,0.0,0,False
2022-04-19,0.9732265459405055,0.9732265459405055,0.0,0,False
2022-04-20,0.9732265459405055,0.9732265459405055,0.0,0,False
2022-04-21,0.9732265459405055,0.9732265459405055,0.0,0,False
2022-04-22,0.9732265459405055,0.9732265459405055,0.0,0,False
2022-04-23,0.9732265459405055,0.9732265459405055,0.0,0,False
2022-04-24,0.9732265459405055,0.9732265459405055,0.0,0,False
2022-04-25,0.9732265459405055,0.9732265459405055,0.0,0,False
2022-04-26,0.9732265459405055,0.9732265459405055,0.0,0,False
2022-04-27,0.9732265459405055,0.9732265459405055,0.0,0,False
2022-04-28,0.9732265459405055,0.9732265459405055,0.0,0,False
2022-04-29,0.9732265459405055,0.9732265459405055,0.0,0,False
2022-04-30,0.9732265459405055,0.9732265459405055,0.0,0,False
2022-05-01,0.9732265459405055,0.9732265459405055,0.0,0,False
2022-05-02,0.9732265459405055,0.9732265459405055,0.0,0,False
2022-05-03,0.9732265459405055,0.9732265459405055,0.0,0,False
2022-05-04,0.9732265459405055,0.9732265459405055,0.0,0,False
2022-05-05,0.9732265459405055,0.9732265459405055,0.0,0,False
2022-05-06,0.9732265459405055,0.9732265459405055,0.0,0,False
2022-05-07,0.9732265459405055,0.9732265459405055,0.0,0,False
2022-05-08,0.9732265459405055,0.9732265459405055,0.0,0,False
2022-05-09,0.9732265459405055,0.9732265459405055,0.0,0,False
2022-05-10,0.9732265459405055,0.9732265459405055,0.0,0,False
2022-05-11,0.9732265459405055,0.9732265459405055,0.0,0,False
2022-05-12,0.9732265459405055,0.9732265459405055,0.0,0,False
2022-05-13,0.9732265459405055,0.9732265459405055,0.0,0,False
2022-05-14,0.9732265459405055,0.9732265459405055,0.0,0,False
2022-05-15,0.9732265459405055,0.9732265459405055,0.0,0,False
2022-05-16,0.9732265459405055,0.9732265459405055,0.0,0,False
2022-05-17,0.9732265459405055,0.9732265459405055,0.0,0,False
2022-05-18,0.9732265459405055,0.9732265459405055,0.0,0,False
2022-05-19,0.9732265459405055,0.9732265459405055,0.0,0,False
2022-05-20,0.9732265459405055,0.9732265459405055,0.0,0,False
2022-05-21,0.9732265459405055,0.9732265459405055,0.0,0,False
2022-05-22,0.9732265459405055,0.9732265459405055,0.0,0,False
2022-05-23,0.9732265459405055,0.9732265459405055,0.0,0,False
2022-05-24,0.9732265459405055,0.9732265459405055,0.0,0,False
2022-05-25,0.9732265459405055,0.9732265459405055,0.0,0,False
2022-05-26,0.9732265459405055,0.9732265459405055,0.0,0,False
2022-05-27,0.9732265459405055,0.9732265459405055,0.0,0,False
2022-05-28,0.9732265459405055,0.9732265459405055,0.0,0,False
2022-05-29,0.9732265459405055,0.9732265459405055,0.0,0,False
2022-05-30,0.9732265459405055,0.9732265459405055,0.0,0,False
2022-05-31,0.9732265459405055,0.9732265459405055,0.0,0,False
2022-06-01,0.9732265459405055,0.9732265459405055,0.0,0,False
2022-06-02,0.9732265459405055,0.9732265459405055,0.0,0,False
2022-06-03,0.9732265459405055,0.9732265459405055,0.0,0,False
2022-06-04,0.9732265459405055,0.9732265459405055,0.0,0,False
2022-06-05,0.9732265459405055,0.9732265459405055,0.0,0,False
2022-06-06,0.9732265459405055,0.9732265459405055,0.0,0,False
2022-06-07,0.9732265459405055,0.9732265459405055,0.0,0,False
2022-06-08,0.9732265459405055,0.9732265459405055,0.0,0,False
2022-06-09,0.9732265459405055,0.9732265459405055,0.0,0,False
2022-06-10,0.9732265459405055,0.9732265459405055,0.0,0,False
2022-06-11,0.9732265459405055,0.9732265459405055,0.0,0,False
2022-06-12,0.9732265459405055,0.9732265459405055,0.0,0,False
2022-06-13,0.9732265459405055,0.9732265459405055,0.0,0,False
2022-06-14,0.9732265459405055,0.9732265459405055,0.0,0,False
2022-06-15,0.9732265459405055,0.9732265459405055,0.0,0,False
2022-06-16,0.9732265459405055,0.9732265459405055,0.0,0,False
2022-06-17,0.9732265459405055,0.9732265459405055,0.0,0,False
2022-06-18,0.9732265459405055,0.9732265459405055,0.0,0,False
2022-06-19,0.9732265459405055,0.9732265459405055,0.0,0,False
2022-06-20,0.9732265459405055,0.9732265459405055,0.0,0,False
2022-06-21,0.9732265459405055,0.9732265459405055,0.0,0,False
2022-06-22,0.9732265459405055,0.9732265459405055,0.0,0,False
2022-06-23,0.9732265459405055,0.9732265459405055,0.0,0,False
2022-06-24,0.9732265459405055,0.9732265459405055,0.0,0,False
2022-06-25,0.9732265459405055,0.9732265459405055,0.0,0,False
2022-06-26,0.9732265459405055,0.9732265459405055,0.0,0,False
2022-06-27,0.9732265459405055,0.9732265459405055,0.0,0,False
2022-06-28,0.9732265459405055,0.9732265459405055,0.0,0,False
2022-06-29,0.9732265459405055,0.9732265459405055,0.0,0,False
2022-06-30,0.9732265459405055,0.9732265459405055,0.0,0,False
2022-07-01,0.9732265459405055,0.9732265459405055,0.0,0,False
2022-07-02,0.9732265459405055,0.9732265459405055,0.0,0,False
2022-07-03,0.9732265459405055,0.9732265459405055,0.0,0,False
2022-07-04,0.9732265459405055,0.9732265459405055,0.0,0,False
2022-07-05,0.9732265459405055,0.9732265459405055,0.0,0,False
2022-07-06,0.9732265459405055,0.9732265459405055,0.0,0,False
2022-07-07,0.9732265459405055,0.9732265459405055,0.0,0,False
2022-07-08,0.9732265459405055,0.9732265459405055,0.0,0,False
2022-07-09,0.9732265459405055,0.9732265459405055,0.0,0,False
2022-07-10,0.9732265459405055,0.9732265459405055,0.0,0,False
2022-07-11,0.9732265459405055,0.9732265459405055,0.0,0,False
2022-07-12,0.9732265459405055,0.9732265459405055,0.0,0,False
2022-07-13,0.9732265459405055,0.9732265459405055,0.0,0,False
2022-07-14,0.9732265459405055,0.9732265459405055,0.0,0,False
2022-07-15,0.9732265459405055,0.9732265459405055,0.0,0,False
2022-07-16,0.9732265459405055,0.9732265459405055,0.0,0,False
2022-07-17,0.9732265459405055,0.9732265459405055,0.0,0,False
2022-07-18,0.9732265459405055,0.9732265459405055,0.0,0,False
2022-07-19,0.9732265459405055,0.9732265459405055,0.0,0,False
2022-07-20,0.9732265459405055,0.9732265459405055,0.0,0,False
2022-07-21,0.9732265459405055,0.9732265459405055,0.0,0,False
2022-07-22,0.9732265459405055,0.9732265459405055,0.0,0,False
2022-07-23,0.9732265459405055,0.9732265459405055,0.0,0,False
2022-07-24,0.9732265459405055,0.9732265459405055,0.0,0,False
2022-07-25,0.9732265459405055,0.9732265459405055,0.0,0,False
2022-07-26,0.9732265459405055,0.9732265459405055,0.0,0,False
2022-07-27,0.9732265459405055,0.9732265459405055,0.0,0,False
2022-07-28,0.9732265459405055,0.9732265459405055,0.0,0,False
2022-07-29,0.9732265459405055,0.9732265459405055,0.0,0,False
2022-07-30,0.9732265459405055,0.9732265459405055,0.0,0,False
2022-07-31,0.9732265459405055,0.9732265459405055,0.0,0,False
2022-08-01,0.9732265459405055,0.9732265459405055,0.0,0,False
2022-08-02,0.9732265459405055,0.9732265459405055,0.0,0,False
2022-08-03,0.9732265459405055,0.9732265459405055,0.0,0,False
2022-08-04,0.9732265459405055,0.9732265459405055,0.0,0,False
2022-08-05,0.9732265459405055,0.9732265459405055,0.0,0,False
2022-08-06,0.9732265459405055,0.9732265459405055,0.0,0,False
2022-08-07,0.9732265459405055,0.9732265459405055,0.0,0,False
2022-08-08,0.9732265459405055,0.9732265459405055,0.0,0,False
2022-08-09,0.9732265459405055,0.9732265459405055,0.0,0,False
2022-08-10,0.9732265459405055,0.9732265459405055,0.0,0,False
2022-08-11,0.9732265459405055,0.9732265459405055,0.0,0,False
2022-08-12,0.9732265459405055,0.9732265459405055,0.0,0,False
2022-08-13,0.9732265459405055,0.9732265459405055,0.0,0,False
2022-08-14,0.9732265459405055,0.9732265459405055,0.0,0,False
2022-08-15,0.9732265459405055,0.9732265459405055,0.0,0,False
2022-08-16,0.9732265459405055,0.9732265459405055,0.0,0,False
2022-08-17,0.9732265459405055,0.9732265459405055,0.0,0,False
2022-08-18,0.9732265459405055,0.9732265459405055,0.0,0,False
2022-08-19,0.9732265459405055,0.9732265459405055,0.0,0,False
2022-08-20,0.9732265459405055,0.9732265459405055,0.0,0,False
2022-08-21,0.9732265459405055,0.9732265459405055,0.0,0,False
2022-08-22,0.9732265459405055,0.9732265459405055,0.0,0,False
2022-08-23,0.9732265459405055,0.9732265459405055,0.0,0,False
2022-08-24,0.9732265459405055,0.9732265459405055,0.0,0,False
2022-08-25,0.9732265459405055,0.9732265459405055,0.0,0,False
2022-08-26,0.9732265459405055,0.9732265459405055,0.0,0,False
2022-08-27,0.9732265459405055,0.9732265459405055,0.0,0,False
2022-08-28,0.9732265459405055,0.9732265459405055,0.0,0,False
2022-08-29,0.9732265459405055,0.9732265459405055,0.0,0,False
2022-08-30,0.9732265459405055,0.9732265459405055,0.0,0,False
2022-08-31,0.9732265459405055,0.9732265459405055,0.0,0,False
2022-09-01,0.9732265459405055,0.9732265459405055,0.0,0,False
2022-09-02,0.9732265459405055,0.9732265459405055,0.0,0,False
2022-09-03,0.9732265459405055,0.9732265459405055,0.0,0,False
2022-09-04,0.9732265459405055,0.9732265459405055,0.0,0,False
2022-09-05,0.9732265459405055,0.9732265459405055,0.0,0,False
2022-09-06,0.9732265459405055,0.9732265459405055,0.0,0,False
2022-09-07,0.9732265459405055,0.9732265459405055,0.0,0,False
2022-09-08,0.9732265459405055,0.9732265459405055,0.0,0,False
2022-09-09,0.9732265459405055,0.9732265459405055,0.0,0,False
2022-09-10,0.9732265459405055,0.9732265459405055,0.0,0,False
2022-09-11,0.9732265459405055,0.9732265459405055,0.0,0,False
2022-09-12,0.9732265459405055,0.9732265459405055,0.0,0,False
2022-09-13,0.9732265459405055,0.9732265459405055,0.0,0,False
2022-09-14,0.9732265459405055,0.9732265459405055,0.0,0,False
2022-09-15,0.9732265459405055,0.9732265459405055,0.0,0,False
2022-09-16,0.9732265459405055,0.9732265459405055,0.0,0,False
2022-09-17,0.9732265459405055,0.9732265459405055,0.0,0,False
2022-09-18,0.9732265459405055,0.9732265459405055,0.0,0,False
2022-09-19,0.9732265459405055,0.9732265459405055,0.0,0,False
2022-09-20,0.9732265459405055,0.9732265459405055,0.0,0,False
2022-09-21,0.9732265459405055,0.9732265459405055,0.0,0,False
2022-09-22,0.9732265459405055,0.9732265459405055,0.0,0,False
2022-09-23,0.9732265459405055,0.9732265459405055,0.0,0,False
2022-09-24,0.9732265459405055,0.9732265459405055,0.0,0,False
2022-09-25,0.9732265459405055,0.9732265459405055,0.0,0,False
2022-09-26,0.9732265459405055,0.9732265459405055,0.0,0,False
2022-09-27,0.9732265459405055,0.9732265459405055,0.0,0,False
2022-09-28,0.9732265459405055,0.9732265459405055,0.0,0,False
2022-09-29,0.9732265459405055,0.9732265459405055,0.0,0,False
2022-09-30,0.9732265459405055,0.9732265459405055,0.0,0,False
2022-10-01,0.9732265459405055,0.9732265459405055,0.0,0,False
2022-10-02,0.9732265459405055,0.9732265459405055,0.0,0,False
2022-10-03,0.9732265459405055,0.9732265459405055,0.0,0,False
2022-10-04,0.9732265459405055,0.9732265459405055,0.0,0,False
2022-10-05,0.9732265459405055,0.9732265459405055,0.0,0,False
2022-10-06,0.9732265459405055,0.9732265459405055,0.0,0,False
2022-10-07,0.9732265459405055,0.9732265459405055,0.0,0,False
2022-10-08,0.9732265459405055,0.9732265459405055,0.0,0,False
2022-10-09,0.9732265459405055,0.9732265459405055,0.0,0,False
2022-10-10,0.9732265459405055,0.9732265459405055,0.0,0,False
2022-10-11,0.9732265459405055,0.9732265459405055,0.0,0,False
2022-10-12,0.9732265459405055,0.9732265459405055,0.0,0,False
2022-10-13,0.9732265459405055,0.9732265459405055,0.0,0,False
2022-10-14,0.9732265459405055,0.9732265459405055,0.0,0,False
2022-10-15,0.9732265459405055,0.9732265459405055,0.0,0,False
2022-10-16,0.9732265459405055,0.9732265459405055,0.0,0,False
2022-10-17,0.9732265459405055,0.9732265459405055,0.0,0,False
2022-10-18,0.9732265459405055,0.9732265459405055,0.0,0,False
2022-10-19,0.9732265459405055,0.9732265459405055,0.0,0,False
2022-10-20,0.9732265459405055,0.9732265459405055,0.0,0,False
2022-10-21,0.9732265459405055,0.9732265459405055,0.0,0,False
2022-10-22,0.9732265459405055,0.9732265459405055,0.0,0,False
2022-10-23,0.9732265459405055,0.9732265459405055,0.0,0,False
2022-10-24,0.9732265459405055,0.9732265459405055,0.0,0,False
2022-10-25,0.9732265459405055,0.9732265459405055,0.0,0,False
2022-10-26,0.9732265459405055,0.9732265459405055,0.0,0,False
2022-10-27,0.9732265459405055,0.9732265459405055,0.0,0,False
2022-10-28,0.9732265459405055,0.9732265459405055,0.0,0,False
2022-10-29,0.9732265459405055,0.9732265459405055,0.0,0,False
2022-10-30,0.9732265459405055,0.9732265459405055,0.0,0,False
2022-10-31,0.9732265459405055,0.9732265459405055,0.0,0,False
2022-11-01,0.9732265459405055,0.9732265459405055,0.0,0,False
2022-11-02,0.9732265459405055,0.9732265459405055,0.0,0,False
2022-11-03,0.9732265459405055,0.9732265459405055,0.0,0,False
2022-11-04,0.9732265459405055,0.9732265459405055,0.0,0,False
2022-11-05,0.9732265459405055,0.9732265459405055,0.0,0,False
2022-11-06,0.9732265459405055,0.9732265459405055,0.0,0,False
2022-11-07,0.9732265459405055,0.9732265459405055,0.0,0,False
2022-11-08,0.9732265459405055,0.9732265459405055,0.0,0,False
2022-11-09,0.9732265459405055,0.9732265459405055,0.0,0,False
2022-11-10,0.9732265459405055,0.9732265459405055,0.0,0,False
2022-11-11,0.9732265459405055,0.9732265459405055,0.0,0,False
2022-11-12,0.9732265459405055,0.9732265459405055,0.0,0,False
2022-11-13,0.9732265459405055,0.9732265459405055,0.0,0,False
2022-11-14,0.9732265459405055,0.9732265459405055,0.0,0,False
2022-11-15,0.9732265459405055,0.9732265459405055,0.0,0,False
2022-11-16,0.9732265459405055,0.9732265459405055,0.0,0,False
2022-11-17,0.9732265459405055,0.9732265459405055,0.0,0,False
2022-11-18,0.9732265459405055,0.9732265459405055,0.0,0,False
2022-11-19,0.9732265459405055,0.9732265459405055,0.0,0,False
2022-11-20,0.9732265459405055,0.9732265459405055,0.0,0,False
2022-11-21,0.9732265459405055,0.9732265459405055,0.0,0,False
2022-11-22,0.9732265459405055,0.9732265459405055,0.0,0,False
2022-11-23,0.9732265459405055,0.9732265459405055,0.0,0,False
2022-11-24,0.9732265459405055,0.9732265459405055,0.0,0,False
2022-11-25,0.9732265459405055,0.9732265459405055,0.0,0,False
2022-11-26,0.9732265459405055,0.9732265459405055,0.0,0,False
2022-11-27,0.9732265459405055,0.9732265459405055,0.0,0,False
2022-11-28,0.9732265459405055,0.9732265459405055,0.0,0,False
2022-11-29,0.9732265459405055,0.9732265459405055,0.0,0,False
2022-11-30,0.9732265459405055,0.9732265459405055,0.0,0,False
2022-12-01,0.9732265459405055,0.9732265459405055,0.0,0,False
2022-12-02,0.9732265459405055,0.9732265459405055,0.0,0,False
2022-12-03,0.9732265459405055,0.9732265459405055,0.0,0,False
2022-12-04,0.9732265459405055,0.9732265459405055,0.0,0,False
2022-12-05,0.9732265459405055,0.9732265459405055,0.0,0,False
2022-12-06,0.9732265459405055,0.9732265459405055,0.0,0,False
2022-12-07,0.9732265459405055,0.9732265459405055,0.0,0,False
2022-12-08,0.9732265459405055,0.9732265459405055,0.0,0,False
2022-12-09,0.9732265459405055,0.9732265459405055,0.0,0,False
2022-12-10,0.9732265459405055,0.9732265459405055,0.0,0,False
2022-12-11,0.9732265459405055,0.9732265459405055,0.0,0,False
2022-12-12,0.9732265459405055,0.9732265459405055,0.0,0,False
2022-12-13,0.9732265459405055,0.9732265459405055,0.0,0,False
2022-12-14,0.9732265459405055,0.9732265459405055,0.0,0,False
2022-12-15,0.9732265459405055,0.9732265459405055,0.0,0,False
2022-12-16,0.9732265459405055,0.9732265459405055,0.0,0,False
2022-12-17,0.9732265459405055,0.9732265459405055,0.0,0,False
2022-12-18,0.9732265459405055,0.9732265459405055,0.0,0,False
2022-12-19,0.9732265459405055,0.9732265459405055,0.0,0,False
2022-12-20,0.9732265459405055,0.9732265459405055,0.0,0,False
2022-12-21,0.9732265459405055,0.9732265459405055,0.0,0,False
2022-12-22,0.9732265459405055,0.9732265459405055,0.0,0,False
2022-12-23,0.9732265459405055,0.9732265459405055,0.0,0,False
2022-12-24,0.9732265459405055,0.9732265459405055,0.0,0,False
2022-12-25,0.9732265459405055,0.9732265459405055,0.0,0,False
2022-12-26,0.9732265459405055,0.9732265459405055,0.0,0,False
2022-12-27,0.9732265459405055,0.9732265459405055,0.0,0,False
2022-12-28,0.9732265459405055,0.9732265459405055,0.0,0,False
2022-12-29,0.9732265459405055,0.9732265459405055,0.0,0,False
2022-12-30,0.9732265459405055,0.9732265459405055,0.0,0,False
2022-12-31,0.9732265459405055,0.9732265459405055,0.0,0,False
2023-01-01,0.9732265459405055,0.9732265459405055,0.0,0,False
2023-01-02,0.9732265459405055,0.9732265459405055,0.0,0,False
2023-01-03,0.9732265459405055,0.9732265459405055,0.0,0,False
2023-01-04,0.9732265459405055,0.9732265459405055,0.0,0,False
2023-01-05,0.9732265459405055,0.9732265459405055,0.0,0,False
2023-01-06,0.9732265459405055,0.9732265459405055,0.0,0,False
2023-01-07,0.9732265459405055,0.9732265459405055,0.0,0,False
2023-01-08,0.9732265459405055,0.9732265459405055,0.0,0,False
2023-01-09,0.9732265459405055,0.9732265459405055,0.0,0,False
2023-01-10,0.9732265459405055,0.9732265459405055,0.0,0,False
2023-01-11,0.9732265459405055,0.9732265459405055,0.0,0,False
2023-01-12,0.9732265459405055,0.9732265459405055,0.0,0,False
2023-01-13,0.9732265459405055,0.9732265459405055,0.0,0,False
2023-01-14,0.9732265459405055,0.9732265459405055,0.0,0,False
2023-01-15,0.9732265459405055,0.9732265459405055,0.0,0,False
2023-01-16,0.9732265459405055,0.9732265459405055,0.0,0,False
2023-01-17,0.9732265459405055,0.9732265459405055,0.0,0,False
2023-01-18,0.9732265459405055,0.9732265459405055,0.0,0,False
2023-01-19,0.9732265459405055,0.9732265459405055,0.0,0,False
2023-01-20,0.9732265459405055,0.9732265459405055,0.0,0,False
2023-01-21,0.9732265459405055,0.9732265459405055,0.0,0,False
2023-01-22,0.9732265459405055,0.9732265459405055,0.0,0,False
2023-01-23,0.9732265459405055,0.9732265459405055,0.0,0,False
2023-01-24,0.9732265459405055,0.9732265459405055,0.0,0,False
2023-01-25,0.9732265459405055,0.9732265459405055,0.0,0,False
2023-01-26,0.9732265459405055,0.9732265459405055,0.0,0,False
2023-01-27,0.9732265459405055,0.9732265459405055,0.0,0,False
2023-01-28,0.9732265459405055,0.9732265459405055,0.0,0,False
2023-01-29,0.9732265459405055,0.9732265459405055,0.0,0,False
2023-01-30,0.9732265459405055,0.9732265459405055,0.0,0,False
2023-01-31,0.9732265459405055,0.9732265459405055,0.0,0,False
2023-02-01,0.9732265459405055,0.9732265459405055,0.0,0,False
2023-02-02,0.9732265459405055,0.9732265459405055,0.0,0,False
2023-02-03,0.9732265459405055,0.9732265459405055,0.0,0,False
2023-02-04,0.9732265459405055,0.9732265459405055,0.0,0,False
2023-02-05,0.9732265459405055,0.9732265459405055,0.0,0,False
2023-02-06,0.9732265459405055,0.9732265459405055,0.0,0,False
2023-02-07,0.9732265459405055,0.9732265459405055,0.0,0,False
2023-02-08,0.9732265459405055,0.9732265459405055,0.0,0,False
2023-02-09,0.9732265459405055,0.9732265459405055,0.0,0,False
2023-02-10,0.9732265459405055,0.9732265459405055,0.0,0,False
2023-02-11,0.9732265459405055,0.9732265459405055,0.0,0,False
2023-02-12,0.9732265459405055,0.9732265459405055,0.0,0,False
2023-02-13,0.9732265459405055,0.9732265459405055,0.0,0,False
2023-02-14,0.9732265459405055,0.9732265459405055,0.0,0,False
2023-02-15,0.9732265459405055,0.9732265459405055,0.0,0,False
2023-02-16,0.9732265459405055,0.9732265459405055,0.0,0,False
2023-02-17,0.9732265459405055,0.9732265459405055,0.0,0,False
2023-02-18,0.9732265459405055,0.9732265459405055,0.0,0,False
2023-02-19,0.9732265459405055,0.9732265459405055,0.0,0,False
2023-02-20,0.9732265459405055,0.9732265459405055,0.0,0,False
2023-02-21,0.9732265459405055,0.9732265459405055,0.0,0,False
2023-02-22,0.9732265459405055,0.9732265459405055,0.0,0,False
2023-02-23,0.9732265459405055,0.9732265459405055,0.0,0,False
2023-02-24,0.9732265459405055,0.9732265459405055,0.0,0,False
2023-02-25,0.9732265459405055,0.9732265459405055,0.0,0,False
2023-02-26,0.9732265459405055,0.9732265459405055,0.0,0,False
2023-02-27,0.9732265459405055,0.9732265459405055,0.0,0,False
2023-02-28,0.9732265459405055,0.9732265459405055,0.0,0,False
2023-03-01,0.9732265459405055,0.9732265459405055,0.0,0,False
2023-03-02,0.9732265459405055,0.9732265459405055,0.0,0,False
2023-03-03,0.9732265459405055,0.9732265459405055,0.0,0,False
2023-03-04,0.9732265459405055,0.9732265459405055,0.0,0,False
2023-03-05,0.9732265459405055,0.9732265459405055,0.0,0,False
2023-03-06,0.9732265459405055,0.9732265459405055,0.0,0,False
2023-03-07,0.9732265459405055,0.9732265459405055,0.0,0,False
2023-03-08,0.9732265459405055,0.9732265459405055,0.0,0,False
2023-03-09,0.9732265459405055,0.9732265459405055,0.0,0,False
2023-03-10,0.9732265459405055,0.9732265459405055,0.0,0,False
2023-03-11,0.9732265459405055,0.9732265459405055,0.0,0,False
2023-03-12,0.9732265459405055,0.9732265459405055,0.0,0,False
2023-03-13,0.9732265459405055,0.9732265459405055,0.0,0,False
2023-03-14,0.9732265459405055,0.9732265459405055,0.0,0,False
2023-03-15,0.9732265459405055,0.9732265459405055,0.0,0,False
2023-03-16,0.9732265459405055,0.9732265459405055,0.0,0,False
2023-03-17,0.9732265459405055,0.9732265459405055,0.0,0,False
2023-03-18,0.9732265459405055,0.9732265459405055,0.0,0,False
2023-03-19,0.9732265459405055,0.9732265459405055,0.0,0,False
2023-03-20,0.9732265459405055,0.9732265459405055,0.0,0,False
2023-03-21,0.9732265459405055,0.9732265459405055,0.0,0,False
2023-03-22,0.9732265459405055,0.9732265459405055,0.0,0,False
2023-03-23,0.9732265459405055,0.9732265459405055,0.0,0,False
2023-03-24,0.9732265459405055,0.9732265459405055,0.0,0,False
2023-03-25,0.9732265459405055,0.9732265459405055,0.0,0,False
2023-03-26,0.9732265459405055,0.9732265459405055,0.0,0,False
2023-03-27,0.9732265459405055,0.9732265459405055,0.0,0,False
2023-03-28,0.9732265459405055,0.9732265459405055,0.0,0,False
2023-03-29,0.9732265459405055,0.9732265459405055,0.0,0,False
2023-03-30,0.9732265459405055,0.9732265459405055,0.0,0,False
2023-03-31,0.9732265459405055,0.9732265459405055,0.0,0,False
2023-04-01,0.9732265459405055,0.9732265459405055,0.0,0,False
2023-04-02,0.9732265459405055,0.9732265459405055,0.0,0,False
2023-04-03,0.9732265459405055,0.9732265459405055,0.0,0,False
2023-04-04,0.9732265459405055,0.9732265459405055,0.0,0,False
2023-04-05,0.9732265459405055,0.9732265459405055,0.0,0,False
2023-04-06,0.9732265459405055,0.9732265459405055,0.0,0,False
2023-04-07,0.9732265459405055,0.9732265459405055,0.0,0,False
2023-04-08,0.9732265459405055,0.9732265459405055,0.0,0,False
2023-04-09,0.9732265459405055,0.9732265459405055,0.0,0,False
2023-04-10,0.9732265459405055,0.9732265459405055,0.0,0,False
2023-04-11,0.9732265459405055,0.9732265459405055,0.0,0,False
2023-04-12,0.9732265459405055,0.9732265459405055,0.0,0,False
2023-04-13,0.9732265459405055,0.9732265459405055,0.0,0,False
2023-04-14,0.9732265459405055,0.9732265459405055,0.0,0,False
2023-04-15,0.9732265459405055,0.9732265459405055,0.0,0,False
2023-04-16,0.9732265459405055,0.9732265459405055,0.0,0,False
2023-04-17,0.9732265459405055,0.9732265459405055,0.0,0,False
2023-04-18,0.9732265459405055,0.9732265459405055,0.0,0,False
2023-04-19,0.9732265459405055,0.9732265459405055,0.0,0,False
2023-04-20,0.9732265459405055,0.9732265459405055,0.0,0,False
2023-04-21,0.9732265459405055,0.9732265459405055,0.0,0,False
2023-04-22,0.9732265459405055,0.9732265459405055,0.0,0,False
2023-04-23,0.9732265459405055,0.9732265459405055,0.0,0,False
2023-04-24,0.9732265459405055,0.9732265459405055,0.0,0,False
2023-04-25,0.9732265459405055,0.9732265459405055,0.0,0,False
2023-04-26,0.9732265459405055,0.9732265459405055,0.0,0,False
2023-04-27,0.9732265459405055,0.9732265459405055,0.0,0,False
2023-04-28,0.9732265459405055,0.9732265459405055,0.0,0,False
2023-04-29,0.9732265459405055,0.9732265459405055,0.0,0,False
2023-04-30,0.9732265459405055,0.9732265459405055,0.0,0,False
2023-05-01,0.9732265459405055,0.9732265459405055,0.0,0,False
2023-05-02,0.9732265459405055,0.9732265459405055,0.0,0,False
2023-05-03,0.9732265459405055,0.9732265459405055,0.0,0,False
2023-05-04,0.9732265459405055,0.9732265459405055,0.0,0,False
2023-05-05,0.9732265459405055,0.9732265459405055,0.0,0,False
2023-05-06,0.9732265459405055,0.9732265459405055,0.0,0,False
2023-05-07,0.9732265459405055,0.9732265459405055,0.0,0,False
2023-05-08,0.9732265459405055,0.9732265459405055,0.0,0,False
2023-05-09,0.9732265459405055,0.9732265459405055,0.0,0,False
2023-05-10,0.9732265459405055,0.9732265459405055,0.0,0,False
2023-05-11,0.9732265459405055,0.9732265459405055,0.0,0,False
2023-05-12,0.9732265459405055,0.9732265459405055,0.0,0,False
2023-05-13,0.9732265459405055,0.9732265459405055,0.0,0,False
2023-05-14,0.9732265459405055,0.9732265459405055,0.0,0,False
2023-05-15,0.9732265459405055,0.9732265459405055,0.0,0,False
2023-05-16,0.9732265459405055,0.9732265459405055,0.0,0,False
2023-05-17,0.9732265459405055,0.9732265459405055,0.0,0,False
2023-05-18,0.9732265459405055,0.9732265459405055,0.0,0,False
2023-05-19,0.9732265459405055,0.9732265459405055,0.0,0,False
2023-05-20,0.9732265459405055,0.9732265459405055,0.0,0,False
2023-05-21,0.9732265459405055,0.9732265459405055,0.0,0,False
2023-05-22,0.9732265459405055,0.9732265459405055,0.0,0,False
2023-05-23,0.9732265459405055,0.9732265459405055,0.0,0,False
2023-05-24,0.9732265459405055,0.9732265459405055,0.0,0,False
2023-05-25,0.9732265459405055,0.9732265459405055,0.0,0,False
2023-05-26,0.9732265459405055,0.9732265459405055,0.0,0,False
2023-05-27,0.9732265459405055,0.9732265459405055,0.0,0,False
2023-05-28,0.9732265459405055,0.9732265459405055,0.0,0,False
2023-05-29,0.9732265459405055,0.9732265459405055,0.0,0,False
2023-05-30,0.9732265459405055,0.9732265459405055,0.0,0,False
2023-05-31,0.9732265459405055,0.9732265459405055,0.0,0,False
2023-06-01,0.9732265459405055,0.9732265459405055,0.0,0,False
2023-06-02,0.9732265459405055,0.9732265459405055,0.0,0,False
2023-06-03,0.9732265459405055,0.9732265459405055,0.0,0,False
2023-06-04,0.9732265459405055,0.9732265459405055,0.0,0,False
2023-06-05,0.9732265459405055,0.9732265459405055,0.0,0,False
2023-06-06,0.9732265459405055,0.9732265459405055,0.0,0,False
2023-06-07,0.9732265459405055,0.9732265459405055,0.0,0,False
2023-06-08,0.9732265459405055,0.9732265459405055,0.0,0,False
2023-06-09,0.9732265459405055,0.9732265459405055,0.0,0,False
2023-06-10,0.9732265459405055,0.9732265459405055,0.0,0,False
2023-06-11,0.9732265459405055,0.9732265459405055,0.0,0,False
2023-06-12,0.9732265459405055,0.9732265459405055,0.0,0,False
2023-06-13,0.9732265459405055,0.9732265459405055,0.0,0,False
2023-06-14,0.9732265459405055,0.9732265459405055,0.0,0,False
2023-06-15,0.9732265459405055,0.9732265459405055,0.0,0,False
2023-06-16,0.9732265459405055,0.9732265459405055,0.0,0,False
2023-06-17,0.9732265459405055,0.9732265459405055,0.0,0,False
2023-06-18,0.9732265459405055,0.9732265459405055,0.0,0,False
2023-06-19,0.9732265459405055,0.9732265459405055,0.0,0,False
2023-06-20,0.9732265459405055,0.9732265459405055,0.0,0,False
2023-06-21,0.9732265459405055,0.9732265459405055,0.0,0,False
2023-06-22,0.9732265459405055,0.9732265459405055,0.0,0,False
2023-06-23,0.9732265459405055,0.9732265459405055,0.0,0,False
2023-06-24,0.9732265459405055,0.9732265459405055,0.0,0,False
2023-06-25,0.9732265459405055,0.9732265459405055,0.0,0,False
2023-06-26,0.9732265459405055,0.9732265459405055,0.0,0,False
2023-06-27,0.9732265459405055,0.9732265459405055,0.0,0,False
2023-06-28,0.9732265459405055,0.9732265459405055,0.0,0,False
2023-06-29,0.9732265459405055,0.9732265459405055,0.0,0,False
2023-06-30,0.9732265459405055,0.9732265459405055,0.0,0,False
2023-07-01,0.9732265459405055,0.9732265459405055,0.0,0,False
2023-07-02,0.9732265459405055,0.9732265459405055,0.0,0,False
2023-07-03,0.9732265459405055,0.9732265459405055,0.0,0,False
2023-07-04,0.9732265459405055,0.9732265459405055,0.0,0,False
2023-07-05,0.9732265459405055,0.9732265459405055,0.0,0,False
2023-07-06,0.9732265459405055,0.9732265459405055,0.0,0,False
2023-07-07,0.9732265459405055,0.9732265459405055,0.0,0,False
2023-07-08,0.9732265459405055,0.9732265459405055,0.0,0,False
2023-07-09,0.9732265459405055,0.9732265459405055,0.0,0,False
2023-07-10,0.9732265459405055,0.9732265459405055,0.0,0,False
2023-07-11,0.9732265459405055,0.9732265459405055,0.0,0,False
2023-07-12,0.9732265459405055,0.9732265459405055,0.0,0,False
2023-07-13,0.9732265459405055,0.9732265459405055,0.0,0,False
2023-07-14,0.9732265459405055,0.9732265459405055,0.0,0,False
2023-07-15,0.9732265459405055,0.9732265459405055,0.0,0,False
2023-07-16,0.9732265459405055,0.9732265459405055,0.0,0,False
2023-07-17,0.9732265459405055,0.9732265459405055,0.0,0,False
2023-07-18,0.9732265459405055,0.9732265459405055,0.0,0,False
2023-07-19,0.9732265459405055,0.9732265459405055,0.0,0,False
2023-07-20,0.9732265459405055,0.9732265459405055,0.0,0,False
2023-07-21,0.9732265459405055,0.9732265459405055,0.0,0,False
2023-07-22,0.9732265459405055,0.9732265459405055,0.0,0,False
2023-07-23,0.9732265459405055,0.9732265459405055,0.0,0,False
2023-07-24,0.9732265459405055,0.9732265459405055,0.0,0,False
2023-07-25,0.9732265459405055,0.9732265459405055,0.0,0,False
2023-07-26,0.9732265459405055,0.9732265459405055,0.0,0,False
2023-07-27,0.9732265459405055,0.9732265459405055,0.0,0,False
2023-07-28,0.9732265459405055,0.9732265459405055,0.0,0,False
2023-07-29,0.9732265459405055,0.9732265459405055,0.0,0,False
2023-07-30,0.9732265459405055,0.9732265459405055,0.0,0,False
2023-07-31,0.9732265459405055,0.9732265459405055,0.0,0,False
2023-08-01,0.9732265459405055,0.9732265459405055,0.0,0,False
2023-08-02,0.9732265459405055,0.9732265459405055,0.0,0,False
2023-08-03,0.9732265459405055,0.9732265459405055,0.0,0,False
2023-08-04,0.9732265459405055,0.9732265459405055,0.0,0,False
2023-08-05,0.9732265459405055,0.9732265459405055,0.0,0,False
2023-08-06,0.9732265459405055,0.9732265459405055,0.0,0,False
2023-08-07,0.9732265459405055,0.9732265459405055,0.0,0,False
2023-08-08,0.9732265459405055,0.9732265459405055,0.0,0,False
2023-08-09,0.9732265459405055,0.9732265459405055,0.0,0,False
2023-08-10,0.9732265459405055,0.9732265459405055,0.0,0,False
2023-08-11,0.9732265459405055,0.9732265459405055,0.0,0,False
2023-08-12,0.9732265459405055,0.9732265459405055,0.0,0,False
2023-08-13,0.9732265459405055,0.9732265459405055,0.0,0,False
2023-08-14,0.9732265459405055,0.9732265459405055,0.0,0,False
2023-08-15,0.9732265459405055,0.9732265459405055,0.0,0,False
2023-08-16,0.9732265459405055,0.9732265459405055,0.0,0,False
2023-08-17,0.9732265459405055,0.9732265459405055,0.0,0,False
2023-08-18,0.9732265459405055,0.9732265459405055,0.0,0,False
2023-08-19,0.9732265459405055,0.9732265459405055,0.0,0,False
2023-08-20,0.9732265459405055,0.9732265459405055,0.0,0,False
2023-08-21,0.9732265459405055,0.9732265459405055,0.0,0,False
2023-08-22,0.9732265459405055,0.9732265459405055,0.0,0,False
2023-08-23,0.9732265459405055,0.9732265459405055,0.0,0,False
2023-08-24,0.9732265459405055,0.9732265459405055,0.0,0,False
2023-08-25,0.9732265459405055,0.9732265459405055,0.0,0,False
2023-08-26,0.9732265459405055,0.9732265459405055,0.0,0,False
2023-08-27,0.9732265459405055,0.9732265459405055,0.0,0,False
2023-08-28,0.9732265459405055,0.9732265459405055,0.0,0,False
2023-08-29,0.9732265459405055,0.9732265459405055,0.0,0,False
2023-08-30,0.9732265459405055,0.9732265459405055,0.0,0,False
2023-08-31,0.9732265459405055,0.9732265459405055,0.0,0,False
2023-09-01,0.9732265459405055,0.9732265459405055,0.0,0,False
2023-09-02,0.9732265459405055,0.9732265459405055,0.0,0,False
2023-09-03,0.9732265459405055,0.9732265459405055,0.0,0,False
2023-09-04,0.9732265459405055,0.9732265459405055,0.0,0,False
2023-09-05,0.9732265459405055,0.9732265459405055,0.0,0,False
2023-09-06,0.9732265459405055,0.9732265459405055,0.0,0,False
2023-09-07,0.9732265459405055,0.9732265459405055,0.0,0,False
2023-09-08,0.9732265459405055,0.9732265459405055,0.0,0,False
2023-09-09,0.9732265459405055,0.9732265459405055,0.0,0,False
2023-09-10,0.9732265459405055,0.9732265459405055,0.0,0,False
2023-09-11,0.9732265459405055,0.9732265459405055,0.0,0,False
2023-09-12,0.9732265459405055,0.9732265459405055,0.0,0,False
2023-09-13,0.9732265459405055,0.9732265459405055,0.0,0,False
2023-09-14,0.9732265459405055,0.9732265459405055,0.0,0,False
2023-09-15,0.9732265459405055,0.9732265459405055,0.0,0,False
2023-09-16,0.9732265459405055,0.9732265459405055,0.0,0,False
2023-09-17,0.9732265459405055,0.9732265459405055,0.0,0,False
2023-09-18,0.9732265459405055,0.9732265459405055,0.0,0,False
2023-09-19,0.9732265459405055,0.9732265459405055,0.0,0,False
2023-09-20,0.9732265459405055,0.9732265459405055,0.0,0,False
2023-09-21,0.9732265459405055,0.9732265459405055,0.0,0,False
2023-09-22,0.9732265459405055,0.9732265459405055,0.0,0,False
2023-09-23,0.9732265459405055,0.9732265459405055,0.0,0,False
2023-09-24,0.9732265459405055,0.9732265459405055,0.0,0,False
2023-09-25,0.9732265459405055,0.9732265459405055,0.0,0,False
2023-09-26,0.9732265459405055,0.9732265459405055,0.0,0,False
2023-09-27,0.9732265459405055,0.9732265459405055,0.0,0,False
2023-09-28,0.9732265459405055,0.9732265459405055,0.0,0,False
2023-09-29,0.9732265459405055,0.9732265459405055,0.0,0,False
2023-09-30,0.9732265459405055,0.9732265459405055,0.0,0,False
2023-10-01,0.9732265459405055,0.9732265459405055,0.0,0,False
2023-10-02,0.9732265459405055,0.9732265459405055,0.0,0,False
2023-10-03,0.9732265459405055,0.9732265459405055,0.0,0,False
2023-10-04,0.9732265459405055,0.9732265459405055,0.0,0,False
2023-10-05,0.9732265459405055,0.9732265459405055,0.0,0,False
2023-10-06,0.9732265459405055,0.9732265459405055,0.0,0,False
2023-10-07,0.9732265459405055,0.9732265459405055,0.0,0,False
2023-10-08,0.9732265459405055,0.9732265459405055,0.0,0,False
2023-10-09,0.9732265459405055,0.9732265459405055,0.0,0,False
2023-10-10,0.9732265459405055,0.9732265459405055,0.0,0,False
2023-10-11,0.9732265459405055,0.9732265459405055,0.0,0,False
2023-10-12,0.9732265459405055,0.9732265459405055,0.0,0,False
2023-10-13,0.9732265459405055,0.9732265459405055,0.0,0,False
2023-10-14,0.9732265459405055,0.9732265459405055,0.0,0,False
2023-10-15,0.9732265459405055,0.9732265459405055,0.0,0,False
2023-10-16,0.9732265459405055,0.9732265459405055,0.0,0,False
2023-10-17,0.9732265459405055,0.9732265459405055,0.0,0,False
2023-10-18,0.9732265459405055,0.9732265459405055,0.0,0,False
2023-10-19,0.9732265459405055,0.9732265459405055,0.0,0,False
2023-10-20,0.9732265459405055,0.9732265459405055,0.0,0,False
2023-10-21,0.9732265459405055,0.9732265459405055,0.0,0,False
2023-10-22,0.9732265459405055,0.9732265459405055,0.0,0,False
2023-10-23,0.9732265459405055,0.9732265459405055,0.0,0,False
2023-10-24,0.9732265459405055,0.9732265459405055,0.0,0,False
2023-10-25,0.9732265459405055,0.9732265459405055,0.0,0,False
2023-10-26,0.9732265459405055,0.9732265459405055,0.0,0,False
2023-10-27,0.9732265459405055,0.9732265459405055,0.0,0,False
2023-10-28,0.9732265459405055,0.9732265459405055,0.0,0,False
2023-10-29,0.9732265459405055,0.9732265459405055,0.0,0,False
2023-10-30,0.9732265459405055,0.9732265459405055,0.0,0,False
2023-10-31,0.9732265459405055,0.9732265459405055,0.0,0,False
2023-11-01,0.9732265459405055,0.9732265459405055,0.0,0,False
2023-11-02,0.9732265459405055,0.9732265459405055,0.0,0,False
2023-11-03,0.9732265459405055,0.9732265459405055,0.0,0,False
2023-11-04,0.9732265459405055,0.9732265459405055,0.0,0,False
2023-11-05,0.9732265459405055,0.9732265459405055,0.0,0,False
2023-11-06,0.9732265459405055,0.9732265459405055,0.0,0,False
2023-11-07,0.9732265459405055,0.9732265459405055,0.0,0,False
2023-11-08,0.9732265459405055,0.9732265459405055,0.0,0,False
2023-11-09,0.9732265459405055,0.9732265459405055,0.0,0,False
2023-11-10,0.9732265459405055,0.9732265459405055,0.0,0,False
2023-11-11,0.9732265459405055,0.9732265459405055,0.0,0,False
2023-11-12,0.9732265459405055,0.9732265459405055,0.0,0,False
2023-11-13,0.9732265459405055,0.9732265459405055,0.0,0,False
2023-11-14,0.9732265459405055,0.9732265459405055,0.0,0,False
2023-11-15,0.9732265459405055,0.9732265459405055,0.0,0,False
2023-11-16,0.9732265459405055,0.9732265459405055,0.0,0,False
2023-11-17,0.9732265459405055,0.9732265459405055,0.0,0,False
2023-11-18,0.9732265459405055,0.9732265459405055,0.0,0,False
2023-11-19,0.9732265459405055,0.9732265459405055,0.0,0,False
2023-11-20,0.9732265459405055,0.9732265459405055,0.0,0,False
2023-11-21,0.9732265459405055,0.9732265459405055,0.0,0,False
2023-11-22,0.9732265459405055,0.9732265459405055,0.0,0,False
2023-11-23,0.9732265459405055,0.9732265459405055,0.0,0,False
2023-11-24,0.9732265459405055,0.9732265459405055,0.0,0,False
2023-11-25,0.9732265459405055,0.9732265459405055,0.0,0,False
2023-11-26,0.9732265459405055,0.9732265459405055,0.0,0,False
2023-11-27,0.9732265459405055,0.9732265459405055,0.0,0,False
2023-11-28,0.9732265459405055,0.9732265459405055,0.0,0,False
2023-11-29,0.9732265459405055,0.9732265459405055,0.0,0,False
2023-11-30,0.9732265459405055,0.9732265459405055,0.0,0,False
2023-12-01,0.9732265459405055,0.9732265459405055,0.0,0,False
2023-12-02,0.9732265459405055,0.9732265459405055,0.0,0,False
2023-12-03,0.9732265459405055,0.9732265459405055,0.0,0,False
2023-12-04,0.9732265459405055,0.9732265459405055,0.0,0,False
2023-12-05,0.9732265459405055,0.9732265459405055,0.0,0,False
2023-12-06,0.9732265459405055,0.9732265459405055,0.0,0,False
2023-12-07,0.9732265459405055,0.9732265459405055,0.0,0,False
2023-12-08,0.9732265459405055,0.9732265459405055,0.0,0,False
2023-12-09,0.9732265459405055,0.9732265459405055,0.0,0,False
2023-12-10,0.9732265459405055,0.9732265459405055,0.0,0,False
2023-12-11,0.9732265459405055,0.9732265459405055,0.0,0,False
2023-12-12,0.9732265459405055,0.9732265459405055,0.0,0,False
2023-12-13,0.9732265459405055,0.9732265459405055,0.0,0,False
2023-12-14,0.9732265459405055,0.9732265459405055,0.0,0,False
2023-12-15,0.9732265459405055,0.9732265459405055,0.0,0,False
2023-12-16,0.9732265459405055,0.9732265459405055,0.0,0,False
2023-12-17,0.9732265459405055,0.9732265459405055,0.0,0,False
2023-12-18,0.9732265459405055,0.9732265459405055,0.0,0,False
2023-12-19,0.9732265459405055,0.9732265459405055,0.0,0,False
2023-12-20,0.9732265459405055,0.9732265459405055,0.0,0,False
2023-12-21,0.9732265459405055,0.9732265459405055,0.0,0,False
2023-12-22,0.9732265459405055,0.9732265459405055,0.0,0,False
2023-12-23,0.9732265459405055,0.9732265459405055,0.0,0,False
2023-12-24,0.9732265459405055,0.9732265459405055,0.0,0,False
2023-12-25,0.9732265459405055,0.9732265459405055,0.0,0,False
2023-12-26,0.9732265459405055,0.9732265459405055,0.0,0,False
2023-12-27,0.9732265459405055,0.9732265459405055,0.0,0,False
2023-12-28,0.9732265459405055,0.9732265459405055,0.0,0,False
2023-12-29,0.9732265459405055,0.9732265459405055,0.0,0,False
2023-12-30,0.9732265459405055,0.9732265459405055,0.0,0,False
2023-12-31,0.9732265459405055,0.9732265459405055,0.0,0,False
