day,start_equity,end_equity,return_pct,entries,active
2024-01-02,1.0,1.0,0.0,0,False
2024-01-03,1.0,0.9927789230118099,-0.7221076988190078,6,True
2024-01-04,0.9927789230118099,0.9988114880796243,0.6076443534390519,1,True
2024-01-05,0.9988114880796243,0.9975907178106028,-0.1222222895502112,1,True
2024-01-06,0.9975907178106028,0.9972550799659069,-0.0336448443939541,2,True
2024-01-07,0.9972550799659069,0.9953582447487916,-0.19020562093101656,1,True
2024-01-08,0.9953582447487916,1.0013903305358336,0.6060215825674176,3,True
2024-01-09,1.0013903305358336,1.0050607208892517,0.3665294382714901,0,True
2024-01-10,1.0050607208892517,1.0050607208892517,0.0,0,False
2024-01-11,1.0050607208892517,1.005728896316502,0.06648110043134814,1,True
2024-01-12,1.005728896316502,1.0037116231213674,-0.20057822764394384,2,True
2024-01-13,1.0037116231213674,1.0073142679333784,0.35893225992615907,4,True
2024-01-14,1.0073142679333784,1.0121021540242587,0.47531204940671756,0,True
2024-01-15,1.0121021540242587,1.0121021540242587,0.0,0,False
2024-01-16,1.0121021540242587,1.0116530873262708,-0.04436970084515934,1,True
2024-01-17,1.0116530873262708,1.015871173898887,0.41694990362401985,0,True
2024-01-18,1.015871173898887,1.015871173898887,0.0,0,False
2024-01-19,1.015871173898887,1.015871173898887,0.0,0,False
2024-01-20,1.015871173898887,1.029143731304513,1.3065197385891292,6,True
2024-01-21,1.029143731304513,1.0309530565640994,0.17580880148713174,0,True
2024-01-22,1.0309530565640994,1.0309530565640994,0.0,0,False
2024-01-23,1.0309530565640994,1.011502273179179,-1.8866798309658206,8,True
2024-01-24,1.011502273179179,1.0259668587623438,1.430010190456854,0,True
2024-01-25,1.0259668587623438,1.0208462391489912,-0.499101853984818,1,True
2024-01-26,1.0208462391489912,1.0208462391489912,0.0,0,False
2024-01-27,1.0208462391489912,1.0208462391489912,0.0,0,False
2024-01-28,1.0208462391489912,1.0208462391489912,0.0,0,False
2024-01-29,1.0208462391489912,1.0208462391489912,0.0,0,False
2024-01-30,1.0208462391489912,1.0208462391489912,0.0,0,False
2024-01-31,1.0208462391489912,1.0157466842892147,-0.49954191573724493,1,True
2024-02-01,1.0157466842892147,1.0157466842892147,0.0,0,False
2024-02-02,1.0157466842892147,1.015264540693707,-0.04746691305667072,2,True
2024-02-03,1.015264540693707,1.0232228016552936,0.7838608207619169,1,True
2024-02-04,1.0232228016552936,1.0214846240344024,-0.1698728388459747,1,True
2024-02-05,1.0214846240344024,1.0214846240344024,0.0,0,False
2024-02-06,1.0214846240344024,1.01639401910008,-0.4983535546738693,1,True
2024-02-07,1.01639401910008,1.015497445744945,-0.08821119942526989,3,True
2024-02-08,1.015497445744945,1.0301611473452534,1.4439919727766037,0,True
2024-02-09,1.0301611473452534,1.0301611473452534,0.0,0,False
2024-02-10,1.0301611473452534,1.0301611473452534,0.0,0,False
2024-02-11,1.0301611473452534,1.0301611473452534,0.0,0,False
2024-02-12,1.0301611473452534,1.0301611473452534,0.0,0,False
2024-02-13,1.0301611473452534,1.0301611473452534,0.0,0,False
2024-02-14,1.0301611473452534,1.0313235730930594,0.11283921460265578,1,True
2024-02-15,1.0313235730930594,1.0288214423478392,-0.24261355121710793,0,True
2024-02-16,1.0288214423478392,1.0338225799990457,0.4861035594080798,1,True
2024-02-17,1.0338225799990457,1.029699080358604,-0.3988595064779443,2,True
2024-02-18,1.029699080358604,1.0300696823126303,0.035991287269809824,0,True
2024-02-19,1.0300696823126303,1.0300696823126303,0.0,0,False
2024-02-20,1.0300696823126303,1.0274624190242012,-0.2531152341631371,7,True
2024-02-21,1.0274624190242012,1.009590652850267,-1.7394082589324622,4,True
2024-02-22,1.009590652850267,1.032912623804262,2.310042281805269,3,True
2024-02-23,1.032912623804262,1.0391027039167808,0.5992840023312462,1,True
2024-02-24,1.0391027039167808,1.0504814377960259,1.0950538225292128,3,True
2024-02-25,1.0504814377960259,1.0477282437810933,-0.2620887829021479,1,True
2024-02-26,1.0477282437810933,1.0529370498507509,0.4971523962034041,0,True
2024-02-27,1.0529370498507509,1.0527136494088025,-0.02121688490114293,1,True
2024-02-28,1.0527136494088025,1.0524531177297114,-0.02474857994264612,1,True
2024-02-29,1.0524531177297114,1.0713902113250469,1.7993289464698803,5,True
2024-03-01,1.0713902113250469,1.0698894388330595,-0.14007711439991688,1,True
2024-03-02,1.0698894388330595,1.0693419628270826,-0.05117126930181959,1,True
2024-03-03,1.0693419628270826,1.0710100196614292,0.15598909351097756,6,True
2024-03-04,1.0710100196614292,1.0869568147274897,1.4889491949946265,0,True
2024-03-05,1.0869568147274897,1.0805294061227222,-0.5913214322483373,5,True
2024-03-06,1.0805294061227222,1.0588622451550078,-2.005235659940341,4,True
2024-03-07,1.0588622451550078,1.0588622451550078,0.0,0,False
2024-03-08,1.0588622451550078,1.0594546855980738,0.055950662683157404,2,True
2024-03-09,1.0594546855980738,1.0566065876887478,-0.2688267792895882,3,True
2024-03-10,1.0566065876887478,1.0620712029085813,0.517185420146471,2,True
2024-03-11,1.0620712029085813,1.054830401951926,-0.6817622902142273,0,True
2024-03-12,1.054830401951926,1.0508985620256426,-0.3727461702855317,1,True
2024-03-13,1.0508985620256426,1.0555425508894358,0.44190648190076676,2,True
2024-03-14,1.0555425508894358,1.05316182606114,-0.22554513091772588,1,True
2024-03-15,1.05316182606114,1.03791089852761,-1.448108653023339,10,True
2024-03-16,1.03791089852761,1.0475512686032802,0.9288244385280198,1,True
2024-03-17,1.0475512686032802,1.0321817149470314,-1.4671886824920155,4,True
2024-03-18,1.0321817149470314,1.033431194121508,0.12105224849296992,0,True
2024-03-19,1.033431194121508,1.0175435505042718,-1.537368303531983,8,True
2024-03-20,1.0175435505042718,1.0151141189335084,-0.23875455449149374,0,True
2024-03-21,1.0151141189335084,1.0192463655483763,0.4070721249753939,2,True
2024-03-22,1.0192463655483763,1.0192463655483763,0.0,0,False
2024-03-23,1.0192463655483763,1.020805211993816,0.15294108452386102,1,True
2024-03-24,1.020805211993816,1.0182475485291012,-0.25055352722184177,2,True
2024-03-25,1.0182475485291012,1.0261138849664102,0.7725367420400087,2,True
2024-03-26,1.0261138849664102,1.029546634225532,0.3345388177097064,2,True
2024-03-27,1.029546634225532,1.0286246779143522,-0.08954973777106634,2,True
2024-03-28,1.0286246779143522,1.0244563668192566,-0.4052314886657582,0,True
2024-03-29,1.0244563668192566,1.013244022463934,-1.0944677312255569,4,True
2024-03-30,1.013244022463934,1.0131608325860004,-0.00821025104410511,0,True
2024-03-31,1.0131608325860004,1.0131608325860004,0.0,0,False
2024-04-01,1.0131608325860004,1.011447460904288,-0.16911151977117012,4,True
2024-04-02,1.011447460904288,0.9847779460147567,-2.6367671995228936,5,True
2024-04-03,0.9847779460147567,0.9682598119472401,-1.6773460590139067,1,True
2024-04-04,0.9682598119472401,0.967696037954075,-0.05822548723067866,1,True
2024-04-05,0.967696037954075,0.9536035573624536,-1.456292062682829,3,True
2024-04-06,0.9536035573624536,0.9522417389875425,-0.14280760221551114,1,True
2024-04-07,0.9522417389875425,0.9643272558478032,1.269164789301347,1,True
2024-04-08,0.9643272558478032,0.9643272558478032,0.0,0,False
2024-04-09,0.9643272558478032,0.9595167234114864,-0.49884853996867706,1,True
2024-04-10,0.9595167234114864,0.9534605110518118,-0.6311731949957267,4,True
2024-04-11,0.9534605110518118,0.9584062263544797,0.5187121275963547,1,True
2024-04-12,0.9584062263544797,0.9526951360869088,-0.5958945289091355,2,True
2024-04-13,0.9526951360869088,0.9269526656779068,-2.7020679999203545,7,True
2024-04-14,0.9269526656779068,0.8827590650690165,-4.767622150001616,13,True
2024-04-15,0.8827590650690165,0.8914975926180904,0.9899108255989164,0,True
2024-04-16,0.8914975926180904,0.8914975926180904,0.0,0,False
2024-04-17,0.8914975926180904,0.8914975926180904,0.0,0,False
2024-04-18,0.8914975926180904,0.8914975926180904,0.0,0,False
2024-04-19,0.8914975926180904,0.8958650913785002,0.48990583895842654,4,True
2024-04-20,0.8958650913785002,0.8931502779761412,-0.3030381949788441,0,True
2024-04-21,0.8931502779761412,0.8931502779761412,0.0,0,False
2024-04-22,0.8931502779761412,0.8931502779761412,0.0,0,False
2024-04-23,0.8931502779761412,0.8948016402469885,0.18489187223780235,1,True
2024-04-24,0.8948016402469885,0.8920422800851122,-0.30837674382387936,1,True
2024-04-25,0.8920422800851122,0.8894688667935435,-0.28848557394870467,0,True
2024-04-26,0.8894688667935435,0.8894688667935435,0.0,0,False
2024-04-27,0.8894688667935435,0.8962885472975461,0.7667137950074565,3,True
2024-04-28,0.8962885472975461,0.898560433447355,0.25347709246748007,1,True
2024-04-29,0.898560433447355,0.9010066165819363,0.2722335686645261,2,True
2024-04-30,0.9010066165819363,0.8981825898068041,-0.31343019275988926,2,True
2024-05-01,0.8981825898068041,0.8930767711786319,-0.5684610997937933,3,True
2024-05-02,0.8930767711786319,0.8960776419576548,0.336014873062096,1,True
2024-05-03,0.8960776419576548,0.8939986093997377,-0.23201477869428944,1,True
2024-05-04,0.8939986093997377,0.8946759086780265,0.07576066351417943,0,True
2024-05-05,0.8946759086780265,0.8918157523833418,-0.31968629835030793,1,True
2024-05-06,0.8918157523833418,0.89307366799836,0.14105106482549257,0,True
2024-05-07,0.89307366799836,0.8976065939813475,0.5075646215330742,2,True
2024-05-08,0.8976065939813475,0.89967997916742,0.23099041383776164,2,True
2024-05-09,0.89967997916742,0.8972123652439403,-0.2742768518382843,1,True
2024-05-10,0.8972123652439403,0.8999082937212834,0.30047830165718104,0,True
2024-05-11,0.8999082937212834,0.8930944570117493,-0.7571701202305547,3,True
2024-05-12,0.8930944570117493,0.8927400219115195,-0.03968618296162907,0,True
2024-05-13,0.8927400219115195,0.8935840752471867,0.09454637575898595,3,True
2024-05-14,0.8935840752471867,0.893605962259745,0.002449351232236552,3,True
2024-05-15,0.893605962259745,0.8985449488087238,0.5527029538264561,1,True
2024-05-16,0.8985449488087238,0.899376408277962,0.09253398734703211,0,True
2024-05-17,0.899376408277962,0.899376408277962,0.0,0,False
2024-05-18,0.899376408277962,0.9042404803321359,0.5408271786322638,2,True
2024-05-19,0.9042404803321359,0.903608189079184,-0.06992512132608653,0,True
2024-05-20,0.903608189079184,0.9010725993748331,-0.2806072073046173,1,True
2024-05-21,0.9010725993748331,0.8959485710329365,-0.5686587679451849,2,True
2024-05-22,0.8959485710329365,0.8988908652679857,0.32839990264810215,1,True
2024-05-23,0.8988908652679857,0.8945425928363935,-0.4837375258336718,1,True
2024-05-24,0.8945425928363935,0.899287323226617,0.5304085493770705,2,True
2024-05-25,0.899287323226617,0.8990085036880808,-0.03100450004518418,0,True
2024-05-26,0.8990085036880808,0.9002638475051853,0.13963647862669237,2,True
2024-05-27,0.9002638475051853,0.911965193388989,1.2997684974499935,2,True
2024-05-28,0.911965193388989,0.9191486136749633,0.7876857952527461,1,True
2024-05-29,0.9191486136749633,0.9191486136749633,0.0,0,False
2024-05-30,0.9191486136749633,0.915064791921461,-0.44430483740537374,3,True
2024-05-31,0.915064791921461,0.9123560005245279,-0.29602181406686023,0,True
2024-06-01,0.9123560005245279,0.9103027250155753,-0.2250520090592012,2,True
2024-06-02,0.9103027250155753,0.9190316594450073,0.9589045698267684,0,True
2024-06-03,0.9190316594450073,0.9198827348467967,0.09260566739379694,1,True
2024-06-04,0.9198827348467967,0.9272643514333422,0.8024519111965667,3,True
2024-06-05,0.9272643514333422,0.9297678143310409,0.26998373158948485,0,True
2024-06-06,0.9297678143310409,0.9307489343275911,0.10552311893652355,1,True
2024-06-07,0.9307489343275911,0.9301098796525866,-0.0686602639482059,0,True
2024-06-08,0.9301098796525866,0.944420483820312,1.5385928566924445,5,True
2024-06-09,0.944420483820312,0.9446718015988462,0.026610792844894426,0,True
2024-06-10,0.9446718015988462,0.9446718015988462,0.0,0,False
2024-06-11,0.9446718015988462,0.9447340205600514,0.006586304481603911,1,True
2024-06-12,0.9447340205600514,0.9539332912349926,0.9737418654075514,1,True
2024-06-13,0.9539332912349926,0.9486622481330946,-0.5525588791511771,1,True
2024-06-14,0.9486622481330946,0.9398984285842468,-0.9238081905435291,4,True
2024-06-15,0.9398984285842468,0.9482965725171328,0.8935161159420169,4,True
2024-06-16,0.9482965725171328,0.9485973170364576,0.031714183942099794,0,True
2024-06-17,0.9485973170364576,0.939158460404682,-0.995033030587078,2,True
2024-06-18,0.939158460404682,0.9431467723119633,0.4246686874931349,5,True
2024-06-19,0.9431467723119633,0.9548120329419346,1.2368446749148054,0,True
2024-06-20,0.9548120329419346,0.9635003998210233,0.9099557378134726,1,True
2024-06-21,0.9635003998210233,0.9620089082371512,-0.15479926984452996,1,True
2024-06-22,0.9620089082371512,0.9626425637851024,0.0658679501328363,0,True
2024-06-23,0.9626425637851024,0.9612062992894058,-0.14920018600145246,2,True
2024-06-24,0.9612062992894058,0.956894054054413,-0.4486284825828468,0,True
2024-06-25,0.956894054054413,0.956894054054413,0.0,0,False
2024-06-26,0.956894054054413,0.956894054054413,0.0,0,False
2024-06-27,0.956894054054413,0.9521255277955267,-0.4983337746411687,1,True
2024-06-28,0.9521255277955267,0.9518229052712237,-0.03178388935791698,1,True
2024-06-29,0.9518229052712237,0.9402473388499253,-1.2161470749645353,3,True
2024-06-30,0.9402473388499253,0.9363810329748655,-0.41120093780737665,0,True
2024-07-01,0.9363810329748655,0.9302898706702396,-0.6505003935496689,2,True
2024-07-02,0.9302898706702396,0.9342502573269279,0.4257153368589339,0,True
2024-07-03,0.9342502573269279,0.9295830990598356,-0.4995618925967338,1,True
2024-07-04,0.9295830990598356,0.9169847845660863,-1.3552650114326492,4,True
2024-07-05,0.9169847845660863,0.8896462235220248,-2.981353835330869,12,True
2024-07-06,0.8896462235220248,0.8966956436507859,0.7923846516037614,0,True
2024-07-07,0.8966956436507859,0.8966956436507859,0.0,0,False
2024-07-08,0.8966956436507859,0.897734746499591,0.11588133121451794,2,True
2024-07-09,0.897734746499591,0.8986902204091678,0.10643165069663674,1,True
2024-07-10,0.8986902204091678,0.9018083903104432,0.34696826898326094,1,True
2024-07-11,0.9018083903104432,0.8919523139871323,-1.0929235555147243,2,True
2024-07-12,0.8919523139871323,0.8919523139871323,0.0,0,False
2024-07-13,0.8919523139871323,0.8919523139871323,0.0,0,False
2024-07-14,0.8919523139871323,0.8925317359494669,0.06496109189342292,1,True
2024-07-15,0.8925317359494669,0.8944254437219321,0.21217259803660848,0,True
2024-07-16,0.8944254437219321,0.8944254437219321,0.0,0,False
2024-07-17,0.8944254437219321,0.8944254437219321,0.0,0,False
2024-07-18,0.8944254437219321,0.8944254437219321,0.0,0,False
2024-07-19,0.8944254437219321,0.8913871474800892,-0.3396925102219561,2,True
2024-07-20,0.8913871474800892,0.8922295810790658,0.09450816083202973,0,True
2024-07-21,0.8922295810790658,0.8919137971099447,-0.035392680966617185,1,True
2024-07-22,0.8919137971099447,0.8916568964570257,-0.028803305179425642,1,True
2024-07-23,0.8916568964570257,0.888377558358474,-0.3677802652098716,3,True
2024-07-24,0.888377558358474,0.8849446024146268,-0.3864298362275753,1,True
2024-07-25,0.8849446024146268,0.8841162820338224,-0.09360138234012494,0,True
2024-07-26,0.8841162820338224,0.8841162820338224,0.0,0,False
2024-07-27,0.8841162820338224,0.8841162820338224,0.0,0,False
2024-07-28,0.8841162820338224,0.8816261287560038,-0.28165449821716537,1,True
2024-07-29,0.8816261287560038,0.8816261287560038,0.0,0,False
2024-07-30,0.8816261287560038,0.8790518977858799,-0.2919866921090697,2,True
2024-07-31,0.8790518977858799,0.8716623348416449,-0.8406287459076678,3,True
2024-08-01,0.8716623348416449,0.869026486026872,-0.30239333620531994,0,True
2024-08-02,0.869026486026872,0.8620171190248418,-0.8065769127563183,4,True
2024-08-03,0.8620171190248418,0.8629342121089772,0.10638919621142051,5,True
2024-08-04,0.8629342121089772,0.8404204212748759,-2.6089811387913886,2,True
2024-08-05,0.8404204212748759,0.8237950452711422,-1.9782213262397708,8,True
2024-08-06,0.8237950452711422,0.8295471284462805,0.6982420212596763,0,True
2024-08-07,0.8295471284462805,0.8295471284462805,0.0,0,False
2024-08-08,0.8295471284462805,0.8295471284462805,0.0,0,False
2024-08-09,0.8295471284462805,0.8295471284462805,0.0,0,False
2024-08-10,0.8295471284462805,0.8295471284462805,0.0,0,False
2024-08-11,0.8295471284462805,0.8262265085846405,-0.40029309339656427,1,True
2024-08-12,0.8262265085846405,0.8262078548386044,-0.0022577036493443003,1,True
2024-08-13,0.8262078548386044,0.8212737928077117,-0.5971937935468463,0,True
2024-08-14,0.8212737928077117,0.8212737928077117,0.0,0,False
2024-08-15,0.8212737928077117,0.8212737928077117,0.0,0,False
2024-08-16,0.8212737928077117,0.8212737928077117,0.0,0,False
2024-08-17,0.8212737928077117,0.8285648116155935,0.8877695686545284,1,True
2024-08-18,0.8285648116155935,0.8285648116155935,0.0,0,False
2024-08-19,0.8285648116155935,0.8280704448814802,-0.05966542715581946,1,True
2024-08-20,0.8280704448814802,0.8207017141906656,-0.8898676116703141,2,True
2024-08-21,0.8207017141906656,0.8235899971868461,0.35192847123863835,0,True
2024-08-22,0.8235899971868461,0.8235899971868461,0.0,0,False
2024-08-23,0.8235899971868461,0.8235899971868461,0.0,0,False
2024-08-24,0.8235899971868461,0.8221852077579004,-0.17056902509064997,1,True
2024-08-25,0.8221852077579004,0.8198348469445894,-0.2858675625800222,2,True
2024-08-26,0.8198348469445894,0.8206180464349072,0.09553137357318775,2,True
2024-08-27,0.8206180464349072,0.8147338987065593,-0.7170385484344344,0,True
2024-08-28,0.8147338987065593,0.8163207407254803,0.1947681349014907,4,True
2024-08-29,0.8163207407254803,0.8068781242559613,-1.156728721743272,2,True
2024-08-30,0.8068781242559613,0.8076971459984632,0.1015050127002981,0,True
2024-08-31,0.8076971459984632,0.8076971459984632,0.0,0,False
2024-09-01,0.8076971459984632,0.8052373737115583,-0.30454141123207323,1,True
2024-09-02,0.8052373737115583,0.8058418622810108,0.07506961166821036,0,True
2024-09-03,0.8058418622810108,0.8058418622810108,0.0,0,False
2024-09-04,0.8058418622810108,0.8058418622810108,0.0,0,False
2024-09-05,0.8058418622810108,0.8058418622810108,0.0,0,False
2024-09-06,0.8058418622810108,0.8056303716309275,-0.02624468397368629,1,True
2024-09-07,0.8056303716309275,0.8067524041718261,0.13927386310264023,0,True
2024-09-08,0.8067524041718261,0.8067524041718261,0.0,0,False
2024-09-09,0.8067524041718261,0.8067524041718261,0.0,0,False
2024-09-10,0.8067524041718261,0.8067524041718261,0.0,0,False
2024-09-11,0.8067524041718261,0.802727860930857,-0.49885729750015484,1,True
2024-09-12,0.802727860930857,0.802727860930857,0.0,0,False
2024-09-13,0.802727860930857,0.802525851389373,-0.025165383103775696,1,True
2024-09-14,0.802525851389373,0.8039459124110009,0.17694894428252894,0,True
2024-09-15,0.8039459124110009,0.8055899130642545,0.20449144996874669,1,True
2024-09-16,0.8055899130642545,0.8057889642762651,0.024708751783331095,0,True
2024-09-17,0.8057889642762651,0.8057889642762651,0.0,0,False
2024-09-18,0.8057889642762651,0.8057889642762651,0.0,0,False
2024-09-19,0.8057889642762651,0.8057889642762651,0.0,0,False
2024-09-20,0.8057889642762651,0.8057889642762651,0.0,0,False
2024-09-21,0.8057889642762651,0.8057889642762651,0.0,0,False
2024-09-22,0.8057889642762651,0.8057475689391813,-0.005137242990294055,1,True
2024-09-23,0.8057475689391813,0.8048698057826033,-0.10893773564016884,0,True
2024-09-24,0.8048698057826033,0.8048698057826033,0.0,0,False
2024-09-25,0.8048698057826033,0.8048698057826033,0.0,0,False
2024-09-26,0.8048698057826033,0.8048698057826033,0.0,0,False
2024-09-27,0.8048698057826033,0.8048698057826033,0.0,0,False
2024-09-28,0.8048698057826033,0.8048698057826033,0.0,0,False
2024-09-29,0.8048698057826033,0.8048698057826033,0.0,0,False
2024-09-30,0.8048698057826033,0.8031946356393986,-0.208129331125273,1,True
2024-10-01,0.8031946356393986,0.8042985437510567,0.1374396768448527,0,True
2024-10-02,0.8042985437510567,0.7864970409076115,-2.213295421426875,7,True
2024-10-03,0.7864970409076115,0.7767480714588962,-1.2395430550463438,1,True
2024-10-04,0.7767480714588962,0.7767480714588962,0.0,0,False
2024-10-05,0.7767480714588962,0.7767480714588962,0.0,0,False
2024-10-06,0.7767480714588962,0.7767480714588962,0.0,0,False
2024-10-07,0.7767480714588962,0.7767480714588962,0.0,0,False
2024-10-08,0.7767480714588962,0.7767480714588962,0.0,0,False
2024-10-09,0.7767480714588962,0.7767480714588962,0.0,0,False
2024-10-10,0.7767480714588962,0.7767480714588962,0.0,0,False
2024-10-11,0.7767480714588962,0.7767480714588962,0.0,0,False
2024-10-12,0.7767480714588962,0.7767480714588962,0.0,0,False
2024-10-13,0.7767480714588962,0.7767480714588962,0.0,0,False
2024-10-14,0.7767480714588962,0.7767480714588962,0.0,0,False
2024-10-15,0.7767480714588962,0.7768148097491838,0.008592012357655499,1,True
2024-10-16,0.7768148097491838,0.7765853646535262,-0.02953665310934106,3,True
2024-10-17,0.7765853646535262,0.7743485005582121,-0.2880384046784146,2,True
2024-10-18,0.7743485005582121,0.7797959609684441,0.7034895019884413,1,True
2024-10-19,0.7797959609684441,0.7790260111811851,-0.09873733973984056,1,True
2024-10-20,0.7790260111811851,0.780288454539185,0.16205407006704142,2,True
2024-10-21,0.780288454539185,0.7774254463348851,-0.3669166431522819,0,True
2024-10-22,0.7774254463348851,0.7774254463348851,0.0,0,False
2024-10-23,0.7774254463348851,0.7774254463348851,0.0,0,False
2024-10-24,0.7774254463348851,0.7769687020918298,-0.05875087382444244,1,True
2024-10-25,0.7769687020918298,0.7766875566514941,-0.036184911899117544,0,True
2024-10-26,0.7766875566514941,0.7599631394074167,-2.1533005261705096,9,True
2024-10-27,0.7599631394074167,0.7660302127085546,0.7983378385784334,0,True
2024-10-28,0.7660302127085546,0.7660302127085546,0.0,0,False
2024-10-29,0.7660302127085546,0.7749134892233712,1.1596509337936878,2,True
2024-10-30,0.7749134892233712,0.7762241981793746,0.16914261710903045,0,True
2024-10-31,0.7762241981793746,0.7762241981793746,0.0,0,False
2024-11-01,0.7762241981793746,0.7753411460684615,-0.11376250740241511,2,True
2024-11-02,0.7753411460684615,0.7724548105619323,-0.37226652050712516,0,True
2024-11-03,0.7724548105619323,0.7671142680672277,-0.691372805461532,2,True
2024-11-04,0.7671142680672277,0.7765712443211507,1.2327988994064842,3,True
2024-11-05,0.7765712443211507,0.7779532537814168,0.17796299700412188,1,True
2024-11-06,0.7779532537814168,0.7794446300513046,0.19170512657908922,1,True
2024-11-07,0.7794446300513046,0.7801182528464615,0.08642343140046194,1,True
2024-11-08,0.7801182528464615,0.7758358620593964,-0.548941236977829,2,True
2024-11-09,0.7758358620593964,0.7767455395582621,0.11725128256523387,2,True
2024-11-10,0.7767455395582621,0.781027233482913,0.5512350836396118,1,True
2024-11-11,0.781027233482913,0.7807199044921113,-0.039349330935778415,2,True
2024-11-12,0.7807199044921113,0.7776384409915947,-0.3946951374989127,4,True
2024-11-13,0.7776384409915947,0.7740358835915416,-0.46326894481442116,0,True
2024-11-14,0.7740358835915416,0.7689131858356729,-0.6618165726502645,4,True
2024-11-15,0.7689131858356729,0.778179341235015,1.2050977366542925,2,True
2024-11-16,0.778179341235015,0.7817337803756982,0.4567634929812048,0,True
2024-11-17,0.7817337803756982,0.7759381680099091,-0.7413792919379492,4,True
2024-11-18,0.7759381680099091,0.7810231746030916,0.6553365722715032,1,True
2024-11-19,0.7810231746030916,0.778526698692884,-0.31964172016741843,1,True
2024-11-20,0.778526698692884,0.779793986853478,0.16278030833389856,1,True
2024-11-21,0.779793986853478,0.7901032012127828,1.322043325943456,3,True
2024-11-22,0.7901032012127828,0.7889372305090037,-0.14757195034640347,0,True
2024-11-23,0.7889372305090037,0.7889372305090037,0.0,0,False
2024-11-24,0.7889372305090037,0.7829939839118415,-0.7533231247469074,6,True
2024-11-25,0.7829939839118415,0.7860092884066138,0.38509931835080113,0,True
2024-11-26,0.7860092884066138,0.7818619392967002,-0.5276463231523643,2,True
2024-11-27,0.7818619392967002,0.7846458245304331,0.3560584156631297,0,True
2024-11-28,0.7846458245304331,0.7821304034718576,-0.32058044278523434,2,True
2024-11-29,0.7821304034718576,0.7914241492659817,1.1882603914730172,2,True
2024-11-30,0.7914241492659817,0.7908707660332557,-0.06992245981365386,0,True
2024-12-01,0.7908707660332557,0.791347378147841,0.06026422205183124,1,True
2024-12-02,0.791347378147841,0.7984382087618134,0.896045252663713,6,True
2024-12-03,0.7984382087618134,0.8128966081028532,1.8108351006224321,5,True
2024-12-04,0.8128966081028532,0.8462821099359106,4.1069800882762575,1,True
2024-12-05,0.8462821099359106,0.8575133015579488,1.3271214752358151,5,True
2024-12-06,0.8575133015579488,0.8556065834913867,-0.22235434285368116,1,True
2024-12-07,0.8556065834913867,0.8567007595898053,0.12788308546594074,1,True
2024-12-08,0.8567007595898053,0.8560333697767895,-0.07790232535049846,0,True
2024-12-09,0.8560333697767895,0.8560333697767895,0.0,0,False
2024-12-10,0.8560333697767895,0.8348654637530272,-2.4727898200138876,7,True
2024-12-11,0.8348654637530272,0.8470560185278211,1.4601819459620247,3,True
2024-12-12,0.8470560185278211,0.8502618048701055,0.378462140893121,0,True
2024-12-13,0.8502618048701055,0.8502618048701055,0.0,0,False
2024-12-14,0.8502618048701055,0.8502618048701055,0.0,0,False
2024-12-15,0.8502618048701055,0.8453052806857825,-0.5829409431228338,2,True
2024-12-16,0.8453052806857825,0.8454875042793168,0.021557134173644243,0,True
2024-12-17,0.8454875042793168,0.8454875042793168,0.0,0,False
2024-12-18,0.8454875042793168,0.8412776005504387,-0.4979261914067723,2,True
2024-12-19,0.8412776005504387,0.8263103221043417,-1.7791129154400398,5,True
2024-12-20,0.8263103221043417,0.7937747432393277,-3.9374527940249537,10,True
2024-12-21,0.7937747432393277,0.7980027559628187,0.5326464163166511,1,True
2024-12-22,0.7980027559628187,0.8000057408602864,0.2509997468681746,0,True
2024-12-23,0.8000057408602864,0.7983843339998343,-0.2026744031497163,1,True
2024-12-24,0.7983843339998343,0.8058602734347781,0.9363835331650305,0,True
2024-12-25,0.8058602734347781,0.8058602734347781,0.0,0,False
2024-12-26,0.8058602734347781,0.8058602734347781,0.0,0,False
2024-12-27,0.8058602734347781,0.8058602734347781,0.0,0,False
2024-12-28,0.8058602734347781,0.8018395556796555,-0.4989348510735292,1,True
2024-12-29,0.8018395556796555,0.8055609803415381,0.4641108854661402,3,True
2024-12-30,0.8055609803415381,0.8061391362131749,0.07177059040168743,0,True
2024-12-31,0.8061391362131749,0.8061391362131749,0.0,0,False
