day,start_equity,end_equity,return_pct,entries,active
2021-09-02,1.0,1.0,0.0,0,False
2021-09-03,1.0,1.0,0.0,0,False
2021-09-04,1.0,1.0,0.0,0,False
2021-09-05,1.0,1.0,0.0,0,False
2021-09-06,1.0,1.0,0.0,0,False
2021-09-07,1.0,1.0,0.0,0,False
2021-09-08,1.0,1.0,0.0,0,False
2021-09-09,1.0,1.0,0.0,0,False
2021-09-10,1.0,1.0,0.0,0,False
2021-09-11,1.0,1.0,0.0,0,False
2021-09-12,1.0,1.0,0.0,0,False
2021-09-13,1.0,1.0,0.0,0,False
2021-09-14,1.0,1.0,0.0,0,False
2021-09-15,1.0,1.0,0.0,0,False
2021-09-16,1.0,1.0,0.0,0,False
2021-09-17,1.0,1.0,0.0,0,False
2021-09-18,1.0,1.0,0.0,0,False
2021-09-19,1.0,1.0,0.0,0,False
2021-09-20,1.0,1.0,0.0,0,False
2021-09-21,1.0,1.0,0.0,0,False
2021-09-22,1.0,1.0,0.0,0,False
2021-09-23,1.0,1.0,0.0,0,False
2021-09-24,1.0,1.0,0.0,0,False
2021-09-25,1.0,1.0,0.0,0,False
2021-09-26,1.0,1.0,0.0,0,False
2021-09-27,1.0,1.0,0.0,0,False
2021-09-28,1.0,1.0,0.0,0,False
2021-09-29,1.0,1.0,0.0,0,False
2021-09-30,1.0,1.0,0.0,0,False
2021-10-01,1.0,1.0,0.0,0,False
2021-10-02,1.0,1.0,0.0,0,False
2021-10-03,1.0,1.0,0.0,0,False
2021-10-04,1.0,1.0,0.0,0,False
2021-10-05,1.0,0.9993927768733932,-0.06072231266067707,1,True
2021-10-06,0.9993927768733932,1.0005452141135647,0.11531374519004878,3,True
2021-10-07,1.0005452141135647,0.9912154717564545,-0.9324658421734466,2,True
2021-10-08,0.9912154717564545,0.9906377900922689,-0.05828012986539566,1,True
2021-10-09,0.9906377900922689,0.9916553871670236,0.10272140684839393,3,True
2021-10-10,0.9916553871670236,0.9857376428130574,-0.5967541174633384,1,True
2021-10-11,0.9857376428130574,0.9857376428130574,0.0,0,False
2021-10-12,0.9857376428130574,0.9857376428130574,0.0,0,False
2021-10-13,0.9857376428130574,0.9999689074927608,1.4437172794873554,4,True
2021-10-14,0.9999689074927608,1.0130718241410466,1.3103324063484134,0,True
2021-10-15,1.0130718241410466,1.0134859358068007,0.040876831818437154,4,True
2021-10-16,1.0134859358068007,1.0267495660394281,1.3087137930600568,2,True
2021-10-17,1.0267495660394281,1.0267495660394281,0.0,0,False
2021-10-18,1.0267495660394281,1.0291170103731473,0.23057660913861078,1,True
2021-10-19,1.0291170103731473,1.0291170103731473,0.0,0,False
2021-10-20,1.0291170103731473,1.0291170103731473,0.0,0,False
2021-10-21,1.0291170103731473,1.0291170103731473,0.0,0,False
2021-10-22,1.0291170103731473,1.0291170103731473,0.0,0,False
2021-10-23,1.0291170103731473,1.0291170103731473,0.0,0,False
2021-10-24,1.0291170103731473,1.0291170103731473,0.0,0,False
2021-10-25,1.0291170103731473,1.04185945861897,1.2381923646566095,2,True
2021-10-26,1.04185945861897,1.0425039486555427,0.061859594520274896,0,True
2021-10-27,1.0425039486555427,1.036540253535484,-0.5720549190964541,7,True
2021-10-28,1.036540253535484,1.0330771575355644,-0.3341014483622229,3,True
2021-10-29,1.0330771575355644,1.0273737715584448,-0.5520774450889276,0,True
2021-10-30,1.0273737715584448,1.027568048517889,0.01891005638090526,2,True
2021-10-31,1.027568048517889,1.0214190175329478,-0.5984062071422214,1,True
2021-11-01,1.0214190175329478,1.0304737667518353,0.8864872362331466,2,True
2021-11-02,1.0304737667518353,1.0263954613005375,-0.3957699441639484,1,True
2021-11-03,1.0263954613005375,1.0255831382794098,-0.07914327876102911,1,True
2021-11-04,1.0255831382794098,1.0473482427174576,2.1222174610400213,1,True
2021-11-05,1.0473482427174576,1.0301357440597878,-1.6434360564744122,3,True
2021-11-06,1.0301357440597878,1.0229032190691274,-0.7020943630357768,2,True
2021-11-07,1.0229032190691274,1.0229032190691274,0.0,0,False
2021-11-08,1.0229032190691274,1.0229032190691274,0.0,0,False
2021-11-09,1.0229032190691274,1.0229032190691274,0.0,0,False
2021-11-10,1.0229032190691274,1.0229032190691274,0.0,0,False
2021-11-11,1.0229032190691274,1.0088057970026854,-1.37817750532363,12,True
2021-11-12,1.0088057970026854,1.0058564209553231,-0.29236311449887253,1,True
2021-11-13,1.0058564209553231,1.005028561568708,-0.08230393218834342,1,True
2021-11-14,1.005028561568708,1.005028561568708,0.0,0,False
2021-11-15,1.005028561568708,1.005028561568708,0.0,0,False
2021-11-16,1.005028561568708,1.022785718449705,1.7668310692862788,7,True
2021-11-17,1.022785718449705,1.010490683275101,-1.2021125200340266,0,True
2021-11-18,1.010490683275101,0.9995449364323657,-1.0832110601217027,4,True
2021-11-19,0.9995449364323657,1.0143186830766244,1.4780472698896263,5,True
2021-11-20,1.0143186830766244,1.013424260611752,-0.08817963030706144,0,True
2021-11-21,1.013424260611752,1.010949346670181,-0.24421301499897297,1,True
2021-11-22,1.010949346670181,0.9984768640717416,-1.2337396170758463,5,True
2021-11-23,0.9984768640717416,0.99610829505315,-0.23721821744899785,0,True
2021-11-24,0.99610829505315,0.9916482552278715,-0.44774647971790316,2,True
2021-11-25,0.9916482552278715,0.9854690802514693,-0.6231216506282555,5,True
2021-11-26,0.9854690802514693,0.9501305976282904,-3.585955493820392,11,True
2021-11-27,0.9501305976282904,0.9468099683587052,-0.3494918780506784,0,True
2021-11-28,0.9468099683587052,0.9400502038683082,-0.7139515548315489,7,True
2021-11-29,0.9400502038683082,0.9323347261828064,-0.8207516634486711,1,True
2021-11-30,0.9323347261828064,0.9234321436465943,-0.9548697786535665,3,True
2021-12-01,0.9234321436465943,0.9245323919532855,0.11914771586207795,3,True
2021-12-02,0.9245323919532855,0.9224254110420578,-0.22789692709157539,6,True
2021-12-03,0.9224254110420578,0.9168382046603999,-0.6057082030454963,2,True
2021-12-04,0.9168382046603999,0.8514868217755227,-7.127907907053633,22,True
2021-12-05,0.8514868217755227,0.8542453472713017,0.3239657297369414,3,True
2021-12-06,0.8542453472713017,0.8478749883356037,-0.7457294272713022,15,True
2021-12-07,0.8478749883356037,0.8720359456296236,2.8495895770493718,0,True
2021-12-08,0.8720359456296236,0.8745497947369044,0.2882735648546797,2,True
2021-12-09,0.8745497947369044,0.8701125810990735,-0.5073711828113558,2,True
2021-12-10,0.8701125810990735,0.8570524081699366,-1.5009750706788005,4,True
2021-12-11,0.8570524081699366,0.8507970523359202,-0.7298685324708898,2,True
2021-12-12,0.8507970523359202,0.8507970523359202,0.0,0,False
2021-12-13,0.8507970523359202,0.8453490587253153,-0.6403399724584258,2,True
2021-12-14,0.8453490587253153,0.8440100503220408,-0.1583971011091645,1,True
2021-12-15,0.8440100503220408,0.8440915094941329,0.009651445745340048,1,True
2021-12-16,0.8440915094941329,0.8440915094941329,0.0,0,False
2021-12-17,0.8440915094941329,0.840509516309028,-0.42436076477674334,5,True
2021-12-18,0.840509516309028,0.8400373462350496,-0.0561766481897763,1,True
2021-12-19,0.8400373462350496,0.8355851412936156,-0.5300008340567541,1,True
2021-12-20,0.8355851412936156,0.8355851412936156,0.0,0,False
2021-12-21,0.8355851412936156,0.8326499391357319,-0.3512750541901144,1,True
2021-12-22,0.8326499391357319,0.8321738781519941,-0.05717420507254101,0,True
2021-12-23,0.8321738781519941,0.8321738781519941,0.0,0,False
2021-12-24,0.8321738781519941,0.8321738781519941,0.0,0,False
2021-12-25,0.8321738781519941,0.8354324694916819,0.39157577824051604,2,True
2021-12-26,0.8354324694916819,0.834284691718577,-0.13738725929617335,0,True
2021-12-27,0.834284691718577,0.834284691718577,0.0,0,False
2021-12-28,0.834284691718577,0.8317033426850198,-0.30940865380615357,1,True
2021-12-29,0.8317033426850198,0.8317033426850198,0.0,0,False
2021-12-30,0.8317033426850198,0.8317033426850198,0.0,0,False
2021-12-31,0.8317033426850198,0.8317033426850198,0.0,0,False
2022-01-01,0.8317033426850198,0.8317033426850198,0.0,0,False
2022-01-02,0.8317033426850198,0.8317033426850198,0.0,0,False
2022-01-03,0.8317033426850198,0.8317033426850198,0.0,0,False
2022-01-04,0.8317033426850198,0.8317033426850198,0.0,0,False
2022-01-05,0.8317033426850198,0.831709935288647,0.0007926628749599374,1,True
2022-01-06,0.831709935288647,0.8092399702266632,-2.701658848668864,8,True
2022-01-07,0.8092399702266632,0.8011919243876588,-0.9945190716111219,5,True
2022-01-08,0.8011919243876588,0.8011919243876588,0.0,0,False
2022-01-09,0.8011919243876588,0.8017324989871764,0.06747129908113436,1,True
2022-01-10,0.8017324989871764,0.8009409877098185,-0.09872510823221159,0,True
2022-01-11,0.8009409877098185,0.8009409877098185,0.0,0,False
2022-01-12,0.8009409877098185,0.8009409877098185,0.0,0,False
2022-01-13,0.8009409877098185,0.8009409877098185,0.0,0,False
2022-01-14,0.8009409877098185,0.8009409877098185,0.0,0,False
2022-01-15,0.8009409877098185,0.8013073109302514,0.04573660557445347,1,True
2022-01-16,0.8013073109302514,0.8005398908894814,-0.09577100199911204,0,True
2022-01-17,0.8005398908894814,0.8027551949121534,0.27672625035719545,1,True
2022-01-18,0.8027551949121534,0.8027551949121534,0.0,0,False
2022-01-19,0.8027551949121534,0.8005948117435292,-0.2691210449109138,1,True
2022-01-20,0.8005948117435292,0.8005948117435292,0.0,0,False
2022-01-21,0.8005948117435292,0.7761622130030038,-3.051805780169403,8,True
2022-01-22,0.7761622130030038,0.7484926341245318,-3.5649221792719343,17,True
2022-01-23,0.7484926341245318,0.749916507198674,0.19023207567132605,0,True
2022-01-24,0.749916507198674,0.7397358997103153,-1.3575654610389232,5,True
2022-01-25,0.7397358997103153,0.746006958442376,0.8477429221045663,0,True
2022-01-26,0.746006958442376,0.7467149692588863,0.09490673089544988,1,True
2022-01-27,0.7467149692588863,0.740548087084325,-0.825868293584886,8,True
2022-01-28,0.740548087084325,0.7360169896166275,-0.611857291474105,0,True
2022-01-29,0.7360169896166275,0.7360169896166275,0.0,0,False
2022-01-30,0.7360169896166275,0.7426086841715376,0.8955899996742511,1,True
2022-01-31,0.7426086841715376,0.7412262767520837,-0.18615556872945138,0,True
2022-02-01,0.7412262767520837,0.7412262767520837,0.0,0,False
2022-02-02,0.7412262767520837,0.7418492611843899,0.08404780724124983,1,True
2022-02-03,0.7418492611843899,0.7419957851360128,0.019751175783211394,4,True
2022-02-04,0.7419957851360128,0.74632907236916,0.5840042922013122,0,True
2022-02-05,0.74632907236916,0.74632907236916,0.0,0,False
2022-02-06,0.74632907236916,0.74632907236916,0.0,0,False
2022-02-07,0.74632907236916,0.74632907236916,0.0,0,False
2022-02-08,0.74632907236916,0.7421413065355174,-0.561115195519446,3,True
2022-02-09,0.7421413065355174,0.7404617749199508,-0.22630887147448986,2,True
2022-02-10,0.7404617749199508,0.7455578403549041,0.6882280230473992,5,True
2022-02-11,0.7455578403549041,0.7402498192056162,-0.7119529648781153,0,True
2022-02-12,0.7402498192056162,0.7220214334903643,-2.462464055015001,5,True
2022-02-13,0.7220214334903643,0.7220214334903643,0.0,0,False
2022-02-14,0.7220214334903643,0.7220214334903643,0.0,0,False
2022-02-15,0.7220214334903643,0.7220214334903643,0.0,0,False
2022-02-16,0.7220214334903643,0.7220214334903643,0.0,0,False
2022-02-17,0.7220214334903643,0.7220214334903643,0.0,0,False
2022-02-18,0.7220214334903643,0.7220214334903643,0.0,0,False
2022-02-19,0.7220214334903643,0.7220214334903643,0.0,0,False
2022-02-20,0.7220214334903643,0.7220214334903643,0.0,0,False
2022-02-21,0.7220214334903643,0.7220214334903643,0.0,0,False
2022-02-22,0.7220214334903643,0.7167946481449167,-0.723909998098049,2,True
2022-02-23,0.7167946481449167,0.7167946481449167,0.0,0,False
2022-02-24,0.7167946481449167,0.7012389396819299,-2.170176424063075,9,True
2022-02-25,0.7012389396819299,0.7167242699598522,2.20828157160613,0,True
2022-02-26,0.7167242699598522,0.7167242699598522,0.0,0,False
2022-02-27,0.7167242699598522,0.7167242699598522,0.0,0,False
2022-02-28,0.7167242699598522,0.7135453779241595,-0.44353068103452076,2,True
2022-03-01,0.7135453779241595,0.7135453779241595,0.0,0,False
2022-03-02,0.7135453779241595,0.7135453779241595,0.0,0,False
2022-03-03,0.7135453779241595,0.7135453779241595,0.0,0,False
2022-03-04,0.7135453779241595,0.7181625455897147,0.647074146704929,3,True
2022-03-05,0.7181625455897147,0.7122581936249529,-0.8221470196435043,3,True
2022-03-06,0.7122581936249529,0.7073906845060228,-0.6833911020605377,4,True
2022-03-07,0.7073906845060228,0.7053907776527973,-0.28271602906703164,0,True
2022-03-08,0.7053907776527973,0.7018762182578605,-0.4982428897967184,1,True
2022-03-09,0.7018762182578605,0.7101434133431032,1.177870808297632,2,True
2022-03-10,0.7101434133431032,0.7066577405554356,-0.4908406840328561,3,True
2022-03-11,0.7066577405554356,0.7056594085154255,-0.14127518637599978,1,True
2022-03-12,0.7056594085154255,0.7056594085154255,0.0,0,False
2022-03-13,0.7056594085154255,0.7056594085154255,0.0,0,False
2022-03-14,0.7056594085154255,0.702685375153274,-0.4214545042924178,1,True
2022-03-15,0.702685375153274,0.7034337591809628,0.1065034301483303,1,True
2022-03-16,0.7034337591809628,0.7046292365681515,0.16994882198724248,1,True
2022-03-17,0.7046292365681515,0.7013884586918219,-0.4599266831608606,1,True
2022-03-18,0.7013884586918219,0.7005052837998389,-0.12591808163342488,0,True
2022-03-19,0.7005052837998389,0.7005052837998389,0.0,0,False
2022-03-20,0.7005052837998389,0.69751343209719,-0.427099091447225,1,True
2022-03-21,0.69751343209719,0.6982651216832506,0.10776704095869505,4,True
2022-03-22,0.6982651216832506,0.6976442690632331,-0.08891359467030346,0,True
2022-03-23,0.6976442690632331,0.6969910381264184,-0.09363381393382442,2,True
2022-03-24,0.6969910381264184,0.6964758589422307,-0.07391475011967463,0,True
2022-03-25,0.6964758589422307,0.6964758589422307,0.0,0,False
2022-03-26,0.6964758589422307,0.6976565040061012,0.16951701178322676,1,True
2022-03-27,0.6976565040061012,0.6963488901247858,-0.1874294690591638,1,True
2022-03-28,0.6963488901247858,0.6953948190216743,-0.13701050100626277,1,True
2022-03-29,0.6953948190216743,0.6990947499470226,0.5320619055737996,1,True
2022-03-30,0.6990947499470226,0.6973547080613222,-0.2488992923823652,6,True
2022-03-31,0.6973547080613222,0.6990813767427373,0.24760264202063897,6,True
2022-04-01,0.6990813767427373,0.7087018570351096,1.3761602886916302,7,True
2022-04-02,0.7087018570351096,0.7115670717135519,0.4042905560356802,2,True
2022-04-03,0.7115670717135519,0.7070457699662926,-0.6354006427491621,2,True
2022-04-04,0.7070457699662926,0.7035143022963398,-0.49946804294171976,1,True
2022-04-05,0.7035143022963398,0.7008039865644158,-0.3852538211486678,6,True
2022-04-06,0.7008039865644158,0.680564253050374,-2.8880733988492224,15,True
2022-04-07,0.680564253050374,0.6799612190798467,-0.08860794081152479,2,True
2022-04-08,0.6799612190798467,0.6838493414593685,0.5718153139355975,0,True
2022-04-09,0.6838493414593685,0.6838493414593685,0.0,0,False
2022-04-10,0.6838493414593685,0.6838493414593685,0.0,0,False
2022-04-11,0.6838493414593685,0.6759268777481474,-1.1585101031630907,6,True
2022-04-12,0.6759268777481474,0.6735177469379061,-0.356418850847795,0,True
2022-04-13,0.6735177469379061,0.6740389163799817,0.07738020927363642,1,True
2022-04-14,0.6740389163799817,0.6740389163799817,0.0,0,False
2022-04-15,0.6740389163799817,0.6752487576060198,0.179491301857726,1,True
2022-04-16,0.6752487576060198,0.6752487576060198,0.0,0,False
2022-04-17,0.6752487576060198,0.6763192495238363,0.15853297111003695,1,True
2022-04-18,0.6763192495238363,0.6743266950557083,-0.29461744132387446,8,True
2022-04-19,0.6743266950557083,0.6818558438565497,1.1165431913116475,1,True
2022-04-20,0.6818558438565497,0.6818558438565497,0.0,0,False
2022-04-21,0.6818558438565497,0.681693037251161,-0.023876983215087577,3,True
2022-04-22,0.681693037251161,0.6786702473386979,-0.4434239088977887,1,True
2022-04-23,0.6786702473386979,0.672294324531167,-0.9394728636673011,2,True
2022-04-24,0.672294324531167,0.672294324531167,0.0,0,False
2022-04-25,0.672294324531167,0.6701186539679419,-0.3236187609857222,3,True
2022-04-26,0.6701186539679419,0.6660547887581264,-0.6064396485237822,2,True
2022-04-27,0.6660547887581264,0.6635073012836233,-0.38247416241130594,0,True
2022-04-28,0.6635073012836233,0.6649748026742244,0.2211733597749399,1,True
2022-04-29,0.6649748026742244,0.6594806242309146,-0.826223553315808,2,True
2022-04-30,0.6594806242309146,0.6559967099099352,-0.5282815283682241,2,True
2022-05-01,0.6559967099099352,0.6609058178105637,0.7483433722255128,7,True
2022-05-02,0.6609058178105637,0.6615608410622578,0.09910992368988847,1,True
2022-05-03,0.6615608410622578,0.6619728839668844,0.062283448331834634,3,True
2022-05-04,0.6619728839668844,0.6579769425403122,-0.6036412553073744,1,True
2022-05-05,0.6579769425403122,0.6579769425403122,0.0,0,False
2022-05-06,0.6579769425403122,0.641702776948124,-2.4733641165839426,8,True
2022-05-07,0.641702776948124,0.6358284429602972,-0.91542910500787,2,True
2022-05-08,0.6358284429602972,0.6297227357398207,-0.9602758870064676,3,True
2022-05-09,0.6297227357398207,0.6221646110150606,-1.2002305611342745,5,True
2022-05-10,0.6221646110150606,0.6177363113643101,-0.7117569164735604,17,True
2022-05-11,0.6177363113643101,0.6001905710222393,-2.8403284733772405,29,True
2022-05-12,0.6001905710222393,0.5876834944249734,-2.0838508968849645,1,True
2022-05-13,0.5876834944249734,0.6245176410273494,6.267684383141803,6,True
2022-05-14,0.6245176410273494,0.5967441403812913,-4.447192332368688,11,True
2022-05-15,0.5967441403812913,0.6037235541101593,1.169582281010495,2,True
2022-05-16,0.6037235541101593,0.6055870726129728,0.30867082957533043,11,True
2022-05-17,0.6055870726129728,0.6036310888794425,-0.32298967761823505,4,True
2022-05-18,0.6036310888794425,0.593322473714114,-1.707767435316343,2,True
2022-05-19,0.593322473714114,0.5917385482965528,-0.2669586081319286,7,True
2022-05-20,0.5917385482965528,0.5887839112016048,-0.4993146218804867,1,True
2022-05-21,0.5887839112016048,0.5887839112016048,0.0,0,False
2022-05-22,0.5887839112016048,0.5887839112016048,0.0,0,False
2022-05-23,0.5887839112016048,0.5896000920986599,0.13862146732057656,4,True
2022-05-24,0.5896000920986599,0.572985473173635,-2.8179471386929,14,True
2022-05-25,0.572985473173635,0.5723347238381411,-0.1135716987534674,1,True
2022-05-26,0.5723347238381411,0.5623577810026203,-1.7432006865867322,13,True
2022-05-27,0.5623577810026203,0.5547766984855461,-1.3480888454247109,4,True
2022-05-28,0.5547766984855461,0.5543347533468945,-0.07966180624709995,0,True
2022-05-29,0.5543347533468945,0.557360079329724,0.5457579494273945,4,True
2022-05-30,0.557360079329724,0.5558797551625106,-0.26559565747757974,0,True
2022-05-31,0.5558797551625106,0.5538296327467047,-0.3688068142014944,6,True
2022-06-01,0.5538296327467047,0.5508228340352348,-0.5429104066818846,2,True
2022-06-02,0.5508228340352348,0.5448406780984119,-1.0860399328398662,7,True
2022-06-03,0.5448406780984119,0.5486523737623201,0.6995982159797132,0,True
2022-06-04,0.5486523737623201,0.5486523737623201,0.0,0,False
2022-06-05,0.5486523737623201,0.5486523737623201,0.0,0,False
2022-06-06,0.5486523737623201,0.5500622323479963,0.2569675541560734,1,True
2022-06-07,0.5500622323479963,0.545822462965553,-0.7707799469062637,5,True
2022-06-08,0.545822462965553,0.5451472668088374,-0.12370252280332616,5,True
2022-06-09,0.5451472668088374,0.5460078777386845,0.15786760426865776,5,True
2022-06-10,0.5460078777386845,0.5470903979056558,0.19826090631780424,5,True
2022-06-11,0.5470903979056558,0.5427983375422004,-0.7845248938541216,8,True
2022-06-12,0.5427983375422004,0.5285149367429849,-2.631437830832528,15,True
2022-06-13,0.5285149367429849,0.5157867927813303,-2.4082846248571044,7,True
2022-06-14,0.5157867927813303,0.5149532514449136,-0.1616057929521575,10,True
2022-06-15,0.5149532514449136,0.5113279965355015,-0.7039968966580656,8,True
2022-06-16,0.5113279965355015,0.5111846402984036,-0.0280360625800391,7,True
2022-06-17,0.5111846402984036,0.5098094961911444,-0.26901123368192614,1,True
2022-06-18,0.5098094961911444,0.5050443890034896,-0.9346838815784242,6,True
2022-06-19,0.5050443890034896,0.5049086918678272,-0.026868358230880407,3,True
2022-06-20,0.5049086918678272,0.5076669906013388,0.5462965438974177,1,True
2022-06-21,0.5076669906013388,0.5066208080025861,-0.2060765458698488,0,True
2022-06-22,0.5066208080025861,0.5069491679406007,0.06481374882907343,5,True
2022-06-23,0.5069491679406007,0.5022408770775467,-0.9287500918841007,1,True
2022-06-24,0.5022408770775467,0.4986043380191594,-0.7240627404817679,2,True
2022-06-25,0.4986043380191594,0.49863570361737075,0.006290678965203966,4,True
2022-06-26,0.49863570361737075,0.49830732219609436,-0.0658559784014967,0,True
2022-06-27,0.49830732219609436,0.49571192347421367,-0.520842983089731,5,True
2022-06-28,0.49571192347421367,0.4931371620537294,-0.5194067962777549,4,True
2022-06-29,0.4931371620537294,0.49195328270579936,-0.24007100641121326,5,True
2022-06-30,0.49195328270579936,0.4864012838611215,-1.1285622110581706,3,True
2022-07-01,0.4864012838611215,0.4866487533578191,0.05087764052207344,1,True
2022-07-02,0.4866487533578191,0.48833463733181426,0.34642726655780276,1,True
2022-07-03,0.48833463733181426,0.48936785249106435,0.21157933111102256,1,True
2022-07-04,0.48936785249106435,0.489709133576422,0.06973917138619612,0,True
2022-07-05,0.489709133576422,0.4898996357549522,0.0389010874963569,1,True
2022-07-06,0.4898996357549522,0.49157423233473835,0.34182441822099285,0,True
2022-07-07,0.49157423233473835,0.49157423233473835,0.0,0,False
2022-07-08,0.49157423233473835,0.49157423233473835,0.0,0,False
2022-07-09,0.49157423233473835,0.49157423233473835,0.0,0,False
2022-07-10,0.49157423233473835,0.49157423233473835,0.0,0,False
2022-07-11,0.49157423233473835,0.4891225718487818,-0.49873657419193806,1,True
2022-07-12,0.4891225718487818,0.49020619118057185,0.22154351366248104,2,True
2022-07-13,0.49020619118057185,0.4955864856165031,1.0975574223111684,5,True
2022-07-14,0.4955864856165031,0.5039470607845308,1.6870062866277014,0,True
2022-07-15,0.5039470607845308,0.5039470607845308,0.0,0,False
2022-07-16,0.5039470607845308,0.5039470607845308,0.0,0,False
2022-07-17,0.5039470607845308,0.5039470607845308,0.0,0,False
2022-07-18,0.5039470607845308,0.50469066253661,0.14755552913070513,1,True
2022-07-19,0.50469066253661,0.504054562736684,-0.12603756065723282,0,True
2022-07-20,0.504054562736684,0.5048599293751542,0.15977767051598146,2,True
2022-07-21,0.5048599293751542,0.4992198900009122,-1.117149341050394,7,True
2022-07-22,0.4992198900009122,0.4992198900009122,0.0,0,False
2022-07-23,0.4992198900009122,0.5016239667462499,0.4815666990618528,2,True
2022-07-24,0.5016239667462499,0.5021606466778266,0.10698849479977568,3,True
2022-07-25,0.5021606466778266,0.5026161166015388,0.0907020346428089,1,True
2022-07-26,0.5026161166015388,0.5015747322545024,-0.2071927884202629,1,True
2022-07-27,0.5015747322545024,0.5019218055980517,0.06919673604552923,1,True
2022-07-28,0.5019218055980517,0.5019218055980517,0.0,0,False
2022-07-29,0.5019218055980517,0.5037632014040917,0.36686905918461576,2,True
2022-07-30,0.5037632014040917,0.503735668543571,-0.00546543702357738,1,True
2022-07-31,0.503735668543571,0.5030319274231302,-0.1397044450863527,1,True
2022-08-01,0.5030319274231302,0.5032333999206043,0.040051632210746924,1,True
2022-08-02,0.5032333999206043,0.49985357619873316,-0.6716215025482031,5,True
2022-08-03,0.49985357619873316,0.5010793571526729,0.24522800522135402,1,True
2022-08-04,0.5010793571526729,0.4999599345714158,-0.22340225460856233,0,True
2022-08-05,0.4999599345714158,0.5025054616232968,0.50914620869833,2,True
2022-08-06,0.5025054616232968,0.5025054616232968,0.0,0,False
2022-08-07,0.5025054616232968,0.5021644639954601,-0.06785948688698973,2,True
2022-08-08,0.5021644639954601,0.5015759223470978,-0.11720097509082539,0,True
2022-08-09,0.5015759223470978,0.5009848742292948,-0.1178382158053326,6,True
2022-08-10,0.5009848742292948,0.5024677387016447,0.2959898688819962,2,True
2022-08-11,0.5024677387016447,0.5032593194977962,0.1575386308774629,1,True
2022-08-12,0.5032593194977962,0.5018848787508405,-0.2731078578589008,4,True
2022-08-13,0.5018848787508405,0.5007128614013732,-0.2335231442685548,0,True
2022-08-14,0.5007128614013732,0.5007128614013732,0.0,0,False
2022-08-15,0.5007128614013732,0.5007128614013732,0.0,0,False
2022-08-16,0.5007128614013732,0.49781202217132947,-0.5793418651010795,2,True
2022-08-17,0.49781202217132947,0.4957924206946094,-0.40569560130571114,1,True
2022-08-18,0.4957924206946094,0.49372106108075586,-0.4177876722987306,1,True
2022-08-19,0.49372106108075586,0.48261662558754326,-2.249131416209993,11,True
2022-08-20,0.48261662558754326,0.4826471237542197,0.006319336106441753,1,True
2022-08-21,0.4826471237542197,0.4826471237542197,0.0,0,False
2022-08-22,0.4826471237542197,0.4826471237542197,0.0,0,False
2022-08-23,0.4826471237542197,0.4826471237542197,0.0,0,False
2022-08-24,0.4826471237542197,0.4826471237542197,0.0,0,False
2022-08-25,0.4826471237542197,0.48146916794604033,-0.24406149963491774,1,True
2022-08-26,0.48146916794604033,0.48118318422546824,-0.059398137951827135,1,True
2022-08-27,0.48118318422546824,0.47499246980004733,-1.286560841768758,6,True
2022-08-28,0.47499246980004733,0.474681887867751,-0.06538670653601919,0,True
2022-08-29,0.474681887867751,0.47584587953233004,0.24521509969710475,2,True
2022-08-30,0.47584587953233004,0.4766031026859691,0.1591320186240308,1,True
2022-08-31,0.4766031026859691,0.47514434685627915,-0.30607350675413425,2,True
2022-09-01,0.47514434685627915,0.47193715961273913,-0.6749921923221658,1,True
2022-09-02,0.47193715961273913,0.47193715961273913,0.0,0,False
2022-09-03,0.47193715961273913,0.47193715961273913,0.0,0,False
2022-09-04,0.47193715961273913,0.47193715961273913,0.0,0,False
2022-09-05,0.47193715961273913,0.47193715961273913,0.0,0,False
2022-09-06,0.47193715961273913,0.4702050462496698,-0.367022034139175,1,True
2022-09-07,0.4702050462496698,0.4648937754131941,-1.1295648310961637,5,True
2022-09-08,0.4648937754131941,0.4648937754131941,0.0,0,False
2022-09-09,0.4648937754131941,0.4648937754131941,0.0,0,False
2022-09-10,0.4648937754131941,0.4657251304040123,0.17882687073607073,1,True
2022-09-11,0.4657251304040123,0.46826492937804787,0.5453429089884665,0,True
2022-09-12,0.46826492937804787,0.46826492937804787,0.0,0,False
2022-09-13,0.46826492937804787,0.46272857506791054,-1.1823123968499494,4,True
2022-09-14,0.46272857506791054,0.4651475670746634,0.522766938782171,3,True
2022-09-15,0.4651475670746634,0.46307292235064185,-0.44601861234471185,3,True
2022-09-16,0.46307292235064185,0.4604307310810402,-0.570577795002436,3,True
2022-09-17,0.4604307310810402,0.45990928545056514,-0.11325170004417018,1,True
2022-09-18,0.45990928545056514,0.45979500505652277,-0.0248484641771074,0,True
2022-09-19,0.45979500505652277,0.45984600668509773,0.011092253724820367,11,True
2022-09-20,0.45984600668509773,0.4590745625367411,-0.16776141080744322,0,True
2022-09-21,0.4590745625367411,0.4590745625367411,0.0,0,False
2022-09-22,0.4590745625367411,0.46002894544745043,0.20789278879571604,2,True
2022-09-23,0.46002894544745043,0.4572241758252912,-0.6096941616208884,2,True
2022-09-24,0.4572241758252912,0.4572241758252912,0.0,0,False
2022-09-25,0.4572241758252912,0.4572241758252912,0.0,0,False
2022-09-26,0.4572241758252912,0.4572241758252912,0.0,0,False
2022-09-27,0.4572241758252912,0.4572241758252912,0.0,0,False
2022-09-28,0.4572241758252912,0.4572241758252912,0.0,0,False
2022-09-29,0.4572241758252912,0.4572241758252912,0.0,0,False
2022-09-30,0.4572241758252912,0.4561110962460541,-0.24344285321920012,1,True
2022-10-01,0.4561110962460541,0.45614621903660013,0.007700490261064452,0,True
2022-10-02,0.45614621903660013,0.45614621903660013,0.0,0,False
2022-10-03,0.45614621903660013,0.45614621903660013,0.0,0,False
2022-10-04,0.45614621903660013,0.45614621903660013,0.0,0,False
2022-10-05,0.45614621903660013,0.45614621903660013,0.0,0,False
2022-10-06,0.45614621903660013,0.45614621903660013,0.0,0,False
2022-10-07,0.45614621903660013,0.45614621903660013,0.0,0,False
2022-10-08,0.45614621903660013,0.4548663712857884,-0.28057839732067436,1,True
2022-10-09,0.4548663712857884,0.4548663712857884,0.0,0,False
2022-10-10,0.4548663712857884,0.4548663712857884,0.0,0,False
2022-10-11,0.4548663712857884,0.4640671994972391,2.0227541080784617,6,True
2022-10-12,0.4640671994972391,0.4628737280265725,-0.2571764330596138,2,True
2022-10-13,0.4628737280265725,0.46090923619744667,-0.4244120394348849,1,True
2022-10-14,0.46090923619744667,0.46090923619744667,0.0,0,False
2022-10-15,0.46090923619744667,0.46090923619744667,0.0,0,False
2022-10-16,0.46090923619744667,0.46090923619744667,0.0,0,False
2022-10-17,0.46090923619744667,0.46090923619744667,0.0,0,False
2022-10-18,0.46090923619744667,0.46090923619744667,0.0,0,False
2022-10-19,0.46090923619744667,0.46090923619744667,0.0,0,False
2022-10-20,0.46090923619744667,0.4635894906730813,0.5815145944453315,2,True
2022-10-21,0.4635894906730813,0.46294296979440097,-0.1394597788965557,0,True
2022-10-22,0.46294296979440097,0.46294296979440097,0.0,0,False
2022-10-23,0.46294296979440097,0.46294296979440097,0.0,0,False
2022-10-24,0.46294296979440097,0.46294296979440097,0.0,0,False
2022-10-25,0.46294296979440097,0.46151386070889705,-0.3087008937923019,2,True
2022-10-26,0.46151386070889705,0.4608151630644151,-0.15139255913326766,0,True
2022-10-27,0.4608151630644151,0.4608151630644151,0.0,0,False
2022-10-28,0.4608151630644151,0.458942667289673,-0.4063442188599109,1,True
2022-10-29,0.458942667289673,0.458942667289673,0.0,0,False
2022-10-30,0.458942667289673,0.45664479016000875,-0.5006893656749223,2,True
2022-10-31,0.45664479016000875,0.45582918095969605,-0.17860911103944055,1,True
2022-11-01,0.45582918095969605,0.45582918095969605,0.0,0,False
2022-11-02,0.45582918095969605,0.4593438669443298,0.7710533093195249,3,True
2022-11-03,0.4593438669443298,0.4579370771181295,-0.30626071826291845,3,True
2022-11-04,0.4579370771181295,0.4678410539499099,2.1627374865795357,5,True
2022-11-05,0.4678410539499099,0.4671803700182445,-0.14121974249317049,2,True
2022-11-06,0.4671803700182445,0.4657032837757126,-0.3161704423655931,2,True
2022-11-07,0.4657032837757126,0.4587659577392874,-1.489645076191104,8,True
2022-11-08,0.4587659577392874,0.44425491772625875,-3.163059457274542,13,True
2022-11-09,0.44425491772625875,0.414388997240441,-6.722698904195489,19,True
2022-11-10,0.414388997240441,0.41632070102708435,0.4661571131249209,12,True
2022-11-11,0.41632070102708435,0.4144743180334874,-0.44350016442656903,18,True
2022-11-12,0.4144743180334874,0.4086555081896419,-1.4039011805251023,6,True
2022-11-13,0.4086555081896419,0.4074806290308352,-0.2874986719282102,1,True
2022-11-14,0.4074806290308352,0.4137357476077325,1.5350713951175265,7,True
2022-11-15,0.4137357476077325,0.41002922516383067,-0.8958671000350749,1,True
2022-11-16,0.41002922516383067,0.40866765555757495,-0.33206647787403787,2,True
2022-11-17,0.40866765555757495,0.4095348075204715,0.2121900157998624,1,True
2022-11-18,0.4095348075204715,0.4102917715261291,0.1848350840409907,0,True
2022-11-19,0.4102917715261291,0.41040270178240457,0.027036919571377105,3,True
2022-11-20,0.41040270178240457,0.4079050258528373,-0.6085914928726677,3,True
2022-11-21,0.4079050258528373,0.3988495411654582,-2.2199983117261457,8,True
2022-11-22,0.3988495411654582,0.3933582695169969,-1.3767777273644421,4,True
2022-11-23,0.3933582695169969,0.39779384172425114,1.127616361720496,1,True
2022-11-24,0.39779384172425114,0.3954515946462148,-0.5888092857053162,2,True
2022-11-25,0.3954515946462148,0.39458031546632494,-0.2203251148018115,2,True
2022-11-26,0.39458031546632494,0.39458031546632494,0.0,0,False
2022-11-27,0.39458031546632494,0.39458031546632494,0.0,0,False
2022-11-28,0.39458031546632494,0.38899053667913935,-1.4166390385134786,4,True
2022-11-29,0.38899053667913935,0.38899053667913935,0.0,0,False
2022-11-30,0.38899053667913935,0.38899053667913935,0.0,0,False
2022-12-01,0.38899053667913935,0.3890682039390156,0.019966362302614726,2,True
2022-12-02,0.3890682039390156,0.38968091176518266,0.15748082725954848,1,True
2022-12-03,0.38968091176518266,0.38958734016975577,-0.024012363090364364,0,True
2022-12-04,0.38958734016975577,0.38958734016975577,0.0,0,False
2022-12-05,0.38958734016975577,0.38958734016975577,0.0,0,False
2022-12-06,0.38958734016975577,0.39009287246855034,0.12976096671271087,2,True
2022-12-07,0.39009287246855034,0.3893807055125377,-0.18256343713896062,1,True
2022-12-08,0.3893807055125377,0.38634551335839545,-0.7794921810897248,2,True
2022-12-09,0.38634551335839545,0.3870401746187089,0.17980311309298003,0,True
2022-12-10,0.3870401746187089,0.3870401746187089,0.0,0,False
2022-12-11,0.3870401746187089,0.3870401746187089,0.0,0,False
2022-12-12,0.3870401746187089,0.38635218694418805,-0.17775613996624529,1,True
2022-12-13,0.38635218694418805,0.38661561907178277,0.06818445358840464,1,True
2022-12-14,0.38661561907178277,0.38661561907178277,0.0,0,False
2022-12-15,0.38661561907178277,0.38661561907178277,0.0,0,False
2022-12-16,0.38661561907178277,0.3850312161367449,-0.4098134831804878,5,True
2022-12-17,0.3850312161367449,0.3847746044385819,-0.06664698533738189,5,True
2022-12-18,0.3847746044385819,0.3847746044385819,0.0,0,False
2022-12-19,0.3847746044385819,0.3828559620882101,-0.49864058808436473,1,True
2022-12-20,0.3828559620882101,0.3828559620882101,0.0,0,False
2022-12-21,0.3828559620882101,0.3828559620882101,0.0,0,False
2022-12-22,0.3828559620882101,0.3828559620882101,0.0,0,False
2022-12-23,0.3828559620882101,0.3828559620882101,0.0,0,False
2022-12-24,0.3828559620882101,0.3828559620882101,0.0,0,False
2022-12-25,0.3828559620882101,0.3828559620882101,0.0,0,False
2022-12-26,0.3828559620882101,0.3828559620882101,0.0,0,False
2022-12-27,0.3828559620882101,0.3828559620882101,0.0,0,False
2022-12-28,0.3828559620882101,0.38403938864267173,0.30910490410203106,4,True
2022-12-29,0.38403938864267173,0.3812605315099053,-0.7235864900701716,0,True
2022-12-30,0.3812605315099053,0.3856491244549188,1.151074549372666,1,True
2022-12-31,0.3856491244549188,0.3868651207333603,0.31531156207349476,0,True
2023-01-01,0.3868651207333603,0.3868651207333603,0.0,0,False
2023-01-02,0.3868651207333603,0.38695228060021,0.02252978161598751,1,True
2023-01-03,0.38695228060021,0.38698594633555006,0.008700229208580268,0,True
2023-01-04,0.38698594633555006,0.38698594633555006,0.0,0,False
2023-01-05,0.38698594633555006,0.38698594633555006,0.0,0,False
2023-01-06,0.38698594633555006,0.3865110102273109,-0.12272696534240124,1,True
2023-01-07,0.3865110102273109,0.3877080941239153,0.3097153418476717,0,True
2023-01-08,0.3877080941239153,0.3877080941239153,0.0,0,False
2023-01-09,0.3877080941239153,0.3872623013812209,-0.11498154138405159,1,True
2023-01-10,0.3872623013812209,0.38631121994209994,-0.24559102079619866,2,True
2023-01-11,0.38631121994209994,0.3829390878294355,-0.8729055586762069,3,True
2023-01-12,0.3829390878294355,0.3829390878294355,0.0,0,False
2023-01-13,0.3829390878294355,0.3828322074504153,-0.027910543064690874,1,True
2023-01-14,0.3828322074504153,0.3844584547270749,0.4247937464535889,4,True
2023-01-15,0.3844584547270749,0.3861392269577018,0.4371791568012373,4,True
2023-01-16,0.3861392269577018,0.38376086627627315,-0.6159334549269202,1,True
2023-01-17,0.38376086627627315,0.38293006966964976,-0.21648809965559845,0,True
2023-01-18,0.38293006966964976,0.38293006966964976,0.0,0,False
2023-01-19,0.38293006966964976,0.3759904469138574,-1.8122428363432252,8,True
2023-01-20,0.3759904469138574,0.3759904469138574,0.0,0,False
2023-01-21,0.3759904469138574,0.3754742199256981,-0.13729790009200382,3,True
2023-01-22,0.3754742199256981,0.37791896671583586,0.6511090936207387,1,True
2023-01-23,0.37791896671583586,0.3780093200368964,0.023908120263382848,1,True
2023-01-24,0.3780093200368964,0.39002945950365087,3.179852672833894,4,True
2023-01-25,0.39002945950365087,0.3866698557328884,-0.861371798693833,8,True
2023-01-26,0.3866698557328884,0.3864853482257332,-0.04771706519648422,0,True
2023-01-27,0.3864853482257332,0.3858187492675603,-0.17247716148440784,2,True
2023-01-28,0.3858187492675603,0.38521596093751387,-0.15623614227945337,0,True
2023-01-29,0.38521596093751387,0.38400083844759497,-0.3154392894213487,1,True
2023-01-30,0.38400083844759497,0.38197389382095287,-0.5278490106522815,5,True
2023-01-31,0.38197389382095287,0.3860563636101031,1.0687824103140953,6,True
2023-02-01,0.3860563636101031,0.3829218245956884,-0.8119381805037129,2,True
2023-02-02,0.3829218245956884,0.3829218245956884,0.0,0,False
2023-02-03,0.3829218245956884,0.3863492893009883,0.8950820990469177,2,True
2023-02-04,0.3863492893009883,0.38574821902505924,-0.15557690736704988,0,True
2023-02-05,0.38574821902505924,0.3868405930854697,0.2831831766252346,5,True
2023-02-06,0.3868405930854697,0.3794447391595967,-1.9118608693268535,3,True
2023-02-07,0.3794447391595967,0.3782383059347118,-0.31794701583079954,0,True
2023-02-08,0.3782383059347118,0.3754538791083632,-0.7361567516192324,3,True
2023-02-09,0.3754538791083632,0.37441942759478664,-0.27552026257744444,8,True
2023-02-10,0.37441942759478664,0.37126580344307736,-0.8422704377194501,9,True
2023-02-11,0.37126580344307736,0.38021696653177334,2.4109850693718293,2,True
2023-02-12,0.38021696653177334,0.3844994065149574,1.1263148044778681,1,True
2023-02-13,0.3844994065149574,0.3861898576048535,0.4396498567366125,3,True
2023-02-14,0.3861898576048535,0.3860337731124063,-0.04041651777580979,1,True
2023-02-15,0.3860337731124063,0.3861265710596038,0.024038815684268577,0,True
2023-02-16,0.3861265710596038,0.3861265710596038,0.0,0,False
2023-02-17,0.3861265710596038,0.38871073847544907,0.6692539725390745,1,True
2023-02-18,0.38871073847544907,0.389159290127537,0.11539471583605909,1,True
2023-02-19,0.389159290127537,0.3894921342680491,0.08552902345027036,1,True
2023-02-20,0.3894921342680491,0.39152073131607973,0.5208313261172437,3,True
2023-02-21,0.39152073131607973,0.3963346916629849,1.2295543918513063,5,True
2023-02-22,0.3963346916629849,0.3966709077189406,0.08483134659369451,1,True
2023-02-23,0.3966709077189406,0.4009279286436244,1.0731870782165087,1,True
2023-02-24,0.4009279286436244,0.4009279286436244,0.0,0,False
2023-02-25,0.4009279286436244,0.3984465993163124,-0.6188966021166475,2,True
2023-02-26,0.3984465993163124,0.3984465993163124,0.0,0,False
2023-02-27,0.3984465993163124,0.3964564449590905,-0.49947831419235866,1,True
2023-02-28,0.3964564449590905,0.3956243666472185,-0.20987887129892968,1,True
2023-03-01,0.3956243666472185,0.3940491744863745,-0.3981534742647952,1,True
2023-03-02,0.3940491744863745,0.39329075254646173,-0.19246885643177114,1,True
2023-03-03,0.39329075254646173,0.3895884236091442,-0.9413719781982799,9,True
2023-03-04,0.3895884236091442,0.3894381085504233,-0.038583040360484766,0,True
2023-03-05,0.3894381085504233,0.39161454746887386,0.5588664464686754,4,True
2023-03-06,0.39161454746887386,0.3920013375504764,0.09876805754598372,0,True
2023-03-07,0.3920013375504764,0.3920013375504764,0.0,0,False
2023-03-08,0.3920013375504764,0.3920013375504764,0.0,0,False
2023-03-09,0.3920013375504764,0.3920013375504764,0.0,0,False
2023-03-10,0.3920013375504764,0.3843125515110643,-1.9614183174622601,10,True
2023-03-11,0.3843125515110643,0.3842003757419043,-0.02918868215959769,7,True
2023-03-12,0.3842003757419043,0.38644237398214043,0.583549205517242,0,True
2023-03-13,0.38644237398214043,0.38644237398214043,0.0,0,False
2023-03-14,0.38644237398214043,0.3856584346505442,-0.20286060338519096,1,True
2023-03-15,0.3856584346505442,0.384554530441,-0.2862388347721456,4,True
2023-03-16,0.384554530441,0.3818959707705057,-0.6913348979260658,5,True
2023-03-17,0.3818959707705057,0.37992459188858024,-0.5162083480346857,2,True
2023-03-18,0.37992459188858024,0.38756847578272974,2.0119476489142807,2,True
2023-03-19,0.38756847578272974,0.3832685654506566,-1.109458224998594,3,True
2023-03-20,0.3832685654506566,0.38478816401318,0.396484006126796,4,True
2023-03-21,0.38478816401318,0.38046466413972463,-1.1236052139346198,1,True
2023-03-22,0.38046466413972463,0.38046466413972463,0.0,0,False
2023-03-23,0.38046466413972463,0.38598713311243626,1.451506406041303,7,True
2023-03-24,0.38598713311243626,0.382196595108368,-0.9820373994083642,1,True
2023-03-25,0.382196595108368,0.38031685641188984,-0.49182507655390895,1,True
2023-03-26,0.38031685641188984,0.38031685641188984,0.0,0,False
2023-03-27,0.38031685641188984,0.3784206832980973,-0.4985771947323192,1,True
2023-03-28,0.3784206832980973,0.38361600145357394,1.3728948719708534,4,True
2023-03-29,0.38361600145357394,0.38361600145357394,0.0,0,False
2023-03-30,0.38361600145357394,0.38253326008421196,-0.2822461433462986,1,True
2023-03-31,0.38253326008421196,0.38253326008421196,0.0,0,False
2023-04-01,0.38253326008421196,0.3822081174556773,-0.08499721787932346,1,True
2023-04-02,0.3822081174556773,0.38188572667007575,-0.08434953913267762,0,True
2023-04-03,0.38188572667007575,0.38188572667007575,0.0,0,False
2023-04-04,0.38188572667007575,0.3817238692833179,-0.04238372252589606,1,True
2023-04-05,0.3817238692833179,0.38079976389012016,-0.24208740075195578,1,True
2023-04-06,0.38079976389012016,0.3773677661204897,-0.9012604773097288,2,True
2023-04-07,0.3773677661204897,0.37648829224137065,-0.23305484942724997,1,True
2023-04-08,0.37648829224137065,0.3772223022816671,0.1949622486071556,1,True
2023-04-09,0.3772223022816671,0.37730688959441766,0.022423730579812506,0,True
2023-04-10,0.37730688959441766,0.37730688959441766,0.0,0,False
2023-04-11,0.37730688959441766,0.37730688959441766,0.0,0,False
2023-04-12,0.37730688959441766,0.3791003265744606,0.4753257969847269,1,True
2023-04-13,0.3791003265744606,0.3792736518626353,0.04572016324566608,0,True
2023-04-14,0.3792736518626353,0.3818946976686249,0.691069836546121,1,True
2023-04-15,0.3818946976686249,0.38019102095155854,-0.44611164477194043,1,True
2023-04-16,0.38019102095155854,0.38019102095155854,0.0,0,False
2023-04-17,0.38019102095155854,0.3800778744604636,-0.029760432219505528,1,True
2023-04-18,0.3800778744604636,0.3800778744604636,0.0,0,False
2023-04-19,0.3800778744604636,0.3744643348251989,-1.4769445980598928,9,True
2023-04-20,0.3744643348251989,0.37131254322163365,-0.8416800507948352,0,True
2023-04-21,0.37131254322163365,0.37131254322163365,0.0,0,False
2023-04-22,0.37131254322163365,0.37023328759507246,-0.2906596198440248,1,True
2023-04-23,0.37023328759507246,0.37023328759507246,0.0,0,False
2023-04-24,0.37023328759507246,0.37023328759507246,0.0,0,False
2023-04-25,0.37023328759507246,0.37023328759507246,0.0,0,False
2023-04-26,0.37023328759507246,0.37023328759507246,0.0,0,False
2023-04-27,0.37023328759507246,0.36831650911363384,-0.5177218109936765,9,True
2023-04-28,0.36831650911363384,0.36831650911363384,0.0,0,False
2023-04-29,0.36831650911363384,0.36647922252525317,-0.4988336235055457,1,True
2023-04-30,0.36647922252525317,0.36647922252525317,0.0,0,False
2023-05-01,0.36647922252525317,0.36647922252525317,0.0,0,False
2023-05-02,0.36647922252525317,0.36647922252525317,0.0,0,False
2023-05-03,0.36647922252525317,0.36647922252525317,0.0,0,False
2023-05-04,0.36647922252525317,0.36647922252525317,0.0,0,False
2023-05-05,0.36647922252525317,0.36647922252525317,0.0,0,False
2023-05-06,0.36647922252525317,0.36465304818678457,-0.498302284611174,1,True
2023-05-07,0.36465304818678457,0.36465304818678457,0.0,0,False
2023-05-08,0.36465304818678457,0.3588652735841071,-1.5872003899204623,7,True
2023-05-09,0.3588652735841071,0.3603374244647194,0.4102238330026875,6,True
2023-05-10,0.3603374244647194,0.35849432964094113,-0.5114913685460687,2,True
2023-05-11,0.35849432964094113,0.3610006033356528,0.6991111120842275,6,True
2023-05-12,0.3610006033356528,0.3594466795786042,-0.43044907479109495,0,True
2023-05-13,0.3594466795786042,0.3594466795786042,0.0,0,False
2023-05-14,0.3594466795786042,0.3594466795786042,0.0,0,False
2023-05-15,0.3594466795786042,0.3594466795786042,0.0,0,False
2023-05-16,0.3594466795786042,0.3594466795786042,0.0,0,False
2023-05-17,0.3594466795786042,0.3594466795786042,0.0,0,False
2023-05-18,0.3594466795786042,0.3585992830914546,-0.2357502615250362,1,True
2023-05-19,0.3585992830914546,0.3585992830914546,0.0,0,False
2023-05-20,0.3585992830914546,0.3585992830914546,0.0,0,False
2023-05-21,0.3585992830914546,0.3585992830914546,0.0,0,False
2023-05-22,0.3585992830914546,0.3575765201564695,-0.2852105353273293,1,True
2023-05-23,0.3575765201564695,0.3575765201564695,0.0,0,False
2023-05-24,0.3575765201564695,0.35651757657158495,-0.2961446082704766,1,True
2023-05-25,0.35651757657158495,0.3580664854043148,0.4344551109161987,0,True
2023-05-26,0.3580664854043148,0.35869295526954553,0.17495909021569833,1,True
2023-05-27,0.35869295526954553,0.35988337879551857,0.3318781449383357,0,True
2023-05-28,0.35988337879551857,0.35988337879551857,0.0,0,False
2023-05-29,0.35988337879551857,0.35988337879551857,0.0,0,False
2023-05-30,0.35988337879551857,0.36121352876359814,0.36960583523790724,2,True
2023-05-31,0.36121352876359814,0.3597340917386662,-0.4095740904267675,1,True
2023-06-01,0.3597340917386662,0.3597340917386662,0.0,0,False
2023-06-02,0.3597340917386662,0.3641466447404121,1.226615186906277,1,True
2023-06-03,0.3641466447404121,0.3641466447404121,0.0,0,False
2023-06-04,0.3641466447404121,0.361519693292502,-0.7213993279500786,3,True
2023-06-05,0.361519693292502,0.3608430481151487,-0.18716689295423805,1,True
2023-06-06,0.3608430481151487,0.3457941173738594,-4.17049207956115,12,True
2023-06-07,0.3457941173738594,0.34597256169530677,0.05160420969638757,1,True
2023-06-08,0.34597256169530677,0.3446704105972387,-0.37637409501128927,1,True
2023-06-09,0.3446704105972387,0.3436506188640918,-0.29587446493587466,1,True
2023-06-10,0.3436506188640918,0.35015495300350435,1.8927171325668013,7,True
2023-06-11,0.35015495300350435,0.3499090146364141,-0.07023700935276933,0,True
2023-06-12,0.3499090146364141,0.3499090146364141,0.0,0,False
2023-06-13,0.3499090146364141,0.3502077524328487,0.0853758502749713,1,True
2023-06-14,0.3502077524328487,0.35018889067668035,-0.005385876251251531,0,True
2023-06-15,0.35018889067668035,0.3518996202032298,0.48851621855956484,5,True
2023-06-16,0.3518996202032298,0.3547503539283307,0.8100985512444092,0,True
2023-06-17,0.3547503539283307,0.35527728900377586,0.14853687096014756,1,True
2023-06-18,0.35527728900377586,0.35572111283162877,0.12492321957797703,0,True
2023-06-19,0.35572111283162877,0.3575114102366851,0.5032867998205459,1,True
2023-06-20,0.3575114102366851,0.356811897341803,-0.19566169773965747,1,True
2023-06-21,0.356811897341803,0.356811897341803,0.0,0,False
2023-06-22,0.356811897341803,0.35627367345027894,-0.15084247345275026,1,True
2023-06-23,0.35627367345027894,0.35627367345027894,0.0,0,False
2023-06-24,0.35627367345027894,0.3562783612642113,0.0013157901584293086,1,True
2023-06-25,0.3562783612642113,0.35604731368245507,-0.06485029877660864,4,True
2023-06-26,0.35604731368245507,0.35574968710602045,-0.08359186124911044,0,True
2023-06-27,0.35574968710602045,0.35574968710602045,0.0,0,False
2023-06-28,0.35574968710602045,0.35574968710602045,0.0,0,False
2023-06-29,0.35574968710602045,0.3553380637361581,-0.11570589793369335,2,True
2023-06-30,0.3553380637361581,0.34971166923441266,-1.583392007765061,10,True
2023-07-01,0.34971166923441266,0.3511802832901366,0.4199499716263544,2,True
2023-07-02,0.3511802832901366,0.3511802832901366,0.0,0,False
2023-07-03,0.3511802832901366,0.3511802832901366,0.0,0,False
2023-07-04,0.3511802832901366,0.3507272092462952,-0.12901465868091488,1,True
2023-07-05,0.3507272092462952,0.3500541753806547,-0.19189667864287774,1,True
2023-07-06,0.3500541753806547,0.3490849726819044,-0.27687220062333484,2,True
2023-07-07,0.3490849726819044,0.3482819258246615,-0.2300433762798093,0,True
2023-07-08,0.3482819258246615,0.3482819258246615,0.0,0,False
2023-07-09,0.3482819258246615,0.3482819258246615,0.0,0,False
2023-07-10,0.3482819258246615,0.3482819258246615,0.0,0,False
2023-07-11,0.3482819258246615,0.3482819258246615,0.0,0,False
2023-07-12,0.3482819258246615,0.3477038443902587,-0.16598088833752467,1,True
2023-07-13,0.3477038443902587,0.3477038443902587,0.0,0,False
2023-07-14,0.3477038443902587,0.3477038443902587,0.0,0,False
2023-07-15,0.3477038443902587,0.34871508966214504,0.2908352289459737,6,True
2023-07-16,0.34871508966214504,0.34818424905107154,-0.1522275997829059,2,True
2023-07-17,0.34818424905107154,0.3469141540095296,-0.3647767080226738,0,True
2023-07-18,0.3469141540095296,0.3468805547954199,-0.00968516669652697,2,True
2023-07-19,0.3468805547954199,0.34421633822349545,-0.7680501357292036,1,True
2023-07-20,0.34421633822349545,0.34276156205931735,-0.4226342571901798,2,True
2023-07-21,0.34276156205931735,0.3428471962054299,0.024983590808158596,0,True
2023-07-22,0.3428471962054299,0.3428471962054299,0.0,0,False
2023-07-23,0.3428471962054299,0.3428471962054299,0.0,0,False
2023-07-24,0.3428471962054299,0.34083775535127536,-0.5861039192954443,4,True
2023-07-25,0.34083775535127536,0.33935901368036053,-0.4338550080494441,0,True
2023-07-26,0.33935901368036053,0.33935901368036053,0.0,0,False
2023-07-27,0.33935901368036053,0.33935901368036053,0.0,0,False
2023-07-28,0.33935901368036053,0.33935901368036053,0.0,0,False
2023-07-29,0.33935901368036053,0.33935901368036053,0.0,0,False
2023-07-30,0.33935901368036053,0.33935901368036053,0.0,0,False
2023-07-31,0.33935901368036053,0.3376674914994807,-0.4984462214618013,1,True
2023-08-01,0.3376674914994807,0.3364965883304125,-0.3467621842625612,2,True
2023-08-02,0.3364965883304125,0.3364965883304125,0.0,0,False
2023-08-03,0.3364965883304125,0.3364965883304125,0.0,0,False
2023-08-04,0.3364965883304125,0.3364965883304125,0.0,0,False
2023-08-05,0.3364965883304125,0.3364965883304125,0.0,0,False
2023-08-06,0.3364965883304125,0.3364965883304125,0.0,0,False
2023-08-07,0.3364965883304125,0.3357308508136892,-0.22756174751210612,2,True
2023-08-08,0.3357308508136892,0.3319888113770059,-1.1145950476740274,5,True
2023-08-09,0.3319888113770059,0.3308100655053912,-0.35505590285574984,0,True
2023-08-10,0.3308100655053912,0.32916305512357835,-0.4978719070402704,1,True
2023-08-11,0.32916305512357835,0.32916305512357835,0.0,0,False
2023-08-12,0.32916305512357835,0.32916305512357835,0.0,0,False
2023-08-13,0.32916305512357835,0.3297404176592691,0.1754032011502593,1,True
2023-08-14,0.3297404176592691,0.32809470232040927,-0.49909421190834635,1,True
2023-08-15,0.32809470232040927,0.32809470232040927,0.0,0,False
2023-08-16,0.32809470232040927,0.3301185397607262,0.616845510154107,7,True
2023-08-17,0.3301185397607262,0.33178741458836397,0.5055380497100748,5,True
2023-08-18,0.33178741458836397,0.3422937936178625,3.166599626008537,7,True
2023-08-19,0.3422937936178625,0.34227323558037986,-0.0060059626747377415,0,True
2023-08-20,0.34227323558037986,0.34172996274434164,-0.15872489565741388,1,True
2023-08-21,0.34172996274434164,0.34098933029619555,-0.21673032185948182,1,True
2023-08-22,0.34098933029619555,0.34159769117396416,0.17841053186038458,1,True
2023-08-23,0.34159769117396416,0.34159769117396416,0.0,0,False
2023-08-24,0.34159769117396416,0.34159769117396416,0.0,0,False
2023-08-25,0.34159769117396416,0.33489654669697005,-1.9617066069634093,6,True
2023-08-26,0.33489654669697005,0.3342994232597711,-0.1783008642783246,0,True
2023-08-27,0.3342994232597711,0.3342994232597711,0.0,0,False
2023-08-28,0.3342994232597711,0.3322532247425489,-0.6120855660681546,2,True
2023-08-29,0.3322532247425489,0.334724944142757,0.7439263838968868,1,True
2023-08-30,0.334724944142757,0.33311655805627527,-0.48050977814063645,2,True
2023-08-31,0.33311655805627527,0.33426297332591404,0.3441483894790709,2,True
2023-09-01,0.33426297332591404,0.33285877430154226,-0.42008811517471045,1,True
2023-09-02,0.33285877430154226,0.33039206242320307,-0.7410686059020843,4,True
2023-09-03,0.33039206242320307,0.3303739766270971,-0.005474040742170505,0,True
2023-09-04,0.3303739766270971,0.3297120762432154,-0.200348826090746,3,True
2023-09-05,0.3297120762432154,0.3276851112463323,-0.6147682001759303,0,True
2023-09-06,0.3276851112463323,0.3289836894137986,0.39628842535053277,4,True
2023-09-07,0.3289836894137986,0.32895180334313934,-0.009692295297691889,3,True
2023-09-08,0.32895180334313934,0.32584366416551114,-0.9448615712211228,4,True
2023-09-09,0.32584366416551114,0.3272076038355342,0.41858713856417484,5,True
2023-09-10,0.3272076038355342,0.32399906914663024,-0.9805807234591901,5,True
2023-09-11,0.32399906914663024,0.32221766822928966,-0.5498166775702584,2,True
2023-09-12,0.32221766822928966,0.3218389979269873,-0.11752003060021554,2,True
2023-09-13,0.3218389979269873,0.3201677583612547,-0.5192781410883307,2,True
2023-09-14,0.3201677583612547,0.3214002935761326,0.38496543848964837,4,True
2023-09-15,0.3214002935761326,0.32255980830681263,0.36076965511713244,1,True
2023-09-16,0.32255980830681263,0.32448227698073734,0.596003787333621,5,True
2023-09-17,0.32448227698073734,0.32342010377127434,-0.32734398295845013,2,True
2023-09-18,0.32342010377127434,0.32130716742191445,-0.6533101451399514,1,True
2023-09-19,0.32130716742191445,0.32130716742191445,0.0,0,False
2023-09-20,0.32130716742191445,0.3218953359168867,0.18305489407270947,3,True
2023-09-21,0.3218953359168867,0.32270060260580563,0.2501641369314189,1,True
2023-09-22,0.32270060260580563,0.3267839311598697,1.2653613042836742,1,True
2023-09-23,0.3267839311598697,0.3263547811280431,-0.13132531648768486,0,True
2023-09-24,0.3263547811280431,0.3255727677517837,-0.23962062806508477,1,True
2023-09-25,0.3255727677517837,0.3255693934239731,-0.0010364281490260474,1,True
2023-09-26,0.3255693934239731,0.32582153020260746,0.0774448654348836,1,True
2023-09-27,0.32582153020260746,0.3254022802746868,-0.12867471577459044,0,True
2023-09-28,0.3254022802746868,0.3254022802746868,0.0,0,False
2023-09-29,0.3254022802746868,0.3221669087417999,-0.9942682424216032,2,True
2023-09-30,0.3221669087417999,0.3221669087417999,0.0,0,False
2023-10-01,0.3221669087417999,0.321899976470463,-0.08285527287062999,1,True
2023-10-02,0.321899976470463,0.32248547605919115,0.1818886708685019,1,True
2023-10-03,0.32248547605919115,0.32288864680838586,0.12501981612365043,3,True
2023-10-04,0.32288864680838586,0.3198657521613622,-0.9362034487442217,5,True
2023-10-05,0.3198657521613622,0.316684637534511,-0.9945155445233334,2,True
2023-10-06,0.316684637534511,0.316684637534511,0.0,0,False
2023-10-07,0.316684637534511,0.3152211411431625,-0.46213052920477393,1,True
2023-10-08,0.3152211411431625,0.31462389769126803,-0.18946808254312053,1,True
2023-10-09,0.31462389769126803,0.31352837426549557,-0.3482009579728329,1,True
2023-10-10,0.31352837426549557,0.31220643333854986,-0.42163358580945554,1,True
2023-10-11,0.31220643333854986,0.31220643333854986,0.0,0,False
2023-10-12,0.31220643333854986,0.31220643333854986,0.0,0,False
2023-10-13,0.31220643333854986,0.31220643333854986,0.0,0,False
2023-10-14,0.31220643333854986,0.31220643333854986,0.0,0,False
2023-10-15,0.31220643333854986,0.31218024937799815,-0.008386745997424061,1,True
2023-10-16,0.31218024937799815,0.3126983643851141,0.1659666196526688,2,True
2023-10-17,0.3126983643851141,0.31329923197479276,0.1921556548145631,2,True
2023-10-18,0.31329923197479276,0.3105901782717432,-0.864685714667679,3,True
2023-10-19,0.3105901782717432,0.3065374049444751,-1.3048620371125086,4,True
2023-10-20,0.3065374049444751,0.3062787686366761,-0.08437349035622654,0,True
2023-10-21,0.3062787686366761,0.3069449988816683,0.21752413592290853,2,True
2023-10-22,0.3069449988816683,0.3090079198487074,0.6720816350014536,1,True
2023-10-23,0.3090079198487074,0.3090079198487074,0.0,0,False
2023-10-24,0.3090079198487074,0.30766057069197195,-0.4360241502532114,4,True
2023-10-25,0.30766057069197195,0.31570582442606304,2.614977186058054,7,True
2023-10-26,0.31570582442606304,0.3215530734081724,1.8521194509918626,4,True
2023-10-27,0.3215530734081724,0.31936508397080743,-0.6804442620231499,5,True
2023-10-28,0.31936508397080743,0.3202904952229941,0.28976594456744387,1,True
2023-10-29,0.3202904952229941,0.3202904952229941,0.0,0,False
2023-10-30,0.3202904952229941,0.3193902125346004,-0.28108317350061807,2,True
2023-10-31,0.3193902125346004,0.3162957959592403,-0.9688514093164069,5,True
2023-11-01,0.3162957959592403,0.31535730973570053,-0.2967115704758494,4,True
2023-11-02,0.31535730973570053,0.31483608645841304,-0.1652802269667797,3,True
2023-11-03,0.31483608645841304,0.3134106270011575,-0.4527624114791018,1,True
2023-11-04,0.3134106270011575,0.313979698409538,0.18157374363005907,1,True
2023-11-05,0.313979698409538,0.31250947123081496,-0.468255491093994,4,True
2023-11-06,0.31250947123081496,0.3109188406568624,-0.5089863573375375,3,True
2023-11-07,0.3109188406568624,0.3059216767191767,-1.6072245500235671,5,True
2023-11-08,0.3059216767191767,0.3059216767191767,0.0,0,False
2023-11-09,0.3059216767191767,0.30806196260353136,0.6996189048477763,4,True
2023-11-10,0.30806196260353136,0.30816314666156747,0.03284535915468734,6,True
2023-11-11,0.30816314666156747,0.3068538352942064,-0.42487603775638316,3,True
2023-11-12,0.3068538352942064,0.3106880837092754,1.2495357639551008,4,True
2023-11-13,0.3106880837092754,0.3084185722949347,-0.7304790667364003,3,True
2023-11-14,0.3084185722949347,0.30679974761624296,-0.5248791169241485,4,True
2023-11-15,0.30679974761624296,0.3063233098325817,-0.15529275606093185,1,True
2023-11-16,0.3063233098325817,0.30423304948335905,-0.6823706463491397,4,True
2023-11-17,0.30423304948335905,0.3032541996616537,-0.321743421159415,3,True
2023-11-18,0.3032541996616537,0.3006081480608256,-0.8725523352291042,3,True
2023-11-19,0.3006081480608256,0.2971907175544407,-1.136838947457064,3,True
2023-11-20,0.2971907175544407,0.2976512491778361,0.15496164455777173,1,True
2023-11-21,0.2976512491778361,0.2913241674770058,-2.1256694599155135,4,True
2023-11-22,0.2913241674770058,0.2900140393455473,-0.4497148804387785,5,True
2023-11-23,0.2900140393455473,0.2890015937659354,-0.34910226480642237,3,True
2023-11-24,0.2890015937659354,0.2936459702025909,1.6070418076714832,1,True
2023-11-25,0.2936459702025909,0.29373733777571326,0.03111487382554401,5,True
2023-11-26,0.29373733777571326,0.29385295257168254,0.039359925042137256,1,True
2023-11-27,0.29385295257168254,0.2940752059651289,0.07563422164089673,3,True
2023-11-28,0.2940752059651289,0.2944934091224198,0.1422095942833268,3,True
2023-11-29,0.2944934091224198,0.2935164803572525,-0.3317319623819537,4,True
2023-11-30,0.2935164803572525,0.2924108712503987,-0.3766770116308549,0,True
2023-12-01,0.2924108712503987,0.2924108712503987,0.0,0,False
2023-12-02,0.2924108712503987,0.2924108712503987,0.0,0,False
2023-12-03,0.2924108712503987,0.29287302819550187,0.158050534553289,2,True
2023-12-04,0.29287302819550187,0.2955959521593212,0.9297284835671826,4,True
2023-12-05,0.2955959521593212,0.2969446041275943,0.456248456185282,4,True
2023-12-06,0.2969446041275943,0.29287189453236273,-1.3715385087386789,5,True
2023-12-07,0.29287189453236273,0.2910934725600412,-0.6072354519238488,4,True
2023-12-08,0.2910934725600412,0.2910299201417811,-0.021832306200886276,1,True
2023-12-09,0.2910299201417811,0.290182411417536,-0.29121016967335045,0,True
2023-12-10,0.290182411417536,0.28914155370567046,-0.3586908340794781,3,True
2023-12-11,0.28914155370567046,0.2922513447383516,1.0755254624683852,6,True
2023-12-12,0.2922513447383516,0.2922513447383516,0.0,0,False
2023-12-13,0.2922513447383516,0.29112009232282715,-0.38708202233843636,6,True
2023-12-14,0.29112009232282715,0.2944564312942711,1.1460352821488717,2,True
2023-12-15,0.2944564312942711,0.29279004027057526,-0.5659210825762262,3,True
2023-12-16,0.29279004027057526,0.29661364447703126,1.305920175058728,4,True
2023-12-17,0.29661364447703126,0.29632158193073216,-0.09846564773311473,2,True
2023-12-18,0.29632158193073216,0.29532856947674935,-0.3351131049964984,7,True
2023-12-19,0.29532856947674935,0.2932336114198184,-0.7093651862543071,4,True
2023-12-20,0.2932336114198184,0.2911670762583042,-0.7047402074776499,2,True
2023-12-21,0.2911670762583042,0.28962784357971955,-0.5286424201406348,1,True
2023-12-22,0.28962784357971955,0.2881831227272762,-0.4988197386642801,1,True
2023-12-23,0.2881831227272762,0.28804745493425987,-0.04707693904223431,1,True
2023-12-24,0.28804745493425987,0.2871480026246761,-0.31225837763053654,2,True
2023-12-25,0.2871480026246761,0.2864177295584891,-0.254319396099556,2,True
2023-12-26,0.2864177295584891,0.2850570073058695,-0.47508310840851387,1,True
2023-12-27,0.2850570073058695,0.28109531509343694,-1.3897894494421803,11,True
2023-12-28,0.28109531509343694,0.28122678037099286,0.04676893227915091,1,True
2023-12-29,0.28122678037099286,0.2820127510630599,0.2794793195122436,2,True
2023-12-30,0.2820127510630599,0.2807419460082522,-0.4506197148949287,3,True
2023-12-31,0.2807419460082522,0.2796863490944278,-0.3760025635048403,2,True
