day,start_equity,end_equity,return_pct,entries,active
2021-09-02,1.0,1.0,0.0,0,False
2021-09-03,1.0,1.0,0.0,0,False
2021-09-04,1.0,1.0,0.0,0,False
2021-09-05,1.0,1.0,0.0,0,False
2021-09-06,1.0,1.0,0.0,0,False
2021-09-07,1.0,1.0,0.0,0,False
2021-09-08,1.0,1.0,0.0,0,False
2021-09-09,1.0,1.0,0.0,0,False
2021-09-10,1.0,1.0,0.0,0,False
2021-09-11,1.0,1.0,0.0,0,False
2021-09-12,1.0,1.0,0.0,0,False
2021-09-13,1.0,1.0,0.0,0,False
2021-09-14,1.0,1.0,0.0,0,False
2021-09-15,1.0,1.0,0.0,0,False
2021-09-16,1.0,1.0,0.0,0,False
2021-09-17,1.0,1.0,0.0,0,False
2021-09-18,1.0,1.0,0.0,0,False
2021-09-19,1.0,1.0,0.0,0,False
2021-09-20,1.0,1.0,0.0,0,False
2021-09-21,1.0,1.0,0.0,0,False
2021-09-22,1.0,1.0,0.0,0,False
2021-09-23,1.0,1.0,0.0,0,False
2021-09-24,1.0,1.0,0.0,0,False
2021-09-25,1.0,1.0,0.0,0,False
2021-09-26,1.0,1.0,0.0,0,False
2021-09-27,1.0,1.0,0.0,0,False
2021-09-28,1.0,1.0,0.0,0,False
2021-09-29,1.0,1.0,0.0,0,False
2021-09-30,1.0,1.0,0.0,0,False
2021-10-01,1.0,1.0,0.0,0,False
2021-10-02,1.0,1.0,0.0,0,False
2021-10-03,1.0,1.0,0.0,0,False
2021-10-04,1.0,1.0,0.0,0,False
2021-10-05,1.0,1.0,0.0,0,False
2021-10-06,1.0,0.9900197364997588,-0.9980263500241171,2,True
2021-10-07,0.9900197364997588,0.9900197364997588,0.0,0,False
2021-10-08,0.9900197364997588,0.9900197364997588,0.0,0,False
2021-10-09,0.9900197364997588,0.9900197364997588,0.0,0,False
2021-10-10,0.9900197364997588,0.9900197364997588,0.0,0,False
2021-10-11,0.9900197364997588,0.9900197364997588,0.0,0,False
2021-10-12,0.9900197364997588,0.9900197364997588,0.0,0,False
2021-10-13,0.9900197364997588,0.9983984402543568,0.8463168405330013,1,True
2021-10-14,0.9983984402543568,1.0046021379821388,0.6213649258307807,0,True
2021-10-15,1.0046021379821388,1.0008949547326818,-0.36902004378602804,2,True
2021-10-16,1.0008949547326818,0.9874617911871857,-1.3421152221797072,2,True
2021-10-17,0.9874617911871857,0.9874617911871857,0.0,0,False
2021-10-18,0.9874617911871857,0.9874617911871857,0.0,0,False
2021-10-19,0.9874617911871857,0.9874617911871857,0.0,0,False
2021-10-20,0.9874617911871857,0.9874617911871857,0.0,0,False
2021-10-21,0.9874617911871857,0.9874617911871857,0.0,0,False
2021-10-22,0.9874617911871857,0.9874617911871857,0.0,0,False
2021-10-23,0.9874617911871857,0.9874617911871857,0.0,0,False
2021-10-24,0.9874617911871857,0.9874617911871857,0.0,0,False
2021-10-25,0.9874617911871857,0.9941288942603315,0.6751758025118404,1,True
2021-10-26,0.9941288942603315,0.9941288942603315,0.0,0,False
2021-10-27,0.9941288942603315,1.0168622782868477,2.2867642372904395,4,True
2021-10-28,1.0168622782868477,1.0124134434955299,-0.4375061290318505,0,True
2021-10-29,1.0124134434955299,1.0124134434955299,0.0,0,False
2021-10-30,1.0124134434955299,1.0107578599163214,-0.16352840727720253,1,True
2021-10-31,1.0107578599163214,0.9992470464363681,-1.1388299746594388,4,True
2021-11-01,0.9992470464363681,0.9871004834850654,-1.2155715640712828,2,True
2021-11-02,0.9871004834850654,0.9871004834850654,0.0,0,False
2021-11-03,0.9871004834850654,0.9871004834850654,0.0,0,False
2021-11-04,0.9871004834850654,0.9857303902758484,-0.13879977085815565,1,True
2021-11-05,0.9857303902758484,0.9857303902758484,0.0,0,False
2021-11-06,0.9857303902758484,0.9857303902758484,0.0,0,False
2021-11-07,0.9857303902758484,0.9857303902758484,0.0,0,False
2021-11-08,0.9857303902758484,0.9857303902758484,0.0,0,False
2021-11-09,0.9857303902758484,0.9857303902758484,0.0,0,False
2021-11-10,0.9857303902758484,0.9857303902758484,0.0,0,False
2021-11-11,0.9857303902758484,1.0109337999682493,2.5568258766322405,6,True
2021-11-12,1.0109337999682493,1.0058856011482402,-0.49935997986887415,1,True
2021-11-13,1.0058856011482402,1.0058856011482402,0.0,0,False
2021-11-14,1.0058856011482402,1.0058856011482402,0.0,0,False
2021-11-15,1.0058856011482402,1.0058856011482402,0.0,0,False
2021-11-16,1.0058856011482402,1.056490138698356,5.030844212537655,4,True
2021-11-17,1.056490138698356,1.0688921225651038,1.1738854356016626,0,True
2021-11-18,1.0688921225651038,1.0635508691068583,-0.499699955260946,1,True
2021-11-19,1.0635508691068583,1.0635508691068583,0.0,0,False
2021-11-20,1.0635508691068583,1.0635508691068583,0.0,0,False
2021-11-21,1.0635508691068583,1.0635508691068583,0.0,0,False
2021-11-22,1.0635508691068583,1.0635508691068583,0.0,0,False
2021-11-23,1.0635508691068583,1.0635508691068583,0.0,0,False
2021-11-24,1.0635508691068583,1.0635508691068583,0.0,0,False
2021-11-25,1.0635508691068583,1.058239683908286,-0.49938233824513567,1,True
2021-11-26,1.058239683908286,1.0641878424671207,0.5620804671458757,6,True
2021-11-27,1.0641878424671207,1.0614525972769289,-0.257026539962224,0,True
2021-11-28,1.0614525972769289,1.0561540572722243,-0.499178203369377,1,True
2021-11-29,1.0561540572722243,1.0561540572722243,0.0,0,False
2021-11-30,1.0561540572722243,1.0561540572722243,0.0,0,False
2021-12-01,1.0561540572722243,1.0520934995646656,-0.38446642131415576,1,True
2021-12-02,1.0520934995646656,1.0547311376440416,0.2507037711446225,2,True
2021-12-03,1.0547311376440416,1.0437571310836542,-1.0404553510101278,1,True
2021-12-04,1.0437571310836542,1.0178480353089383,-2.4822916177651866,5,True
2021-12-05,1.0178480353089383,1.0178480353089383,0.0,0,False
2021-12-06,1.0178480353089383,1.0178480353089383,0.0,0,False
2021-12-07,1.0178480353089383,1.0178480353089383,0.0,0,False
2021-12-08,1.0178480353089383,1.0178480353089383,0.0,0,False
2021-12-09,1.0178480353089383,1.0178480353089383,0.0,0,False
2021-12-10,1.0178480353089383,1.0178480353089383,0.0,0,False
2021-12-11,1.0178480353089383,1.0178480353089383,0.0,0,False
2021-12-12,1.0178480353089383,1.0178480353089383,0.0,0,False
2021-12-13,1.0178480353089383,1.0178480353089383,0.0,0,False
2021-12-14,1.0178480353089383,1.0178480353089383,0.0,0,False
2021-12-15,1.0178480353089383,1.0178480353089383,0.0,0,False
2021-12-16,1.0178480353089383,1.0178480353089383,0.0,0,False
2021-12-17,1.0178480353089383,1.016909293952309,-0.09222804623721936,1,True
2021-12-18,1.016909293952309,1.016909293952309,0.0,0,False
2021-12-19,1.016909293952309,1.016909293952309,0.0,0,False
2021-12-20,1.016909293952309,1.016909293952309,0.0,0,False
2021-12-21,1.016909293952309,1.016909293952309,0.0,0,False
2021-12-22,1.016909293952309,1.016909293952309,0.0,0,False
2021-12-23,1.016909293952309,1.016909293952309,0.0,0,False
2021-12-24,1.016909293952309,1.016909293952309,0.0,0,False
2021-12-25,1.016909293952309,1.016909293952309,0.0,0,False
2021-12-26,1.016909293952309,1.016909293952309,0.0,0,False
2021-12-27,1.016909293952309,1.016909293952309,0.0,0,False
2021-12-28,1.016909293952309,1.016909293952309,0.0,0,False
2021-12-29,1.016909293952309,1.016909293952309,0.0,0,False
2021-12-30,1.016909293952309,1.016909293952309,0.0,0,False
2021-12-31,1.016909293952309,1.016909293952309,0.0,0,False
2022-01-01,1.016909293952309,1.016909293952309,0.0,0,False
2022-01-02,1.016909293952309,1.016909293952309,0.0,0,False
2022-01-03,1.016909293952309,1.016909293952309,0.0,0,False
2022-01-04,1.016909293952309,1.016909293952309,0.0,0,False
2022-01-05,1.016909293952309,1.016909293952309,0.0,0,False
2022-01-06,1.016909293952309,1.0118389782072594,-0.4986005905544766,1,True
2022-01-07,1.0118389782072594,1.0118389782072594,0.0,0,False
2022-01-08,1.0118389782072594,1.0118389782072594,0.0,0,False
2022-01-09,1.0118389782072594,1.0118389782072594,0.0,0,False
2022-01-10,1.0118389782072594,1.0118389782072594,0.0,0,False
2022-01-11,1.0118389782072594,1.0118389782072594,0.0,0,False
2022-01-12,1.0118389782072594,1.0118389782072594,0.0,0,False
2022-01-13,1.0118389782072594,1.0118389782072594,0.0,0,False
2022-01-14,1.0118389782072594,1.0118389782072594,0.0,0,False
2022-01-15,1.0118389782072594,1.0118389782072594,0.0,0,False
2022-01-16,1.0118389782072594,1.0118389782072594,0.0,0,False
2022-01-17,1.0118389782072594,1.0118389782072594,0.0,0,False
2022-01-18,1.0118389782072594,1.0118389782072594,0.0,0,False
2022-01-19,1.0118389782072594,1.0118389782072594,0.0,0,False
2022-01-20,1.0118389782072594,1.0118389782072594,0.0,0,False
2022-01-21,1.0118389782072594,1.0118389782072594,0.0,0,False
2022-01-22,1.0118389782072594,1.032925867557362,2.084016311317005,3,True
2022-01-23,1.032925867557362,1.038128307840688,0.5036605672030126,0,True
2022-01-24,1.038128307840688,1.038128307840688,0.0,0,False
2022-01-25,1.038128307840688,1.038128307840688,0.0,0,False
2022-01-26,1.038128307840688,1.038128307840688,0.0,0,False
2022-01-27,1.038128307840688,1.038128307840688,0.0,0,False
2022-01-28,1.038128307840688,1.038128307840688,0.0,0,False
2022-01-29,1.038128307840688,1.038128307840688,0.0,0,False
2022-01-30,1.038128307840688,1.038128307840688,0.0,0,False
2022-01-31,1.038128307840688,1.0415195925454663,0.32667298244011267,1,True
2022-02-01,1.0415195925454663,1.0415195925454663,0.0,0,False
2022-02-02,1.0415195925454663,1.0415195925454663,0.0,0,False
2022-02-03,1.0415195925454663,1.0415195925454663,0.0,0,False
2022-02-04,1.0415195925454663,1.0415195925454663,0.0,0,False
2022-02-05,1.0415195925454663,1.0415195925454663,0.0,0,False
2022-02-06,1.0415195925454663,1.0415195925454663,0.0,0,False
2022-02-07,1.0415195925454663,1.0415195925454663,0.0,0,False
2022-02-08,1.0415195925454663,1.0415195925454663,0.0,0,False
2022-02-09,1.0415195925454663,1.0415195925454663,0.0,0,False
2022-02-10,1.0415195925454663,1.0432699590659187,0.1680589143958855,2,True
2022-02-11,1.0432699590659187,1.0311109806601453,-1.1654680842779985,0,True
2022-02-12,1.0311109806601453,1.0311109806601453,0.0,0,False
2022-02-13,1.0311109806601453,1.0311109806601453,0.0,0,False
2022-02-14,1.0311109806601453,1.0311109806601453,0.0,0,False
2022-02-15,1.0311109806601453,1.0311109806601453,0.0,0,False
2022-02-16,1.0311109806601453,1.0311109806601453,0.0,0,False
2022-02-17,1.0311109806601453,1.0311109806601453,0.0,0,False
2022-02-18,1.0311109806601453,1.0311109806601453,0.0,0,False
2022-02-19,1.0311109806601453,1.0311109806601453,0.0,0,False
2022-02-20,1.0311109806601453,1.0311109806601453,0.0,0,False
2022-02-21,1.0311109806601453,1.0311109806601453,0.0,0,False
2022-02-22,1.0311109806601453,1.0311109806601453,0.0,0,False
2022-02-23,1.0311109806601453,1.0311109806601453,0.0,0,False
2022-02-24,1.0311109806601453,1.0311109806601453,0.0,0,False
2022-02-25,1.0311109806601453,1.0311109806601453,0.0,0,False
2022-02-26,1.0311109806601453,1.0311109806601453,0.0,0,False
2022-02-27,1.0311109806601453,1.0311109806601453,0.0,0,False
2022-02-28,1.0311109806601453,1.0311109806601453,0.0,0,False
2022-03-01,1.0311109806601453,1.0311109806601453,0.0,0,False
2022-03-02,1.0311109806601453,1.0311109806601453,0.0,0,False
2022-03-03,1.0311109806601453,1.0311109806601453,0.0,0,False
2022-03-04,1.0311109806601453,1.0311109806601453,0.0,0,False
2022-03-05,1.0311109806601453,1.0311109806601453,0.0,0,False
2022-03-06,1.0311109806601453,1.0311109806601453,0.0,0,False
2022-03-07,1.0311109806601453,1.0311109806601453,0.0,0,False
2022-03-08,1.0311109806601453,1.0311109806601453,0.0,0,False
2022-03-09,1.0311109806601453,1.0311109806601453,0.0,0,False
2022-03-10,1.0311109806601453,1.0311109806601453,0.0,0,False
2022-03-11,1.0311109806601453,1.0311109806601453,0.0,0,False
2022-03-12,1.0311109806601453,1.0311109806601453,0.0,0,False
2022-03-13,1.0311109806601453,1.0311109806601453,0.0,0,False
2022-03-14,1.0311109806601453,1.0311109806601453,0.0,0,False
2022-03-15,1.0311109806601453,1.0311109806601453,0.0,0,False
2022-03-16,1.0311109806601453,1.0311109806601453,0.0,0,False
2022-03-17,1.0311109806601453,1.0311109806601453,0.0,0,False
2022-03-18,1.0311109806601453,1.0311109806601453,0.0,0,False
2022-03-19,1.0311109806601453,1.0311109806601453,0.0,0,False
2022-03-20,1.0311109806601453,1.0311109806601453,0.0,0,False
2022-03-21,1.0311109806601453,1.0311109806601453,0.0,0,False
2022-03-22,1.0311109806601453,1.0311109806601453,0.0,0,False
2022-03-23,1.0311109806601453,1.0311109806601453,0.0,0,False
2022-03-24,1.0311109806601453,1.0311109806601453,0.0,0,False
2022-03-25,1.0311109806601453,1.0311109806601453,0.0,0,False
2022-03-26,1.0311109806601453,1.03396263482974,0.276561322988611,1,True
2022-03-27,1.03396263482974,1.03396263482974,0.0,0,False
2022-03-28,1.03396263482974,1.0378850883896038,0.37936124843716,1,True
2022-03-29,1.0378850883896038,1.0378850883896038,0.0,0,False
2022-03-30,1.0378850883896038,1.0326991078023593,-0.4996680890069549,1,True
2022-03-31,1.0326991078023593,1.0326991078023593,0.0,0,False
2022-04-01,1.0326991078023593,1.0304575806441878,-0.21705520429291525,1,True
2022-04-02,1.0304575806441878,1.0304575806441878,0.0,0,False
2022-04-03,1.0304575806441878,1.0295833844337046,-0.08483572996150768,1,True
2022-04-04,1.0295833844337046,1.0244443097552536,-0.49914118236062954,1,True
2022-04-05,1.0244443097552536,1.0244443097552536,0.0,0,False
2022-04-06,1.0244443097552536,1.026599630666022,0.21038927057766,1,True
2022-04-07,1.026599630666022,1.0214768729848307,-0.4990024862825737,1,True
2022-04-08,1.0214768729848307,1.0214768729848307,0.0,0,False
2022-04-09,1.0214768729848307,1.0214768729848307,0.0,0,False
2022-04-10,1.0214768729848307,1.0214768729848307,0.0,0,False
2022-04-11,1.0214768729848307,1.0214768729848307,0.0,0,False
2022-04-12,1.0214768729848307,1.0214768729848307,0.0,0,False
2022-04-13,1.0214768729848307,1.0214768729848307,0.0,0,False
2022-04-14,1.0214768729848307,1.0214768729848307,0.0,0,False
2022-04-15,1.0214768729848307,1.0214768729848307,0.0,0,False
2022-04-16,1.0214768729848307,1.0214768729848307,0.0,0,False
2022-04-17,1.0214768729848307,1.0214768729848307,0.0,0,False
2022-04-18,1.0214768729848307,1.0259393394603062,0.4368641712304111,1,True
2022-04-19,1.0259393394603062,1.0237500083107716,-0.21339771907824545,0,True
2022-04-20,1.0237500083107716,1.0237500083107716,0.0,0,False
2022-04-21,1.0237500083107716,1.0237500083107716,0.0,0,False
2022-04-22,1.0237500083107716,1.0237500083107716,0.0,0,False
2022-04-23,1.0237500083107716,1.0237500083107716,0.0,0,False
2022-04-24,1.0237500083107716,1.0237500083107716,0.0,0,False
2022-04-25,1.0237500083107716,1.0237500083107716,0.0,0,False
2022-04-26,1.0237500083107716,1.0237500083107716,0.0,0,False
2022-04-27,1.0237500083107716,1.0186395054438702,-0.4991944151809036,1,True
2022-04-28,1.0186395054438702,1.0186395054438702,0.0,0,False
2022-04-29,1.0186395054438702,1.0135522913902983,-0.4994126014536526,1,True
2022-04-30,1.0135522913902983,1.0135522913902983,0.0,0,False
2022-05-01,1.0135522913902983,1.027374986423159,1.3637870636057592,4,True
2022-05-02,1.027374986423159,1.027374986423159,0.0,0,False
2022-05-03,1.027374986423159,1.027374986423159,0.0,0,False
2022-05-04,1.027374986423159,1.0222448887693123,-0.4993403306135846,1,True
2022-05-05,1.0222448887693123,1.0222448887693123,0.0,0,False
2022-05-06,1.0222448887693123,1.012065836853097,-0.9957547382281273,2,True
2022-05-07,1.012065836853097,1.012065836853097,0.0,0,False
2022-05-08,1.012065836853097,1.012065836853097,0.0,0,False
2022-05-09,1.012065836853097,1.012065836853097,0.0,0,False
2022-05-10,1.012065836853097,0.9916193558203916,-2.0202718329354385,5,True
2022-05-11,0.9916193558203916,0.9669868579641404,-2.4840678746001377,5,True
2022-05-12,0.9669868579641404,0.9703525139989594,0.3480560265219035,8,True
2022-05-13,0.9703525139989594,0.9718793627318157,0.15734990231168755,0,True
2022-05-14,0.9718793627318157,0.9702855772243144,-0.1639900556198115,2,True
2022-05-15,0.9702855772243144,0.9678645806450836,-0.24951381696887154,1,True
2022-05-16,0.9678645806450836,0.9654499790826347,-0.24947721104119358,1,True
2022-05-17,0.9654499790826347,0.9654499790826347,0.0,0,False
2022-05-18,0.9654499790826347,0.9654499790826347,0.0,0,False
2022-05-19,0.9654499790826347,0.9630405415621465,-0.24956627196550674,1,True
2022-05-20,0.9630405415621465,0.9606386702197567,-0.24940500827657086,1,True
2022-05-21,0.9606386702197567,0.9606386702197567,0.0,0,False
2022-05-22,0.9606386702197567,0.9606386702197567,0.0,0,False
2022-05-23,0.9606386702197567,0.9582414882059281,-0.24954044513741946,1,True
2022-05-24,0.9582414882059281,0.9577469908613505,-0.051604668620996996,2,True
2022-05-25,0.9577469908613505,0.9629828624999878,0.5466863053183113,1,True
2022-05-26,0.9629828624999878,0.9605786553097186,-0.24966251050694277,1,True
2022-05-27,0.9605786553097186,0.9581800897226428,-0.24970007128697347,1,True
2022-05-28,0.9581800897226428,0.9581800897226428,0.0,0,False
2022-05-29,0.9581800897226428,0.9581800897226428,0.0,0,False
2022-05-30,0.9581800897226428,0.9581800897226428,0.0,0,False
2022-05-31,0.9581800897226428,0.9510080009980688,-0.7485115586830848,3,True
2022-06-01,0.9510080009980688,0.9510080009980688,0.0,0,False
2022-06-02,0.9510080009980688,0.9486341160792975,-0.24961776517967715,1,True
2022-06-03,0.9486341160792975,0.9486341160792975,0.0,0,False
2022-06-04,0.9486341160792975,0.9486341160792975,0.0,0,False
2022-06-05,0.9486341160792975,0.9486341160792975,0.0,0,False
2022-06-06,0.9486341160792975,0.9486341160792975,0.0,0,False
2022-06-07,0.9486341160792975,0.9493617184034783,0.07669999548276518,1,True
2022-06-08,0.9493617184034783,0.9495281373526382,0.017529561802831495,1,True
2022-06-09,0.9495281373526382,0.9495281373526382,0.0,0,False
2022-06-10,0.9495281373526382,0.9537565191622692,0.4453140084316187,2,True
2022-06-11,0.9537565191622692,0.951373174373226,-0.24989027505013528,1,True
2022-06-12,0.951373174373226,0.9588755996217313,0.788589109993354,4,True
2022-06-13,0.9588755996217313,0.9541272667090833,-0.49519801260154983,3,True
2022-06-14,0.9541272667090833,0.9554653004840228,0.14023640468368015,1,True
2022-06-15,0.9554653004840228,0.9554653004840228,0.0,0,False
2022-06-16,0.9554653004840228,0.9691783185791367,1.4352188497234852,4,True
2022-06-17,0.9691783185791367,0.969098030341476,-0.008284155363524892,1,True
2022-06-18,0.969098030341476,0.9594438176222113,-0.9962059994965466,4,True
2022-06-19,0.9594438176222113,0.9594438176222113,0.0,0,False
2022-06-20,0.9594438176222113,0.9594438176222113,0.0,0,False
2022-06-21,0.9594438176222113,0.9594438176222113,0.0,0,False
2022-06-22,0.9594438176222113,0.9594438176222113,0.0,0,False
2022-06-23,0.9594438176222113,0.9594438176222113,0.0,0,False
2022-06-24,0.9594438176222113,0.9594438176222113,0.0,0,False
2022-06-25,0.9594438176222113,0.9594438176222113,0.0,0,False
2022-06-26,0.9594438176222113,0.9594438176222113,0.0,0,False
2022-06-27,0.9594438176222113,0.9594438176222113,0.0,0,False
2022-06-28,0.9594438176222113,0.9606445334592,0.12514707114006374,1,True
2022-06-29,0.9606445334592,0.9570492486700585,-0.374257559785951,0,True
2022-06-30,0.9570492486700585,0.9570492486700585,0.0,0,False
2022-07-01,0.9570492486700585,0.9570492486700585,0.0,0,False
2022-07-02,0.9570492486700585,0.9570492486700585,0.0,0,False
2022-07-03,0.9570492486700585,0.9561728923502675,-0.09156857089734904,1,True
2022-07-04,0.9561728923502675,0.9561728923502675,0.0,0,False
2022-07-05,0.9561728923502675,0.9561728923502675,0.0,0,False
2022-07-06,0.9561728923502675,0.9561728923502675,0.0,0,False
2022-07-07,0.9561728923502675,0.9561728923502675,0.0,0,False
2022-07-08,0.9561728923502675,0.9561728923502675,0.0,0,False
2022-07-09,0.9561728923502675,0.9561728923502675,0.0,0,False
2022-07-10,0.9561728923502675,0.9561728923502675,0.0,0,False
2022-07-11,0.9561728923502675,0.9561728923502675,0.0,0,False
2022-07-12,0.9561728923502675,0.9561728923502675,0.0,0,False
2022-07-13,0.9561728923502675,0.9647052068955883,0.8923401419954846,4,True
2022-07-14,0.9647052068955883,0.9770484247484731,1.2794807952374532,0,True
2022-07-15,0.9770484247484731,0.9770484247484731,0.0,0,False
2022-07-16,0.9770484247484731,0.9770484247484731,0.0,0,False
2022-07-17,0.9770484247484731,0.9770484247484731,0.0,0,False
2022-07-18,0.9770484247484731,0.9770484247484731,0.0,0,False
2022-07-19,0.9770484247484731,0.9757677363086138,-0.13107727390164747,2,True
2022-07-20,0.9757677363086138,0.9757677363086138,0.0,0,False
2022-07-21,0.9757677363086138,0.9711365992852741,-0.4746146906700943,3,True
2022-07-22,0.9711365992852741,0.9711365992852741,0.0,0,False
2022-07-23,0.9711365992852741,0.9711365992852741,0.0,0,False
2022-07-24,0.9711365992852741,0.9754439158871707,0.4435335466778545,1,True
2022-07-25,0.9754439158871707,0.9762365316675845,0.08125693005045509,1,True
2022-07-26,0.9762365316675845,0.9762365316675845,0.0,0,False
2022-07-27,0.9762365316675845,0.9762365316675845,0.0,0,False
2022-07-28,0.9762365316675845,0.9762365316675845,0.0,0,False
2022-07-29,0.9762365316675845,0.973798719165376,-0.2497153531065166,1,True
2022-07-30,0.973798719165376,0.973798719165376,0.0,0,False
2022-07-31,0.973798719165376,0.9713651133681676,-0.2499085025798986,1,True
2022-08-01,0.9713651133681676,0.9713651133681676,0.0,0,False
2022-08-02,0.9713651133681676,0.9713651133681676,0.0,0,False
2022-08-03,0.9713651133681676,0.9702899469964049,-0.11068612172353554,1,True
2022-08-04,0.9702899469964049,0.9702899469964049,0.0,0,False
2022-08-05,0.9702899469964049,0.9702899469964049,0.0,0,False
2022-08-06,0.9702899469964049,0.9702899469964049,0.0,0,False
2022-08-07,0.9702899469964049,0.9702899469964049,0.0,0,False
2022-08-08,0.9702899469964049,0.9702899469964049,0.0,0,False
2022-08-09,0.9702899469964049,0.9717494075538663,0.15041489010365616,1,True
2022-08-10,0.9717494075538663,0.9717494075538663,0.0,0,False
2022-08-11,0.9717494075538663,0.9717494075538663,0.0,0,False
2022-08-12,0.9717494075538663,0.9720125444087274,0.027078674071279174,1,True
2022-08-13,0.9720125444087274,0.9720125444087274,0.0,0,False
2022-08-14,0.9720125444087274,0.9720125444087274,0.0,0,False
2022-08-15,0.9720125444087274,0.9720125444087274,0.0,0,False
2022-08-16,0.9720125444087274,0.9718795823248619,-0.013679050196457876,1,True
2022-08-17,0.9718795823248619,0.9718795823248619,0.0,0,False
2022-08-18,0.9718795823248619,0.9718795823248619,0.0,0,False
2022-08-19,0.9718795823248619,0.9635905643471442,-0.8528852883079807,8,True
2022-08-20,0.9635905643471442,0.9660466945361891,0.2548935491817561,0,True
2022-08-21,0.9660466945361891,0.9660466945361891,0.0,0,False
2022-08-22,0.9660466945361891,0.9660466945361891,0.0,0,False
2022-08-23,0.9660466945361891,0.9660466945361891,0.0,0,False
2022-08-24,0.9660466945361891,0.9660466945361891,0.0,0,False
2022-08-25,0.9660466945361891,0.9660466945361891,0.0,0,False
2022-08-26,0.9660466945361891,0.9660466945361891,0.0,0,False
2022-08-27,0.9660466945361891,0.963635247954214,-0.2496200852002195,1,True
2022-08-28,0.963635247954214,0.9641590907545043,0.05436110825154383,1,True
2022-08-29,0.9641590907545043,0.9626271098483697,-0.15889295872694165,0,True
2022-08-30,0.9626271098483697,0.9626271098483697,0.0,0,False
2022-08-31,0.9626271098483697,0.9626271098483697,0.0,0,False
2022-09-01,0.9626271098483697,0.9626271098483697,0.0,0,False
2022-09-02,0.9626271098483697,0.9626271098483697,0.0,0,False
2022-09-03,0.9626271098483697,0.9626271098483697,0.0,0,False
2022-09-04,0.9626271098483697,0.9626271098483697,0.0,0,False
2022-09-05,0.9626271098483697,0.9626271098483697,0.0,0,False
2022-09-06,0.9626271098483697,0.9626271098483697,0.0,0,False
2022-09-07,0.9626271098483697,0.9575285602334768,-0.5296494938414997,4,True
2022-09-08,0.9575285602334768,0.9575285602334768,0.0,0,False
2022-09-09,0.9575285602334768,0.9575285602334768,0.0,0,False
2022-09-10,0.9575285602334768,0.9575285602334768,0.0,0,False
2022-09-11,0.9575285602334768,0.9575285602334768,0.0,0,False
2022-09-12,0.9575285602334768,0.9575285602334768,0.0,0,False
2022-09-13,0.9575285602334768,0.9529460141320102,-0.4785806180391372,4,True
2022-09-14,0.9529460141320102,0.9471553576253214,-0.6076584004565233,1,True
2022-09-15,0.9471553576253214,0.950694065380235,0.3736142889785077,1,True
2022-09-16,0.950694065380235,0.950694065380235,0.0,0,False
2022-09-17,0.950694065380235,0.950694065380235,0.0,0,False
2022-09-18,0.950694065380235,0.950694065380235,0.0,0,False
2022-09-19,0.950694065380235,0.9520293736138407,0.14045614485576063,5,True
2022-09-20,0.9520293736138407,0.9520293736138407,0.0,0,False
2022-09-21,0.9520293736138407,0.9520293736138407,0.0,0,False
2022-09-22,0.9520293736138407,0.9520293736138407,0.0,0,False
2022-09-23,0.9520293736138407,0.9520293736138407,0.0,0,False
2022-09-24,0.9520293736138407,0.9520293736138407,0.0,0,False
2022-09-25,0.9520293736138407,0.9520293736138407,0.0,0,False
2022-09-26,0.9520293736138407,0.9520293736138407,0.0,0,False
2022-09-27,0.9520293736138407,0.9520293736138407,0.0,0,False
2022-09-28,0.9520293736138407,0.9520293736138407,0.0,0,False
2022-09-29,0.9520293736138407,0.9520293736138407,0.0,0,False
2022-09-30,0.9520293736138407,0.9520293736138407,0.0,0,False
2022-10-01,0.9520293736138407,0.9520293736138407,0.0,0,False
2022-10-02,0.9520293736138407,0.9520293736138407,0.0,0,False
2022-10-03,0.9520293736138407,0.9520293736138407,0.0,0,False
2022-10-04,0.9520293736138407,0.9520293736138407,0.0,0,False
2022-10-05,0.9520293736138407,0.9520293736138407,0.0,0,False
2022-10-06,0.9520293736138407,0.9520293736138407,0.0,0,False
2022-10-07,0.9520293736138407,0.9520293736138407,0.0,0,False
2022-10-08,0.9520293736138407,0.9520293736138407,0.0,0,False
2022-10-09,0.9520293736138407,0.9520293736138407,0.0,0,False
2022-10-10,0.9520293736138407,0.949652630185588,-0.2496502202690154,1,True
2022-10-11,0.949652630185588,0.9673497841259568,1.86353971735016,4,True
2022-10-12,0.9673497841259568,0.9673497841259568,0.0,0,False
2022-10-13,0.9673497841259568,0.9673497841259568,0.0,0,False
2022-10-14,0.9673497841259568,0.9673497841259568,0.0,0,False
2022-10-15,0.9673497841259568,0.9673497841259568,0.0,0,False
2022-10-16,0.9673497841259568,0.9673497841259568,0.0,0,False
2022-10-17,0.9673497841259568,0.9673497841259568,0.0,0,False
2022-10-18,0.9673497841259568,0.9673497841259568,0.0,0,False
2022-10-19,0.9673497841259568,0.9673497841259568,0.0,0,False
2022-10-20,0.9673497841259568,0.9703104272592322,0.3060571451876992,1,True
2022-10-21,0.9703104272592322,0.9703104272592322,0.0,0,False
2022-10-22,0.9703104272592322,0.9703104272592322,0.0,0,False
2022-10-23,0.9703104272592322,0.9703104272592322,0.0,0,False
2022-10-24,0.9703104272592322,0.9703104272592322,0.0,0,False
2022-10-25,0.9703104272592322,0.9703104272592322,0.0,0,False
2022-10-26,0.9703104272592322,0.9703104272592322,0.0,0,False
2022-10-27,0.9703104272592322,0.9703104272592322,0.0,0,False
2022-10-28,0.9703104272592322,0.9703104272592322,0.0,0,False
2022-10-29,0.9703104272592322,0.9703104272592322,0.0,0,False
2022-10-30,0.9703104272592322,0.9703104272592322,0.0,0,False
2022-10-31,0.9703104272592322,0.9703104272592322,0.0,0,False
2022-11-01,0.9703104272592322,0.9703104272592322,0.0,0,False
2022-11-02,0.9703104272592322,0.9735876442594968,0.3377493334294712,1,True
2022-11-03,0.9735876442594968,0.9761263674856692,0.2607595978791677,3,True
2022-11-04,0.9761263674856692,0.983321880253252,0.7371497182395714,5,True
2022-11-05,0.983321880253252,0.9831478655797412,-0.017696613591666743,1,True
2022-11-06,0.9831478655797412,0.9831478655797412,0.0,0,False
2022-11-07,0.9831478655797412,0.9813526529453122,-0.1825984368455602,2,True
2022-11-08,0.9813526529453122,0.9784011372162604,-0.3007599480363554,5,True
2022-11-09,0.9784011372162604,0.9627761468455068,-1.596992253628171,14,True
2022-11-10,0.9627761468455068,0.9783675264684848,1.619418976473641,5,True
2022-11-11,0.9783675264684848,0.9851483955401805,0.6930799406407173,5,True
2022-11-12,0.9851483955401805,0.9857891930526167,0.0650457855219777,2,True
2022-11-13,0.9857891930526167,0.9833294712554249,-0.24951803230617298,1,True
2022-11-14,0.9833294712554249,0.983423076790128,0.009519244306144259,2,True
2022-11-15,0.983423076790128,0.983423076790128,0.0,0,False
2022-11-16,0.983423076790128,0.983423076790128,0.0,0,False
2022-11-17,0.983423076790128,0.983423076790128,0.0,0,False
2022-11-18,0.983423076790128,0.983423076790128,0.0,0,False
2022-11-19,0.983423076790128,0.9836509683085832,0.023173293756650892,2,True
2022-11-20,0.9836509683085832,0.9816235232503112,-0.20611427463527177,1,True
2022-11-21,0.9816235232503112,0.978563495725236,-0.311731275035354,1,True
2022-11-22,0.978563495725236,0.978563495725236,0.0,0,False
2022-11-23,0.978563495725236,0.978563495725236,0.0,0,False
2022-11-24,0.978563495725236,0.978563495725236,0.0,0,False
2022-11-25,0.978563495725236,0.9784028593101485,-0.016415533155411666,1,True
2022-11-26,0.9784028593101485,0.9784028593101485,0.0,0,False
2022-11-27,0.9784028593101485,0.9784028593101485,0.0,0,False
2022-11-28,0.9784028593101485,0.9761462841394307,-0.23063865249829396,2,True
2022-11-29,0.9761462841394307,0.9761462841394307,0.0,0,False
2022-11-30,0.9761462841394307,0.9761462841394307,0.0,0,False
2022-12-01,0.9761462841394307,0.9760997958065952,-0.004762435056182568,1,True
2022-12-02,0.9760997958065952,0.9754753276208548,-0.06397585456151544,1,True
2022-12-03,0.9754753276208548,0.9754753276208548,0.0,0,False
2022-12-04,0.9754753276208548,0.9706087595947631,-0.49889196459340646,2,True
2022-12-05,0.9706087595947631,0.971724212224321,0.11492299224906688,1,True
2022-12-06,0.971724212224321,0.9709517365747127,-0.07949535885702907,0,True
2022-12-07,0.9709517365747127,0.9709517365747127,0.0,0,False
2022-12-08,0.9709517365747127,0.9685309681924521,-0.24931912587132787,1,True
2022-12-09,0.9685309681924521,0.9685309681924521,0.0,0,False
2022-12-10,0.9685309681924521,0.9685309681924521,0.0,0,False
2022-12-11,0.9685309681924521,0.9685309681924521,0.0,0,False
2022-12-12,0.9685309681924521,0.9685309681924521,0.0,0,False
2022-12-13,0.9685309681924521,0.9685309681924521,0.0,0,False
2022-12-14,0.9685309681924521,0.9685309681924521,0.0,0,False
2022-12-15,0.9685309681924521,0.9685309681924521,0.0,0,False
2022-12-16,0.9685309681924521,0.9685309681924521,0.0,0,False
2022-12-17,0.9685309681924521,0.9787328291965435,1.0533334853640053,4,True
2022-12-18,0.9787328291965435,0.9787328291965435,0.0,0,False
2022-12-19,0.9787328291965435,0.9787328291965435,0.0,0,False
2022-12-20,0.9787328291965435,0.9787328291965435,0.0,0,False
2022-12-21,0.9787328291965435,0.9787328291965435,0.0,0,False
2022-12-22,0.9787328291965435,0.9787328291965435,0.0,0,False
2022-12-23,0.9787328291965435,0.9787328291965435,0.0,0,False
2022-12-24,0.9787328291965435,0.9787328291965435,0.0,0,False
2022-12-25,0.9787328291965435,0.9787328291965435,0.0,0,False
2022-12-26,0.9787328291965435,0.9787328291965435,0.0,0,False
2022-12-27,0.9787328291965435,0.9787328291965435,0.0,0,False
2022-12-28,0.9787328291965435,0.9806381563688412,0.19467285815495394,1,True
2022-12-29,0.9806381563688412,0.9799234459702983,-0.07288217309321388,0,True
2022-12-30,0.9799234459702983,0.9799234459702983,0.0,0,False
2022-12-31,0.9799234459702983,0.9799234459702983,0.0,0,False
2023-01-01,0.9799234459702983,0.9799234459702983,0.0,0,False
2023-01-02,0.9799234459702983,0.980186762963178,0.026871179984766513,1,True
2023-01-03,0.980186762963178,0.9802511028351211,0.006564042116696811,0,True
2023-01-04,0.9802511028351211,0.9802511028351211,0.0,0,False
2023-01-05,0.9802511028351211,0.9802511028351211,0.0,0,False
2023-01-06,0.9802511028351211,0.9802511028351211,0.0,0,False
2023-01-07,0.9802511028351211,0.9802511028351211,0.0,0,False
2023-01-08,0.9802511028351211,0.9802511028351211,0.0,0,False
2023-01-09,0.9802511028351211,0.9802511028351211,0.0,0,False
2023-01-10,0.9802511028351211,0.978803260432144,-0.14770117562628027,2,True
2023-01-11,0.978803260432144,0.9793033196659895,0.051088840225621546,0,True
2023-01-12,0.9793033196659895,0.9793033196659895,0.0,0,False
2023-01-13,0.9793033196659895,0.9793033196659895,0.0,0,False
2023-01-14,0.9793033196659895,0.976656736966119,-0.27025158055965504,3,True
2023-01-15,0.976656736966119,0.9776857100006667,0.1053566719607213,1,True
2023-01-16,0.9776857100006667,0.9776857100006667,0.0,0,False
2023-01-17,0.9776857100006667,0.9776857100006667,0.0,0,False
2023-01-18,0.9776857100006667,0.9776857100006667,0.0,0,False
2023-01-19,0.9776857100006667,0.9752457317817084,-0.24956672619841358,1,True
2023-01-20,0.9752457317817084,0.9752457317817084,0.0,0,False
2023-01-21,0.9752457317817084,0.9761774899125507,0.09554085708636251,1,True
2023-01-22,0.9761774899125507,0.9756828915360009,-0.05066684918069164,0,True
2023-01-23,0.9756828915360009,0.9756828915360009,0.0,0,False
2023-01-24,0.9756828915360009,0.9800572346805748,0.44833656329543725,1,True
2023-01-25,0.9800572346805748,0.9866281503542711,0.6704624425162065,5,True
2023-01-26,0.9866281503542711,0.9874044599741354,0.078683100577015,1,True
2023-01-27,0.9874044599741354,0.98805403159159,0.06578576903244482,0,True
2023-01-28,0.98805403159159,0.98805403159159,0.0,0,False
2023-01-29,0.98805403159159,0.98805403159159,0.0,0,False
2023-01-30,0.98805403159159,0.98817278272684,0.012018688396886468,2,True
2023-01-31,0.98817278272684,0.9880334635393333,-0.014098666745521182,2,True
2023-02-01,0.9880334635393333,0.9880334635393333,0.0,0,False
2023-02-02,0.9880334635393333,0.9880334635393333,0.0,0,False
2023-02-03,0.9880334635393333,0.9880334635393333,0.0,0,False
2023-02-04,0.9880334635393333,0.9880334635393333,0.0,0,False
2023-02-05,0.9880334635393333,0.9902465286946072,0.22398686248401578,5,True
2023-02-06,0.9902465286946072,0.998200295755317,0.8032107995566307,1,True
2023-02-07,0.998200295755317,0.998200295755317,0.0,0,False
2023-02-08,0.998200295755317,0.998200295755317,0.0,0,False
2023-02-09,0.998200295755317,0.998200295755317,0.0,0,False
2023-02-10,0.998200295755317,0.9995437896096637,0.13459161052744584,1,True
2023-02-11,0.9995437896096637,0.9980034153443471,-0.1541077320802664,0,True
2023-02-12,0.9980034153443471,0.9955115149881802,-0.2496885599642007,1,True
2023-02-13,0.9955115149881802,0.9955115149881802,0.0,0,False
2023-02-14,0.9955115149881802,0.9955115149881802,0.0,0,False
2023-02-15,0.9955115149881802,0.9955115149881802,0.0,0,False
2023-02-16,0.9955115149881802,0.9955115149881802,0.0,0,False
2023-02-17,0.9955115149881802,0.9955115149881802,0.0,0,False
2023-02-18,0.9955115149881802,0.9955115149881802,0.0,0,False
2023-02-19,0.9955115149881802,0.9955115149881802,0.0,0,False
2023-02-20,0.9955115149881802,0.9955115149881802,0.0,0,False
2023-02-21,0.9955115149881802,0.993614598322806,-0.19054693359290553,3,True
2023-02-22,0.993614598322806,0.9922084553244819,-0.1415179487799012,2,True
2023-02-23,0.9922084553244819,1.0003891681964339,0.8244953797815313,1,True
2023-02-24,1.0003891681964339,1.0003891681964339,0.0,0,False
2023-02-25,1.0003891681964339,1.0003891681964339,0.0,0,False
2023-02-26,1.0003891681964339,1.0013353637832205,0.09458275008040751,1,True
2023-02-27,1.0013353637832205,0.9988359628882466,-0.2496067736518115,1,True
2023-02-28,0.9988359628882466,0.9988359628882466,0.0,0,False
2023-03-01,0.9988359628882466,0.9988359628882466,0.0,0,False
2023-03-02,0.9988359628882466,0.9988359628882466,0.0,0,False
2023-03-03,0.9988359628882466,0.9983858903677627,-0.045059703215177827,6,True
2023-03-04,0.9983858903677627,0.9983858903677627,0.0,0,False
2023-03-05,0.9983858903677627,0.9983858903677627,0.0,0,False
2023-03-06,0.9983858903677627,0.9983858903677627,0.0,0,False
2023-03-07,0.9983858903677627,0.9983858903677627,0.0,0,False
2023-03-08,0.9983858903677627,0.9983858903677627,0.0,0,False
2023-03-09,0.9983858903677627,0.9983858903677627,0.0,0,False
2023-03-10,0.9983858903677627,0.9958904625294704,-0.24994622443763603,1,True
2023-03-11,0.9958904625294704,1.0037895819131237,0.7931715063913991,3,True
2023-03-12,1.0037895819131237,1.0059064474245274,0.21088737615397868,0,True
2023-03-13,1.0059064474245274,1.0059064474245274,0.0,0,False
2023-03-14,1.0059064474245274,1.0059064474245274,0.0,0,False
2023-03-15,1.0059064474245274,1.0059064474245274,0.0,0,False
2023-03-16,1.0059064474245274,1.0098298499138596,0.39003651874163214,5,True
2023-03-17,1.0098298499138596,1.0079058629688398,-0.19052585395291644,2,True
2023-03-18,1.0079058629688398,1.0067447297602823,-0.11520254531879326,0,True
2023-03-19,1.0067447297602823,1.0067447297602823,0.0,0,False
2023-03-20,1.0067447297602823,1.0067447297602823,0.0,0,False
2023-03-21,1.0067447297602823,1.0017264504600356,-0.49846591215249036,2,True
2023-03-22,1.0017264504600356,1.0017264504600356,0.0,0,False
2023-03-23,1.0017264504600356,1.0071255435295998,0.5389787867820406,3,True
2023-03-24,1.0071255435295998,1.0080120029368351,0.08801875922326285,0,True
2023-03-25,1.0080120029368351,1.005496857393412,-0.24951543593679792,1,True
2023-03-26,1.005496857393412,1.005496857393412,0.0,0,False
2023-03-27,1.005496857393412,1.005496857393412,0.0,0,False
2023-03-28,1.005496857393412,1.005496857393412,0.0,0,False
2023-03-29,1.005496857393412,1.005496857393412,0.0,0,False
2023-03-30,1.005496857393412,1.005496857393412,0.0,0,False
2023-03-31,1.005496857393412,1.005496857393412,0.0,0,False
2023-04-01,1.005496857393412,1.005496857393412,0.0,0,False
2023-04-02,1.005496857393412,1.005496857393412,0.0,0,False
2023-04-03,1.005496857393412,1.005496857393412,0.0,0,False
2023-04-04,1.005496857393412,1.00298685306638,-0.2496282617470147,1,True
2023-04-05,1.00298685306638,1.00298685306638,0.0,0,False
2023-04-06,1.00298685306638,1.0004845022531474,-0.2494898916752697,1,True
2023-04-07,1.0004845022531474,0.9979853084044294,-0.2497983570049933,1,True
2023-04-08,0.9979853084044294,0.9979853084044294,0.0,0,False
2023-04-09,0.9979853084044294,0.9979853084044294,0.0,0,False
2023-04-10,0.9979853084044294,0.9979853084044294,0.0,0,False
2023-04-11,0.9979853084044294,0.9979853084044294,0.0,0,False
2023-04-12,0.9979853084044294,0.9979853084044294,0.0,0,False
2023-04-13,0.9979853084044294,0.9979853084044294,0.0,0,False
2023-04-14,0.9979853084044294,0.9979853084044294,0.0,0,False
2023-04-15,0.9979853084044294,0.9979853084044294,0.0,0,False
2023-04-16,0.9979853084044294,0.9979853084044294,0.0,0,False
2023-04-17,0.9979853084044294,0.9954942838467322,-0.249605333537406,1,True
2023-04-18,0.9954942838467322,0.9954942838467322,0.0,0,False
2023-04-19,0.9954942838467322,0.9880587694466815,-0.7469168352548294,3,True
2023-04-20,0.9880587694466815,0.9880587694466815,0.0,0,False
2023-04-21,0.9880587694466815,0.9880587694466815,0.0,0,False
2023-04-22,0.9880587694466815,0.9880587694466815,0.0,0,False
2023-04-23,0.9880587694466815,0.9880587694466815,0.0,0,False
2023-04-24,0.9880587694466815,0.9880587694466815,0.0,0,False
2023-04-25,0.9880587694466815,0.9880587694466815,0.0,0,False
2023-04-26,0.9880587694466815,0.9880587694466815,0.0,0,False
2023-04-27,0.9880587694466815,0.9880587694466815,0.0,0,False
2023-04-28,0.9880587694466815,0.9880587694466815,0.0,0,False
2023-04-29,0.9880587694466815,0.9880587694466815,0.0,0,False
2023-04-30,0.9880587694466815,0.9880587694466815,0.0,0,False
2023-05-01,0.9880587694466815,0.9880587694466815,0.0,0,False
2023-05-02,0.9880587694466815,0.9880587694466815,0.0,0,False
2023-05-03,0.9880587694466815,0.9880587694466815,0.0,0,False
2023-05-04,0.9880587694466815,0.9880587694466815,0.0,0,False
2023-05-05,0.9880587694466815,0.9880587694466815,0.0,0,False
2023-05-06,0.9880587694466815,0.9880587694466815,0.0,0,False
2023-05-07,0.9880587694466815,0.9880587694466815,0.0,0,False
2023-05-08,0.9880587694466815,0.9861148514059256,-0.19674113533191262,5,True
2023-05-09,0.9861148514059256,0.9858099602888469,-0.030918418543635084,2,True
2023-05-10,0.9858099602888469,0.9868987398488986,0.11044517745921745,1,True
2023-05-11,0.9868987398488986,0.9879738071385029,0.10893390032788997,0,True
2023-05-12,0.9879738071385029,0.9879738071385029,0.0,0,False
2023-05-13,0.9879738071385029,0.9879738071385029,0.0,0,False
2023-05-14,0.9879738071385029,0.9879738071385029,0.0,0,False
2023-05-15,0.9879738071385029,0.9879738071385029,0.0,0,False
2023-05-16,0.9879738071385029,0.9879738071385029,0.0,0,False
2023-05-17,0.9879738071385029,0.9879738071385029,0.0,0,False
2023-05-18,0.9879738071385029,0.9879738071385029,0.0,0,False
2023-05-19,0.9879738071385029,0.9879738071385029,0.0,0,False
2023-05-20,0.9879738071385029,0.9879738071385029,0.0,0,False
2023-05-21,0.9879738071385029,0.9879738071385029,0.0,0,False
2023-05-22,0.9879738071385029,0.9879738071385029,0.0,0,False
2023-05-23,0.9879738071385029,0.9879738071385029,0.0,0,False
2023-05-24,0.9879738071385029,0.9879738071385029,0.0,0,False
2023-05-25,0.9879738071385029,0.9879738071385029,0.0,0,False
2023-05-26,0.9879738071385029,0.9894031341034665,0.1446725565633633,1,True
2023-05-27,0.9894031341034665,0.9894083795646793,0.0005301642002075724,1,True
2023-05-28,0.9894083795646793,0.9894083795646793,0.0,0,False
2023-05-29,0.9894083795646793,0.9894083795646793,0.0,0,False
2023-05-30,0.9894083795646793,0.9953047976896623,0.5959539303252326,1,True
2023-05-31,0.9953047976896623,0.999911989399947,0.4628925451760191,0,True
2023-06-01,0.999911989399947,0.999911989399947,0.0,0,False
2023-06-02,0.999911989399947,1.0085292855001704,0.8618054580378454,3,True
2023-06-03,1.0085292855001704,1.0024351161823246,-0.6042630001392046,1,True
2023-06-04,1.0024351161823246,1.0024351161823246,0.0,0,False
2023-06-05,1.0024351161823246,1.0024351161823246,0.0,0,False
2023-06-06,1.0024351161823246,0.9924558344750211,-0.9955040028235107,4,True
2023-06-07,0.9924558344750211,0.9924558344750211,0.0,0,False
2023-06-08,0.9924558344750211,0.9899779534379198,-0.24967166810117014,1,True
2023-06-09,0.9899779534379198,0.9899779534379198,0.0,0,False
2023-06-10,0.9899779534379198,1.0047478365676534,1.4919406112471334,5,True
2023-06-11,1.0047478365676534,1.0044328393035666,-0.031350877565738955,0,True
2023-06-12,1.0044328393035666,1.0044328393035666,0.0,0,False
2023-06-13,1.0044328393035666,1.0019248370242955,-0.2496933773103338,1,True
2023-06-14,1.0019248370242955,1.0019248370242955,0.0,0,False
2023-06-15,1.0019248370242955,1.0019248370242955,0.0,0,False
2023-06-16,1.0019248370242955,1.0019248370242955,0.0,0,False
2023-06-17,1.0019248370242955,1.0019248370242955,0.0,0,False
2023-06-18,1.0019248370242955,1.0019248370242955,0.0,0,False
2023-06-19,1.0019248370242955,1.0058241571397983,0.38918289789919847,1,True
2023-06-20,1.0058241571397983,1.0064358153909427,0.060811648517544725,0,True
2023-06-21,1.0064358153909427,1.0064358153909427,0.0,0,False
2023-06-22,1.0064358153909427,1.0138721260216161,0.7388757948548097,2,True
2023-06-23,1.0138721260216161,1.0138721260216161,0.0,0,False
2023-06-24,1.0138721260216161,1.0138721260216161,0.0,0,False
2023-06-25,1.0138721260216161,1.0113397079269875,-0.24977687320054676,1,True
2023-06-26,1.0113397079269875,1.0113397079269875,0.0,0,False
2023-06-27,1.0113397079269875,1.0113397079269875,0.0,0,False
2023-06-28,1.0113397079269875,1.0113397079269875,0.0,0,False
2023-06-29,1.0113397079269875,1.0113397079269875,0.0,0,False
2023-06-30,1.0113397079269875,1.001259608826446,-0.9967075376881351,4,True
2023-07-01,1.001259608826446,0.9987609329788812,-0.24955324528604939,1,True
2023-07-02,0.9987609329788812,0.9987609329788812,0.0,0,False
2023-07-03,0.9987609329788812,0.9987609329788812,0.0,0,False
2023-07-04,0.9987609329788812,0.9987609329788812,0.0,0,False
2023-07-05,0.9987609329788812,0.9962669060895909,-0.2497120989556234,1,True
2023-07-06,0.9962669060895909,0.9962669060895909,0.0,0,False
2023-07-07,0.9962669060895909,0.9962669060895909,0.0,0,False
2023-07-08,0.9962669060895909,0.9962669060895909,0.0,0,False
2023-07-09,0.9962669060895909,0.9962669060895909,0.0,0,False
2023-07-10,0.9962669060895909,0.9962669060895909,0.0,0,False
2023-07-11,0.9962669060895909,0.9962669060895909,0.0,0,False
2023-07-12,0.9962669060895909,0.9962669060895909,0.0,0,False
2023-07-13,0.9962669060895909,0.9962669060895909,0.0,0,False
2023-07-14,0.9962669060895909,0.9962669060895909,0.0,0,False
2023-07-15,0.9962669060895909,0.9962669060895909,0.0,0,False
2023-07-16,0.9962669060895909,0.9962669060895909,0.0,0,False
2023-07-17,0.9962669060895909,0.9962669060895909,0.0,0,False
2023-07-18,0.9962669060895909,0.9962669060895909,0.0,0,False
2023-07-19,0.9962669060895909,0.9962669060895909,0.0,0,False
2023-07-20,0.9962669060895909,0.9962669060895909,0.0,0,False
2023-07-21,0.9962669060895909,0.9962669060895909,0.0,0,False
2023-07-22,0.9962669060895909,0.9962669060895909,0.0,0,False
2023-07-23,0.9962669060895909,0.9962669060895909,0.0,0,False
2023-07-24,0.9962669060895909,0.9941142915134492,-0.21606805997308465,2,True
2023-07-25,0.9941142915134492,0.9940050135783342,-0.010992492115635688,0,True
2023-07-26,0.9940050135783342,0.9940050135783342,0.0,0,False
2023-07-27,0.9940050135783342,0.9940050135783342,0.0,0,False
2023-07-28,0.9940050135783342,0.9940050135783342,0.0,0,False
2023-07-29,0.9940050135783342,0.9940050135783342,0.0,0,False
2023-07-30,0.9940050135783342,0.9940050135783342,0.0,0,False
2023-07-31,0.9940050135783342,0.9940050135783342,0.0,0,False
2023-08-01,0.9940050135783342,0.9940050135783342,0.0,0,False
2023-08-02,0.9940050135783342,0.9940050135783342,0.0,0,False
2023-08-03,0.9940050135783342,0.9940050135783342,0.0,0,False
2023-08-04,0.9940050135783342,0.9940050135783342,0.0,0,False
2023-08-05,0.9940050135783342,0.9940050135783342,0.0,0,False
2023-08-06,0.9940050135783342,0.9940050135783342,0.0,0,False
2023-08-07,0.9940050135783342,0.9940050135783342,0.0,0,False
2023-08-08,0.9940050135783342,0.9940050135783342,0.0,0,False
2023-08-09,0.9940050135783342,0.9940050135783342,0.0,0,False
2023-08-10,0.9940050135783342,0.9940050135783342,0.0,0,False
2023-08-11,0.9940050135783342,0.9940050135783342,0.0,0,False
2023-08-12,0.9940050135783342,0.9940050135783342,0.0,0,False
2023-08-13,0.9940050135783342,0.9997455745909878,0.5775183157264108,1,True
2023-08-14,0.9997455745909878,0.999999856265618,0.025434638681365307,1,True
2023-08-15,0.999999856265618,1.000204773478478,0.020491724231352926,0,True
2023-08-16,1.000204773478478,1.0061240445738695,0.5918059233816386,4,True
2023-08-17,1.0061240445738695,1.0046821220914595,-0.14331458334451153,1,True
2023-08-18,1.0046821220914595,1.0374385766374221,3.2603799575703807,4,True
2023-08-19,1.0374385766374221,1.0479985057758585,1.017884757347609,2,True
2023-08-20,1.0479985057758585,1.0477074332898717,-0.02777413177429411,0,True
2023-08-21,1.0477074332898717,1.0477074332898717,0.0,0,False
2023-08-22,1.0477074332898717,1.0477074332898717,0.0,0,False
2023-08-23,1.0477074332898717,1.0477074332898717,0.0,0,False
2023-08-24,1.0477074332898717,1.0477074332898717,0.0,0,False
2023-08-25,1.0477074332898717,1.0459364333782124,-0.1690357303372636,4,True
2023-08-26,1.0459364333782124,1.0471771591126093,0.118623435880294,0,True
2023-08-27,1.0471771591126093,1.0471771591126093,0.0,0,False
2023-08-28,1.0471771591126093,1.0471771591126093,0.0,0,False
2023-08-29,1.0471771591126093,1.0477979608615322,0.05928335463780687,1,True
2023-08-30,1.0477979608615322,1.0477979608615322,0.0,0,False
2023-08-31,1.0477979608615322,1.0477979608615322,0.0,0,False
2023-09-01,1.0477979608615322,1.0477979608615322,0.0,0,False
2023-09-02,1.0477979608615322,1.0650765387604733,1.6490371755194078,3,True
2023-09-03,1.0650765387604733,1.0807277446576073,1.4694911893701867,0,True
2023-09-04,1.0807277446576073,1.0803428139911093,-0.035617727813586075,1,True
2023-09-05,1.0803428139911093,1.084930745482083,0.4246736713159116,2,True
2023-09-06,1.084930745482083,1.0926270402841378,0.7093812055842363,1,True
2023-09-07,1.0926270402841378,1.0926270402841378,0.0,0,False
2023-09-08,1.0926270402841378,1.0885981943214487,-0.3687302084013466,3,True
2023-09-09,1.0885981943214487,1.0850794474092385,-0.3232365192745501,1,True
2023-09-10,1.0850794474092385,1.0812784747700281,-0.35029440915922416,3,True
2023-09-11,1.0812784747700281,1.0790736922774646,-0.2039051496916633,1,True
2023-09-12,1.0790736922774646,1.0790736922774646,0.0,0,False
2023-09-13,1.0790736922774646,1.0763802307120698,-0.2496086768374539,1,True
2023-09-14,1.0763802307120698,1.0763802307120698,0.0,0,False
2023-09-15,1.0763802307120698,1.0763802307120698,0.0,0,False
2023-09-16,1.0763802307120698,1.0736895577287162,-0.2499742104677627,1,True
2023-09-17,1.0736895577287162,1.0765988635210975,0.2709634057106447,1,True
2023-09-18,1.0765988635210975,1.0685551625582759,-0.7471400198690636,3,True
2023-09-19,1.0685551625582759,1.0685551625582759,0.0,0,False
2023-09-20,1.0685551625582759,1.070516197625487,0.18352211808290164,1,True
2023-09-21,1.070516197625487,1.0728963308986377,0.2223351013679098,0,True
2023-09-22,1.0728963308986377,1.0728963308986377,0.0,0,False
2023-09-23,1.0728963308986377,1.0728963308986377,0.0,0,False
2023-09-24,1.0728963308986377,1.0728963308986377,0.0,0,False
2023-09-25,1.0728963308986377,1.0728963308986377,0.0,0,False
2023-09-26,1.0728963308986377,1.0736479057952046,0.07005102682544617,1,True
2023-09-27,1.0736479057952046,1.069926002729753,-0.3466595562066521,1,True
2023-09-28,1.069926002729753,1.069926002729753,0.0,0,False
2023-09-29,1.069926002729753,1.069926002729753,0.0,0,False
2023-09-30,1.069926002729753,1.069926002729753,0.0,0,False
2023-10-01,1.069926002729753,1.069926002729753,0.0,0,False
2023-10-02,1.069926002729753,1.069926002729753,0.0,0,False
2023-10-03,1.069926002729753,1.0702261116503018,0.02804950246868554,1,True
2023-10-04,1.0702261116503018,1.0672528818026565,-0.27781324107860605,0,True
2023-10-05,1.0672528818026565,1.0672528818026565,0.0,0,False
2023-10-06,1.0672528818026565,1.0672528818026565,0.0,0,False
2023-10-07,1.0672528818026565,1.0672528818026565,0.0,0,False
2023-10-08,1.0672528818026565,1.0672528818026565,0.0,0,False
2023-10-09,1.0672528818026565,1.0645859664411386,-0.24988598363054892,1,True
2023-10-10,1.0645859664411386,1.0645859664411386,0.0,0,False
2023-10-11,1.0645859664411386,1.0645859664411386,0.0,0,False
2023-10-12,1.0645859664411386,1.0645859664411386,0.0,0,False
2023-10-13,1.0645859664411386,1.0645859664411386,0.0,0,False
2023-10-14,1.0645859664411386,1.0645859664411386,0.0,0,False
2023-10-15,1.0645859664411386,1.0646221734877648,0.003401044891404581,1,True
2023-10-16,1.0646221734877648,1.0652697165466407,0.06082374339007046,1,True
2023-10-17,1.0652697165466407,1.0622365084701597,-0.28473615924368145,1,True
2023-10-18,1.0622365084701597,1.0622365084701597,0.0,0,False
2023-10-19,1.0622365084701597,1.0569439091759196,-0.4982505545645832,2,True
2023-10-20,1.0569439091759196,1.0569439091759196,0.0,0,False
2023-10-21,1.0569439091759196,1.0577041742503877,0.071930503394535,1,True
2023-10-22,1.0577041742503877,1.0577041742503877,0.0,0,False
2023-10-23,1.0577041742503877,1.0577041742503877,0.0,0,False
2023-10-24,1.0577041742503877,1.0550638531370533,-0.24962755916185797,1,True
2023-10-25,1.0550638531370533,1.0553301880873946,0.025243491145054975,1,True
2023-10-26,1.0553301880873946,1.064295719642296,0.849547530820649,5,True
2023-10-27,1.064295719642296,1.0629034937394248,-0.13081194231797655,2,True
2023-10-28,1.0629034937394248,1.0662295673081392,0.3129233828193412,1,True
2023-10-29,1.0662295673081392,1.0662295673081392,0.0,0,False
2023-10-30,1.0662295673081392,1.0662295673081392,0.0,0,False
2023-10-31,1.0662295673081392,1.0662295673081392,0.0,0,False
2023-11-01,1.0662295673081392,1.0662295673081392,0.0,0,False
2023-11-02,1.0662295673081392,1.0662295673081392,0.0,0,False
2023-11-03,1.0662295673081392,1.0635682458160711,-0.24960117161137996,1,True
2023-11-04,1.0635682458160711,1.0635682458160711,0.0,0,False
2023-11-05,1.0635682458160711,1.069603370192463,0.5674411961934078,1,True
2023-11-06,1.069603370192463,1.0707698292694994,0.10905529185332163,1,True
2023-11-07,1.0707698292694994,1.0676416937284403,-0.2921389317808054,1,True
2023-11-08,1.0676416937284403,1.0676416937284403,0.0,0,False
2023-11-09,1.0676416937284403,1.072116692319633,0.41914797984003993,4,True
2023-11-10,1.072116692319633,1.0785415452243066,0.5992680601560885,4,True
2023-11-11,1.0785415452243066,1.0785415452243066,0.0,0,False
2023-11-12,1.0785415452243066,1.0785415452243066,0.0,0,False
2023-11-13,1.0785415452243066,1.0780533462430584,-0.04526473582866508,1,True
2023-11-14,1.0780533462430584,1.082017353106741,0.36770043685656617,1,True
2023-11-15,1.082017353106741,1.082017353106741,0.0,0,False
2023-11-16,1.082017353106741,1.082017353106741,0.0,0,False
2023-11-17,1.082017353106741,1.0810538298497365,-0.08904878043202169,1,True
2023-11-18,1.0810538298497365,1.0770261552140337,-0.3725692953016724,2,True
2023-11-19,1.0770261552140337,1.077286109405965,0.024136293317744695,0,True
2023-11-20,1.077286109405965,1.0786558427705912,0.12714666537207986,1,True
2023-11-21,1.0786558427705912,1.0758384699714172,-0.26119292989109644,0,True
2023-11-22,1.0758384699714172,1.0731519766767943,-0.2497115849272702,1,True
2023-11-23,1.0731519766767943,1.0731519766767943,0.0,0,False
2023-11-24,1.0731519766767943,1.0731519766767943,0.0,0,False
2023-11-25,1.0731519766767943,1.071514771127192,-0.1525604560383198,1,True
2023-11-26,1.071514771127192,1.071514771127192,0.0,0,False
2023-11-27,1.071514771127192,1.0673353046394198,-0.39005215797216497,2,True
2023-11-28,1.0673353046394198,1.0646701490239925,-0.24970181383887624,1,True
2023-11-29,1.0646701490239925,1.059350016260545,-0.49969774848338533,2,True
2023-11-30,1.059350016260545,1.0582407962508777,-0.1047076030246008,1,True
2023-12-01,1.0582407962508777,1.0582407962508777,0.0,0,False
2023-12-02,1.0582407962508777,1.062980735417452,0.4479074312166986,1,True
2023-12-03,1.062980735417452,1.062461181470947,-0.04887708019477577,1,True
2023-12-04,1.062461181470947,1.0671121937003116,0.4377583210075864,5,True
2023-12-05,1.0671121937003116,1.0726418129321575,0.5181853664956604,1,True
2023-12-06,1.0726418129321575,1.0693716291009252,-0.3048719331845806,0,True
2023-12-07,1.0693716291009252,1.0667027467585017,-0.24957482224091665,1,True
2023-12-08,1.0667027467585017,1.0667027467585017,0.0,0,False
2023-12-09,1.0667027467585017,1.0667027467585017,0.0,0,False
2023-12-10,1.0667027467585017,1.0667027467585017,0.0,0,False
2023-12-11,1.0667027467585017,1.077255013674899,0.9892415622312356,4,True
2023-12-12,1.077255013674899,1.077255013674899,0.0,0,False
2023-12-13,1.077255013674899,1.0767883437818784,-0.043320280443970294,1,True
2023-12-14,1.0767883437818784,1.0767883437818784,0.0,0,False
2023-12-15,1.0767883437818784,1.0767883437818784,0.0,0,False
2023-12-16,1.0767883437818784,1.0757577904287978,-0.09570621367065435,1,True
2023-12-17,1.0757577904287978,1.0730726325301014,-0.2496061773929692,1,True
2023-12-18,1.0730726325301014,1.0759345400464293,0.2667021252401147,1,True
2023-12-19,1.0759345400464293,1.0739383020026432,-0.18553526906014417,0,True
2023-12-20,1.0739383020026432,1.0739383020026432,0.0,0,False
2023-12-21,1.0739383020026432,1.0712573706962711,-0.24963550525879397,1,True
2023-12-22,1.0712573706962711,1.0712573706962711,0.0,0,False
2023-12-23,1.0712573706962711,1.0712573706962711,0.0,0,False
2023-12-24,1.0712573706962711,1.0701456590304639,-0.10377633762134186,1,True
2023-12-25,1.0701456590304639,1.0685855978508179,-0.1457802651892659,0,True
2023-12-26,1.0685855978508179,1.0685855978508179,0.0,0,False
2023-12-27,1.0685855978508179,1.064083754359259,-0.42128992760273043,2,True
2023-12-28,1.064083754359259,1.0652704195341507,0.11151990339390849,1,True
2023-12-29,1.0652704195341507,1.0616061153488185,-0.34397877929761567,1,True
2023-12-30,1.0616061153488185,1.0643412340644913,0.2576396910424883,2,True
2023-12-31,1.0643412340644913,1.0595704188041088,-0.4482411380571816,1,True
