day,start_equity,end_equity,return_pct,entries,active
2021-09-02,1.0,1.0,0.0,0,False
2021-09-03,1.0,1.0,0.0,0,False
2021-09-04,1.0,1.0,0.0,0,False
2021-09-05,1.0,1.0,0.0,0,False
2021-09-06,1.0,1.0,0.0,0,False
2021-09-07,1.0,1.0,0.0,0,False
2021-09-08,1.0,1.0,0.0,0,False
2021-09-09,1.0,1.0,0.0,0,False
2021-09-10,1.0,1.0,0.0,0,False
2021-09-11,1.0,1.0,0.0,0,False
2021-09-12,1.0,1.0,0.0,0,False
2021-09-13,1.0,1.0,0.0,0,False
2021-09-14,1.0,1.0,0.0,0,False
2021-09-15,1.0,1.0,0.0,0,False
2021-09-16,1.0,1.0,0.0,0,False
2021-09-17,1.0,1.0,0.0,0,False
2021-09-18,1.0,1.0,0.0,0,False
2021-09-19,1.0,1.0,0.0,0,False
2021-09-20,1.0,1.0,0.0,0,False
2021-09-21,1.0,1.0,0.0,0,False
2021-09-22,1.0,1.0,0.0,0,False
2021-09-23,1.0,1.0,0.0,0,False
2021-09-24,1.0,1.0,0.0,0,False
2021-09-25,1.0,1.0,0.0,0,False
2021-09-26,1.0,1.0,0.0,0,False
2021-09-27,1.0,1.0,0.0,0,False
2021-09-28,1.0,1.0,0.0,0,False
2021-09-29,1.0,1.0,0.0,0,False
2021-09-30,1.0,1.0,0.0,0,False
2021-10-01,1.0,1.0,0.0,0,False
2021-10-02,1.0,1.0,0.0,0,False
2021-10-03,1.0,1.0,0.0,0,False
2021-10-04,1.0,1.0,0.0,0,False
2021-10-05,1.0,1.0,0.0,0,False
2021-10-06,1.0,0.9950029632797638,-0.4997036720236214,1,True
2021-10-07,0.9950029632797638,0.9950029632797638,0.0,0,False
2021-10-08,0.9950029632797638,0.9950029632797638,0.0,0,False
2021-10-09,0.9950029632797638,0.9950029632797638,0.0,0,False
2021-10-10,0.9950029632797638,0.9950029632797638,0.0,0,False
2021-10-11,0.9950029632797638,0.9950029632797638,0.0,0,False
2021-10-12,0.9950029632797638,0.9950029632797638,0.0,0,False
2021-10-13,0.9950029632797638,1.0004023398410244,0.5426492945772798,1,True
2021-10-14,1.0004023398410244,1.0037435908105368,0.33399071917836753,0,True
2021-10-15,1.0037435908105368,1.0037435908105368,0.0,0,False
2021-10-16,1.0037435908105368,0.9999606306702636,-0.3768851103914228,1,True
2021-10-17,0.9999606306702636,1.0002050543991954,0.024443335210899697,0,True
2021-10-18,1.0002050543991954,1.0002050543991954,0.0,0,False
2021-10-19,1.0002050543991954,1.0002050543991954,0.0,0,False
2021-10-20,1.0002050543991954,1.0002050543991954,0.0,0,False
2021-10-21,1.0002050543991954,1.0002050543991954,0.0,0,False
2021-10-22,1.0002050543991954,1.0002050543991954,0.0,0,False
2021-10-23,1.0002050543991954,1.0002050543991954,0.0,0,False
2021-10-24,1.0002050543991954,1.0002050543991954,0.0,0,False
2021-10-25,1.0002050543991954,1.0044879967812383,0.428206432591538,1,True
2021-10-26,1.0044879967812383,1.0044879967812383,0.0,0,False
2021-10-27,1.0044879967812383,1.019107641095569,1.4554324552585651,4,True
2021-10-28,1.019107641095569,1.0161304402053621,-0.29213802057320715,0,True
2021-10-29,1.0161304402053621,1.0161304402053621,0.0,0,False
2021-10-30,1.0161304402053621,1.0148908753042805,-0.12198875774562801,1,True
2021-10-31,1.0148908753042805,1.0151755063121277,0.028045479053284694,0,True
2021-11-01,1.0151755063121277,1.0151755063121277,0.0,0,False
2021-11-02,1.0151755063121277,1.0151755063121277,0.0,0,False
2021-11-03,1.0151755063121277,1.0151755063121277,0.0,0,False
2021-11-04,1.0151755063121277,1.0151755063121277,0.0,0,False
2021-11-05,1.0151755063121277,1.0151755063121277,0.0,0,False
2021-11-06,1.0151755063121277,1.0151755063121277,0.0,0,False
2021-11-07,1.0151755063121277,1.0151755063121277,0.0,0,False
2021-11-08,1.0151755063121277,1.0151755063121277,0.0,0,False
2021-11-09,1.0151755063121277,1.0151755063121277,0.0,0,False
2021-11-10,1.0151755063121277,1.0151755063121277,0.0,0,False
2021-11-11,1.0151755063121277,1.0296827709166074,1.429040054086883,6,True
2021-11-12,1.0296827709166074,1.0296827709166074,0.0,0,False
2021-11-13,1.0296827709166074,1.0296827709166074,0.0,0,False
2021-11-14,1.0296827709166074,1.0296827709166074,0.0,0,False
2021-11-15,1.0296827709166074,1.0296827709166074,0.0,0,False
2021-11-16,1.0296827709166074,1.064272977530024,3.3593071177276057,4,True
2021-11-17,1.064272977530024,1.0633082327406465,-0.0906482462437852,0,True
2021-11-18,1.0633082327406465,1.05893688633065,-0.4111081129062,1,True
2021-11-19,1.05893688633065,1.057992572280323,-0.08917566877846284,0,True
2021-11-20,1.057992572280323,1.057992572280323,0.0,0,False
2021-11-21,1.057992572280323,1.057992572280323,0.0,0,False
2021-11-22,1.057992572280323,1.057992572280323,0.0,0,False
2021-11-23,1.057992572280323,1.057992572280323,0.0,0,False
2021-11-24,1.057992572280323,1.057992572280323,0.0,0,False
2021-11-25,1.057992572280323,1.057992572280323,0.0,0,False
2021-11-26,1.057992572280323,1.0629513782406272,0.4686995060481758,5,True
2021-11-27,1.0629513782406272,1.061133684065724,-0.17100445157819388,0,True
2021-11-28,1.061133684065724,1.0558338035921515,-0.49945455065246724,1,True
2021-11-29,1.0558338035921515,1.0558338035921515,0.0,0,False
2021-11-30,1.0558338035921515,1.0558338035921515,0.0,0,False
2021-12-01,1.0558338035921515,1.0529782121102687,-0.2704584255748932,1,True
2021-12-02,1.0529782121102687,1.0538325493248948,0.0811353174073659,1,True
2021-12-03,1.0538325493248948,1.0505716193726513,-0.30943530396100316,1,True
2021-12-04,1.0505716193726513,1.0244800071159224,-2.483563402589306,5,True
2021-12-05,1.0244800071159224,1.0244800071159224,0.0,0,False
2021-12-06,1.0244800071159224,1.0244800071159224,0.0,0,False
2021-12-07,1.0244800071159224,1.0244800071159224,0.0,0,False
2021-12-08,1.0244800071159224,1.0244800071159224,0.0,0,False
2021-12-09,1.0244800071159224,1.0244800071159224,0.0,0,False
2021-12-10,1.0244800071159224,1.0244800071159224,0.0,0,False
2021-12-11,1.0244800071159224,1.0244800071159224,0.0,0,False
2021-12-12,1.0244800071159224,1.0244800071159224,0.0,0,False
2021-12-13,1.0244800071159224,1.0244800071159224,0.0,0,False
2021-12-14,1.0244800071159224,1.0244800071159224,0.0,0,False
2021-12-15,1.0244800071159224,1.0244800071159224,0.0,0,False
2021-12-16,1.0244800071159224,1.0244800071159224,0.0,0,False
2021-12-17,1.0244800071159224,1.0237148423913516,-0.07468810706465767,1,True
2021-12-18,1.0237148423913516,1.0237148423913516,0.0,0,False
2021-12-19,1.0237148423913516,1.0237148423913516,0.0,0,False
2021-12-20,1.0237148423913516,1.0237148423913516,0.0,0,False
2021-12-21,1.0237148423913516,1.0237148423913516,0.0,0,False
2021-12-22,1.0237148423913516,1.0237148423913516,0.0,0,False
2021-12-23,1.0237148423913516,1.0237148423913516,0.0,0,False
2021-12-24,1.0237148423913516,1.0237148423913516,0.0,0,False
2021-12-25,1.0237148423913516,1.0237148423913516,0.0,0,False
2021-12-26,1.0237148423913516,1.0237148423913516,0.0,0,False
2021-12-27,1.0237148423913516,1.0237148423913516,0.0,0,False
2021-12-28,1.0237148423913516,1.0237148423913516,0.0,0,False
2021-12-29,1.0237148423913516,1.0237148423913516,0.0,0,False
2021-12-30,1.0237148423913516,1.0237148423913516,0.0,0,False
2021-12-31,1.0237148423913516,1.0237148423913516,0.0,0,False
2022-01-01,1.0237148423913516,1.0237148423913516,0.0,0,False
2022-01-02,1.0237148423913516,1.0237148423913516,0.0,0,False
2022-01-03,1.0237148423913516,1.0237148423913516,0.0,0,False
2022-01-04,1.0237148423913516,1.0237148423913516,0.0,0,False
2022-01-05,1.0237148423913516,1.0237148423913516,0.0,0,False
2022-01-06,1.0237148423913516,1.0248477059226366,0.11066202074776488,1,True
2022-01-07,1.0248477059226366,1.0248477059226366,0.0,0,False
2022-01-08,1.0248477059226366,1.0248477059226366,0.0,0,False
2022-01-09,1.0248477059226366,1.0248477059226366,0.0,0,False
2022-01-10,1.0248477059226366,1.0248477059226366,0.0,0,False
2022-01-11,1.0248477059226366,1.0248477059226366,0.0,0,False
2022-01-12,1.0248477059226366,1.0248477059226366,0.0,0,False
2022-01-13,1.0248477059226366,1.0248477059226366,0.0,0,False
2022-01-14,1.0248477059226366,1.0248477059226366,0.0,0,False
2022-01-15,1.0248477059226366,1.0248477059226366,0.0,0,False
2022-01-16,1.0248477059226366,1.0248477059226366,0.0,0,False
2022-01-17,1.0248477059226366,1.0248477059226366,0.0,0,False
2022-01-18,1.0248477059226366,1.0248477059226366,0.0,0,False
2022-01-19,1.0248477059226366,1.0248477059226366,0.0,0,False
2022-01-20,1.0248477059226366,1.0248477059226366,0.0,0,False
2022-01-21,1.0248477059226366,1.0248477059226366,0.0,0,False
2022-01-22,1.0248477059226366,1.0248477059226366,0.0,0,False
2022-01-23,1.0248477059226366,1.0248477059226366,0.0,0,False
2022-01-24,1.0248477059226366,1.0248477059226366,0.0,0,False
2022-01-25,1.0248477059226366,1.0248477059226366,0.0,0,False
2022-01-26,1.0248477059226366,1.0248477059226366,0.0,0,False
2022-01-27,1.0248477059226366,1.0248477059226366,0.0,0,False
2022-01-28,1.0248477059226366,1.0248477059226366,0.0,0,False
2022-01-29,1.0248477059226366,1.0248477059226366,0.0,0,False
2022-01-30,1.0248477059226366,1.0248477059226366,0.0,0,False
2022-01-31,1.0248477059226366,1.0248477059226366,0.0,0,False
2022-02-01,1.0248477059226366,1.0248477059226366,0.0,0,False
2022-02-02,1.0248477059226366,1.0248477059226366,0.0,0,False
2022-02-03,1.0248477059226366,1.0248477059226366,0.0,0,False
2022-02-04,1.0248477059226366,1.0248477059226366,0.0,0,False
2022-02-05,1.0248477059226366,1.0248477059226366,0.0,0,False
2022-02-06,1.0248477059226366,1.0248477059226366,0.0,0,False
2022-02-07,1.0248477059226366,1.0248477059226366,0.0,0,False
2022-02-08,1.0248477059226366,1.0248477059226366,0.0,0,False
2022-02-09,1.0248477059226366,1.0248477059226366,0.0,0,False
2022-02-10,1.0248477059226366,1.0256283188988902,0.07616868064810323,2,True
2022-02-11,1.0256283188988902,1.0160038991264533,-0.9383925536269877,0,True
2022-02-12,1.0160038991264533,1.0160038991264533,0.0,0,False
2022-02-13,1.0160038991264533,1.0160038991264533,0.0,0,False
2022-02-14,1.0160038991264533,1.0160038991264533,0.0,0,False
2022-02-15,1.0160038991264533,1.0160038991264533,0.0,0,False
2022-02-16,1.0160038991264533,1.0160038991264533,0.0,0,False
2022-02-17,1.0160038991264533,1.0160038991264533,0.0,0,False
2022-02-18,1.0160038991264533,1.0160038991264533,0.0,0,False
2022-02-19,1.0160038991264533,1.0160038991264533,0.0,0,False
2022-02-20,1.0160038991264533,1.0160038991264533,0.0,0,False
2022-02-21,1.0160038991264533,1.0160038991264533,0.0,0,False
2022-02-22,1.0160038991264533,1.0160038991264533,0.0,0,False
2022-02-23,1.0160038991264533,1.0160038991264533,0.0,0,False
2022-02-24,1.0160038991264533,1.0160038991264533,0.0,0,False
2022-02-25,1.0160038991264533,1.0160038991264533,0.0,0,False
2022-02-26,1.0160038991264533,1.0160038991264533,0.0,0,False
2022-02-27,1.0160038991264533,1.0160038991264533,0.0,0,False
2022-02-28,1.0160038991264533,1.0160038991264533,0.0,0,False
2022-03-01,1.0160038991264533,1.0160038991264533,0.0,0,False
2022-03-02,1.0160038991264533,1.0160038991264533,0.0,0,False
2022-03-03,1.0160038991264533,1.0160038991264533,0.0,0,False
2022-03-04,1.0160038991264533,1.0160038991264533,0.0,0,False
2022-03-05,1.0160038991264533,1.0160038991264533,0.0,0,False
2022-03-06,1.0160038991264533,1.0160038991264533,0.0,0,False
2022-03-07,1.0160038991264533,1.0160038991264533,0.0,0,False
2022-03-08,1.0160038991264533,1.0160038991264533,0.0,0,False
2022-03-09,1.0160038991264533,1.0160038991264533,0.0,0,False
2022-03-10,1.0160038991264533,1.0160038991264533,0.0,0,False
2022-03-11,1.0160038991264533,1.0160038991264533,0.0,0,False
2022-03-12,1.0160038991264533,1.0160038991264533,0.0,0,False
2022-03-13,1.0160038991264533,1.0160038991264533,0.0,0,False
2022-03-14,1.0160038991264533,1.0160038991264533,0.0,0,False
2022-03-15,1.0160038991264533,1.0160038991264533,0.0,0,False
2022-03-16,1.0160038991264533,1.0160038991264533,0.0,0,False
2022-03-17,1.0160038991264533,1.0160038991264533,0.0,0,False
2022-03-18,1.0160038991264533,1.0160038991264533,0.0,0,False
2022-03-19,1.0160038991264533,1.0160038991264533,0.0,0,False
2022-03-20,1.0160038991264533,1.0160038991264533,0.0,0,False
2022-03-21,1.0160038991264533,1.0160038991264533,0.0,0,False
2022-03-22,1.0160038991264533,1.0160038991264533,0.0,0,False
2022-03-23,1.0160038991264533,1.0160038991264533,0.0,0,False
2022-03-24,1.0160038991264533,1.0160038991264533,0.0,0,False
2022-03-25,1.0160038991264533,1.0160038991264533,0.0,0,False
2022-03-26,1.0160038991264533,1.0177261985758537,0.16951701178324896,1,True
2022-03-27,1.0177261985758537,1.0177261985758537,0.0,0,False
2022-03-28,1.0177261985758537,1.0177261985758537,0.0,0,False
2022-03-29,1.0177261985758537,1.0177261985758537,0.0,0,False
2022-03-30,1.0177261985758537,1.0161031052635388,-0.1594823160282366,1,True
2022-03-31,1.0161031052635388,1.0161031052635388,0.0,0,False
2022-04-01,1.0161031052635388,1.0161031052635388,0.0,0,False
2022-04-02,1.0161031052635388,1.0161031052635388,0.0,0,False
2022-04-03,1.0161031052635388,1.0161031052635388,0.0,0,False
2022-04-04,1.0161031052635388,1.011027994969409,-0.49946804294170866,1,True
2022-04-05,1.011027994969409,1.011027994969409,0.0,0,False
2022-04-06,1.011027994969409,1.0122783878752417,0.12367539890629775,1,True
2022-04-07,1.0122783878752417,1.009346812091452,-0.2896017359358183,1,True
2022-04-08,1.009346812091452,1.009346812091452,0.0,0,False
2022-04-09,1.009346812091452,1.009346812091452,0.0,0,False
2022-04-10,1.009346812091452,1.009346812091452,0.0,0,False
2022-04-11,1.009346812091452,1.009346812091452,0.0,0,False
2022-04-12,1.009346812091452,1.009346812091452,0.0,0,False
2022-04-13,1.009346812091452,1.009346812091452,0.0,0,False
2022-04-14,1.009346812091452,1.009346812091452,0.0,0,False
2022-04-15,1.009346812091452,1.009346812091452,0.0,0,False
2022-04-16,1.009346812091452,1.009346812091452,0.0,0,False
2022-04-17,1.009346812091452,1.009346812091452,0.0,0,False
2022-04-18,1.009346812091452,1.0120972758454392,0.2724993749460669,1,True
2022-04-19,1.0120972758454392,1.0106658855417665,-0.14142813520340303,0,True
2022-04-20,1.0106658855417665,1.0106658855417665,0.0,0,False
2022-04-21,1.0106658855417665,1.0106658855417665,0.0,0,False
2022-04-22,1.0106658855417665,1.0106658855417665,0.0,0,False
2022-04-23,1.0106658855417665,1.0106658855417665,0.0,0,False
2022-04-24,1.0106658855417665,1.0106658855417665,0.0,0,False
2022-04-25,1.0106658855417665,1.0106658855417665,0.0,0,False
2022-04-26,1.0106658855417665,1.0106658855417665,0.0,0,False
2022-04-27,1.0106658855417665,1.0106658855417665,0.0,0,False
2022-04-28,1.0106658855417665,1.0106658855417665,0.0,0,False
2022-04-29,1.0106658855417665,1.0106658855417665,0.0,0,False
2022-04-30,1.0106658855417665,1.0106658855417665,0.0,0,False
2022-05-01,1.0106658855417665,1.027536074934166,1.669215280117653,4,True
2022-05-02,1.027536074934166,1.027536074934166,0.0,0,False
2022-05-03,1.027536074934166,1.027536074934166,0.0,0,False
2022-05-04,1.027536074934166,1.027536074934166,0.0,0,False
2022-05-05,1.027536074934166,1.027536074934166,0.0,0,False
2022-05-06,1.027536074934166,1.0231873034393069,-0.42322324256476307,2,True
2022-05-07,1.0231873034393069,1.022201235703513,-0.0963721629929637,0,True
2022-05-08,1.022201235703513,1.022201235703513,0.0,0,False
2022-05-09,1.022201235703513,1.022201235703513,0.0,0,False
2022-05-10,1.022201235703513,1.0119866241250322,-0.9992759959295938,2,True
2022-05-11,1.0119866241250322,0.9969746783015282,-1.4834134627503937,5,True
2022-05-12,0.9969746783015282,0.9819088857693419,-1.5111509710409865,1,True
2022-05-13,0.9819088857693419,0.9819088857693419,0.0,0,False
2022-05-14,0.9819088857693419,0.9819088857693419,0.0,0,False
2022-05-15,0.9819088857693419,0.9788605691413823,-0.31044801326663984,1,True
2022-05-16,0.9788605691413823,0.987687456651513,0.9017512594130972,1,True
2022-05-17,0.987687456651513,0.987687456651513,0.0,0,False
2022-05-18,0.987687456651513,0.987687456651513,0.0,0,False
2022-05-19,0.987687456651513,0.987687456651513,0.0,0,False
2022-05-20,0.987687456651513,0.9827557887619726,-0.4993146218804867,1,True
2022-05-21,0.9827557887619726,0.9827557887619726,0.0,0,False
2022-05-22,0.9827557887619726,0.9827557887619726,0.0,0,False
2022-05-23,0.9827557887619726,0.9823839339880196,-0.037837963225983984,1,True
2022-05-24,0.9823839339880196,0.9773883125391355,-0.5085202715606529,1,True
2022-05-25,0.9773883125391355,0.9772061073587198,-0.018642046163042103,1,True
2022-05-26,0.9772061073587198,0.9821913299609323,0.5101505777207027,1,True
2022-05-27,0.9821913299609323,0.9859184538890257,0.37947025334073015,0,True
2022-05-28,0.9859184538890257,0.9859184538890257,0.0,0,False
2022-05-29,0.9859184538890257,0.9859184538890257,0.0,0,False
2022-05-30,0.9859184538890257,0.9859184538890257,0.0,0,False
2022-05-31,0.9859184538890257,0.9859184538890257,0.0,0,False
2022-06-01,0.9859184538890257,0.9859184538890257,0.0,0,False
2022-06-02,0.9859184538890257,0.9809929768316158,-0.4995826011756854,1,True
2022-06-03,0.9809929768316158,0.9809929768316158,0.0,0,False
2022-06-04,0.9809929768316158,0.9809929768316158,0.0,0,False
2022-06-05,0.9809929768316158,0.9809929768316158,0.0,0,False
2022-06-06,0.9809929768316158,0.9809929768316158,0.0,0,False
2022-06-07,0.9809929768316158,0.9818486641563023,0.08722665145373121,1,True
2022-06-08,0.9818486641563023,0.9819515659652911,0.010480414420799278,1,True
2022-06-09,0.9819515659652911,0.9819515659652911,0.0,0,False
2022-06-10,0.9819515659652911,0.988444929759646,0.6612712907048346,1,True
2022-06-11,0.988444929759646,0.988444929759646,0.0,0,False
2022-06-12,0.988444929759646,0.9888827546911149,0.044294317092119506,4,True
2022-06-13,0.9888827546911149,0.9888827546911149,0.0,0,False
2022-06-14,0.9888827546911149,0.9888827546911149,0.0,0,False
2022-06-15,0.9888827546911149,0.9888827546911149,0.0,0,False
2022-06-16,0.9888827546911149,0.99808086809849,0.9301520694683596,2,True
2022-06-17,0.99808086809849,1.0012823545154483,0.32076423056357495,0,True
2022-06-18,1.0012823545154483,0.9907794897456113,-1.0489413622913335,4,True
2022-06-19,0.9907794897456113,0.998294299114407,0.7584744584009595,0,True
2022-06-20,0.998294299114407,0.998294299114407,0.0,0,False
2022-06-21,0.998294299114407,0.998294299114407,0.0,0,False
2022-06-22,0.998294299114407,0.998294299114407,0.0,0,False
2022-06-23,0.998294299114407,0.998294299114407,0.0,0,False
2022-06-24,0.998294299114407,0.998294299114407,0.0,0,False
2022-06-25,0.998294299114407,0.998294299114407,0.0,0,False
2022-06-26,0.998294299114407,0.998294299114407,0.0,0,False
2022-06-27,0.998294299114407,0.998294299114407,0.0,0,False
2022-06-28,0.998294299114407,0.9997856066157652,0.14938555721304425,1,True
2022-06-29,0.9997856066157652,1.0071283694679616,0.7344337429552761,0,True
2022-06-30,1.0071283694679616,1.0071283694679616,0.0,0,False
2022-07-01,1.0071283694679616,1.0071283694679616,0.0,0,False
2022-07-02,1.0071283694679616,1.0071283694679616,0.0,0,False
2022-07-03,1.0071283694679616,1.0071283694679616,0.0,0,False
2022-07-04,1.0071283694679616,1.0071283694679616,0.0,0,False
2022-07-05,1.0071283694679616,1.0071283694679616,0.0,0,False
2022-07-06,1.0071283694679616,1.0071283694679616,0.0,0,False
2022-07-07,1.0071283694679616,1.0071283694679616,0.0,0,False
2022-07-08,1.0071283694679616,1.0071283694679616,0.0,0,False
2022-07-09,1.0071283694679616,1.0071283694679616,0.0,0,False
2022-07-10,1.0071283694679616,1.0071283694679616,0.0,0,False
2022-07-11,1.0071283694679616,1.0071283694679616,0.0,0,False
2022-07-12,1.0071283694679616,1.0071283694679616,0.0,0,False
2022-07-13,1.0071283694679616,1.018166221717821,1.0959727264648889,4,True
2022-07-14,1.018166221717821,1.0350096957876704,1.6542951151366836,0,True
2022-07-15,1.0350096957876704,1.0350096957876704,0.0,0,False
2022-07-16,1.0350096957876704,1.0350096957876704,0.0,0,False
2022-07-17,1.0350096957876704,1.0350096957876704,0.0,0,False
2022-07-18,1.0350096957876704,1.0350096957876704,0.0,0,False
2022-07-19,1.0350096957876704,1.0350096957876704,0.0,0,False
2022-07-20,1.0350096957876704,1.0350096957876704,0.0,0,False
2022-07-21,1.0350096957876704,1.0317797835531808,-0.3120658915211072,3,True
2022-07-22,1.0317797835531808,1.0317797835531808,0.0,0,False
2022-07-23,1.0317797835531808,1.0317797835531808,0.0,0,False
2022-07-24,1.0317797835531808,1.0376843992869949,0.5722748039780345,1,True
2022-07-25,1.0376843992869949,1.038625600150319,0.0907020346427867,1,True
2022-07-26,1.038625600150319,1.038625600150319,0.0,0,False
2022-07-27,1.038625600150319,1.038625600150319,0.0,0,False
2022-07-28,1.038625600150319,1.038625600150319,0.0,0,False
2022-07-29,1.038625600150319,1.038625600150319,0.0,0,False
2022-07-30,1.038625600150319,1.038625600150319,0.0,0,False
2022-07-31,1.038625600150319,1.038625600150319,0.0,0,False
2022-08-01,1.038625600150319,1.038625600150319,0.0,0,False
2022-08-02,1.038625600150319,1.038625600150319,0.0,0,False
2022-08-03,1.038625600150319,1.038625600150319,0.0,0,False
2022-08-04,1.038625600150319,1.038625600150319,0.0,0,False
2022-08-05,1.038625600150319,1.038625600150319,0.0,0,False
2022-08-06,1.038625600150319,1.038625600150319,0.0,0,False
2022-08-07,1.038625600150319,1.038625600150319,0.0,0,False
2022-08-08,1.038625600150319,1.038625600150319,0.0,0,False
2022-08-09,1.038625600150319,1.0404978269208922,0.18026002539339725,1,True
2022-08-10,1.0404978269208922,1.0404978269208922,0.0,0,False
2022-08-11,1.0404978269208922,1.0404978269208922,0.0,0,False
2022-08-12,1.0404978269208922,1.0407016164933467,0.019585775883612655,1,True
2022-08-13,1.0407016164933467,1.0407016164933467,0.0,0,False
2022-08-14,1.0407016164933467,1.0407016164933467,0.0,0,False
2022-08-15,1.0407016164933467,1.0407016164933467,0.0,0,False
2022-08-16,1.0407016164933467,1.0407016164933467,0.0,0,False
2022-08-17,1.0407016164933467,1.0407016164933467,0.0,0,False
2022-08-18,1.0407016164933467,1.0407016164933467,0.0,0,False
2022-08-19,1.0407016164933467,1.0157047530883816,-2.401924145096679,8,True
2022-08-20,1.0157047530883816,1.0157047530883816,0.0,0,False
2022-08-21,1.0157047530883816,1.0157047530883816,0.0,0,False
2022-08-22,1.0157047530883816,1.0157047530883816,0.0,0,False
2022-08-23,1.0157047530883816,1.0157047530883816,0.0,0,False
2022-08-24,1.0157047530883816,1.0157047530883816,0.0,0,False
2022-08-25,1.0157047530883816,1.0157047530883816,0.0,0,False
2022-08-26,1.0157047530883816,1.0157047530883816,0.0,0,False
2022-08-27,1.0157047530883816,1.0157047530883816,0.0,0,False
2022-08-28,1.0157047530883816,1.0157047530883816,0.0,0,False
2022-08-29,1.0157047530883816,1.0157047530883816,0.0,0,False
2022-08-30,1.0157047530883816,1.0157047530883816,0.0,0,False
2022-08-31,1.0157047530883816,1.0157047530883816,0.0,0,False
2022-09-01,1.0157047530883816,1.0157047530883816,0.0,0,False
2022-09-02,1.0157047530883816,1.0157047530883816,0.0,0,False
2022-09-03,1.0157047530883816,1.0157047530883816,0.0,0,False
2022-09-04,1.0157047530883816,1.0157047530883816,0.0,0,False
2022-09-05,1.0157047530883816,1.0157047530883816,0.0,0,False
2022-09-06,1.0157047530883816,1.0157047530883816,0.0,0,False
2022-09-07,1.0157047530883816,1.0074336787950735,-0.8143187543583674,4,True
2022-09-08,1.0074336787950735,1.0074336787950735,0.0,0,False
2022-09-09,1.0074336787950735,1.0074336787950735,0.0,0,False
2022-09-10,1.0074336787950735,1.0074336787950735,0.0,0,False
2022-09-11,1.0074336787950735,1.0074336787950735,0.0,0,False
2022-09-12,1.0074336787950735,1.0074336787950735,0.0,0,False
2022-09-13,1.0074336787950735,0.9986991738337765,-0.8670054560558027,4,True
2022-09-14,0.9986991738337765,0.9942268089209437,-0.447819025990015,0,True
2022-09-15,0.9942268089209437,0.9989797356414221,0.4780525608273134,1,True
2022-09-16,0.9989797356414221,0.9989797356414221,0.0,0,False
2022-09-17,0.9989797356414221,0.9989797356414221,0.0,0,False
2022-09-18,0.9989797356414221,0.9989797356414221,0.0,0,False
2022-09-19,0.9989797356414221,0.99845363303928,-0.0526639914076199,5,True
2022-09-20,0.99845363303928,0.99845363303928,0.0,0,False
2022-09-21,0.99845363303928,0.99845363303928,0.0,0,False
2022-09-22,0.99845363303928,0.99845363303928,0.0,0,False
2022-09-23,0.99845363303928,0.99845363303928,0.0,0,False
2022-09-24,0.99845363303928,0.99845363303928,0.0,0,False
2022-09-25,0.99845363303928,0.99845363303928,0.0,0,False
2022-09-26,0.99845363303928,0.99845363303928,0.0,0,False
2022-09-27,0.99845363303928,0.99845363303928,0.0,0,False
2022-09-28,0.99845363303928,0.99845363303928,0.0,0,False
2022-09-29,0.99845363303928,0.99845363303928,0.0,0,False
2022-09-30,0.99845363303928,0.99845363303928,0.0,0,False
2022-10-01,0.99845363303928,0.99845363303928,0.0,0,False
2022-10-02,0.99845363303928,0.99845363303928,0.0,0,False
2022-10-03,0.99845363303928,0.99845363303928,0.0,0,False
2022-10-04,0.99845363303928,0.99845363303928,0.0,0,False
2022-10-05,0.99845363303928,0.99845363303928,0.0,0,False
2022-10-06,0.99845363303928,0.99845363303928,0.0,0,False
2022-10-07,0.99845363303928,0.99845363303928,0.0,0,False
2022-10-08,0.99845363303928,0.99845363303928,0.0,0,False
2022-10-09,0.99845363303928,0.99845363303928,0.0,0,False
2022-10-10,0.99845363303928,0.99845363303928,0.0,0,False
2022-10-11,0.99845363303928,1.0230482210469138,2.4632679168854477,4,True
2022-10-12,1.0230482210469138,1.0230482210469138,0.0,0,False
2022-10-13,1.0230482210469138,1.0230482210469138,0.0,0,False
2022-10-14,1.0230482210469138,1.0230482210469138,0.0,0,False
2022-10-15,1.0230482210469138,1.0230482210469138,0.0,0,False
2022-10-16,1.0230482210469138,1.0230482210469138,0.0,0,False
2022-10-17,1.0230482210469138,1.0230482210469138,0.0,0,False
2022-10-18,1.0230482210469138,1.0230482210469138,0.0,0,False
2022-10-19,1.0230482210469138,1.0230482210469138,0.0,0,False
2022-10-20,1.0230482210469138,1.0270016618949855,0.3864373904121532,1,True
2022-10-21,1.0270016618949855,1.0270016618949855,0.0,0,False
2022-10-22,1.0270016618949855,1.0270016618949855,0.0,0,False
2022-10-23,1.0270016618949855,1.0270016618949855,0.0,0,False
2022-10-24,1.0270016618949855,1.0270016618949855,0.0,0,False
2022-10-25,1.0270016618949855,1.0270016618949855,0.0,0,False
2022-10-26,1.0270016618949855,1.0270016618949855,0.0,0,False
2022-10-27,1.0270016618949855,1.0270016618949855,0.0,0,False
2022-10-28,1.0270016618949855,1.0270016618949855,0.0,0,False
2022-10-29,1.0270016618949855,1.0270016618949855,0.0,0,False
2022-10-30,1.0270016618949855,1.0270016618949855,0.0,0,False
2022-10-31,1.0270016618949855,1.0270016618949855,0.0,0,False
2022-11-01,1.0270016618949855,1.0270016618949855,0.0,0,False
2022-11-02,1.0270016618949855,1.0360466020504622,0.8807132929840922,1,True
2022-11-03,1.0360466020504622,1.0360466020504622,0.0,0,False
2022-11-04,1.0360466020504622,1.0402919281798304,0.4097620822235415,2,True
2022-11-05,1.0402919281798304,1.0402919281798304,0.0,0,False
2022-11-06,1.0402919281798304,1.0402919281798304,0.0,0,False
2022-11-07,1.0402919281798304,1.040565791058172,0.026325579476593752,1,True
2022-11-08,1.040565791058172,1.0325845677148031,-0.7670080461950057,3,True
2022-11-09,1.0325845677148031,1.0289870398784584,-0.3484003101369537,4,True
2022-11-10,1.0289870398784584,1.0374069866084767,0.818275294411186,1,True
2022-11-11,1.0374069866084767,1.0428291456813825,0.5226645996121659,5,True
2022-11-12,1.0428291456813825,1.0526694091137745,0.9436122372627365,1,True
2022-11-13,1.0526694091137745,1.0463581915173128,-0.5995441248525468,1,True
2022-11-14,1.0463581915173128,1.0511752304172668,0.46036232515835884,2,True
2022-11-15,1.0511752304172668,1.0511752304172668,0.0,0,False
2022-11-16,1.0511752304172668,1.0511752304172668,0.0,0,False
2022-11-17,1.0511752304172668,1.0511752304172668,0.0,0,False
2022-11-18,1.0511752304172668,1.0511752304172668,0.0,0,False
2022-11-19,1.0511752304172668,1.0511262296429185,-0.004661522925053507,2,True
2022-11-20,1.0511262296429185,1.0465532898687944,-0.4350514377019721,1,True
2022-11-21,1.0465532898687944,1.0404662340289694,-0.5816288476421572,1,True
2022-11-22,1.0404662340289694,1.0404662340289694,0.0,0,False
2022-11-23,1.0404662340289694,1.0404662340289694,0.0,0,False
2022-11-24,1.0404662340289694,1.0404662340289694,0.0,0,False
2022-11-25,1.0404662340289694,1.0404662340289694,0.0,0,False
2022-11-26,1.0404662340289694,1.0404662340289694,0.0,0,False
2022-11-27,1.0404662340289694,1.0404662340289694,0.0,0,False
2022-11-28,1.0404662340289694,1.0366899251813575,-0.3629439114990807,2,True
2022-11-29,1.0366899251813575,1.0366899251813575,0.0,0,False
2022-11-30,1.0366899251813575,1.0366899251813575,0.0,0,False
2022-12-01,1.0366899251813575,1.0364629611948541,-0.021893140947004675,1,True
2022-12-02,1.0364629611948541,1.0364629611948541,0.0,0,False
2022-12-03,1.0364629611948541,1.0364629611948541,0.0,0,False
2022-12-04,1.0364629611948541,1.0364629611948541,0.0,0,False
2022-12-05,1.0364629611948541,1.0364629611948541,0.0,0,False
2022-12-06,1.0364629611948541,1.0364629611948541,0.0,0,False
2022-12-07,1.0364629611948541,1.0364629611948541,0.0,0,False
2022-12-08,1.0364629611948541,1.031289975014987,-0.4990999556707343,1,True
2022-12-09,1.031289975014987,1.031289975014987,0.0,0,False
2022-12-10,1.031289975014987,1.031289975014987,0.0,0,False
2022-12-11,1.031289975014987,1.031289975014987,0.0,0,False
2022-12-12,1.031289975014987,1.031289975014987,0.0,0,False
2022-12-13,1.031289975014987,1.031289975014987,0.0,0,False
2022-12-14,1.031289975014987,1.031289975014987,0.0,0,False
2022-12-15,1.031289975014987,1.031289975014987,0.0,0,False
2022-12-16,1.031289975014987,1.031289975014987,0.0,0,False
2022-12-17,1.031289975014987,1.046248606278877,1.4504777149290549,4,True
2022-12-18,1.046248606278877,1.046248606278877,0.0,0,False
2022-12-19,1.046248606278877,1.046248606278877,0.0,0,False
2022-12-20,1.046248606278877,1.046248606278877,0.0,0,False
2022-12-21,1.046248606278877,1.046248606278877,0.0,0,False
2022-12-22,1.046248606278877,1.046248606278877,0.0,0,False
2022-12-23,1.046248606278877,1.046248606278877,0.0,0,False
2022-12-24,1.046248606278877,1.046248606278877,0.0,0,False
2022-12-25,1.046248606278877,1.046248606278877,0.0,0,False
2022-12-26,1.046248606278877,1.046248606278877,0.0,0,False
2022-12-27,1.046248606278877,1.046248606278877,0.0,0,False
2022-12-28,1.046248606278877,1.048680537917025,0.2324429990685939,1,True
2022-12-29,1.048680537917025,1.0476730643992,-0.0960705840718723,0,True
2022-12-30,1.0476730643992,1.0476730643992,0.0,0,False
2022-12-31,1.0476730643992,1.0476730643992,0.0,0,False
2023-01-01,1.0476730643992,1.0476730643992,0.0,0,False
2023-01-02,1.0476730643992,1.0479091028526586,0.022529781615965305,1,True
2023-01-03,1.0479091028526586,1.0480002733465046,0.008700229208602472,0,True
2023-01-04,1.0480002733465046,1.0480002733465046,0.0,0,False
2023-01-05,1.0480002733465046,1.0480002733465046,0.0,0,False
2023-01-06,1.0480002733465046,1.0480002733465046,0.0,0,False
2023-01-07,1.0480002733465046,1.0480002733465046,0.0,0,False
2023-01-08,1.0480002733465046,1.0480002733465046,0.0,0,False
2023-01-09,1.0480002733465046,1.0480002733465046,0.0,0,False
2023-01-10,1.0480002733465046,1.0456015968253924,-0.22888128773598249,2,True
2023-01-11,1.0456015968253924,1.046308905921132,0.06764613767680228,0,True
2023-01-12,1.046308905921132,1.046308905921132,0.0,0,False
2023-01-13,1.046308905921132,1.046308905921132,0.0,0,False
2023-01-14,1.046308905921132,1.046308905921132,0.0,0,False
2023-01-15,1.046308905921132,1.047811045034733,0.1435655479085085,1,True
2023-01-16,1.047811045034733,1.047811045034733,0.0,0,False
2023-01-17,1.047811045034733,1.047811045034733,0.0,0,False
2023-01-18,1.047811045034733,1.047811045034733,0.0,0,False
2023-01-19,1.047811045034733,1.042578016033414,-0.4994248749444763,1,True
2023-01-20,1.042578016033414,1.042578016033414,0.0,0,False
2023-01-21,1.042578016033414,1.0437550890449983,0.11290023321828269,1,True
2023-01-22,1.0437550890449983,1.0430544704240519,-0.06712481005360926,0,True
2023-01-23,1.0430544704240519,1.0430544704240519,0.0,0,False
2023-01-24,1.0430544704240519,1.0491094380312314,0.5805034903611395,1,True
2023-01-25,1.0491094380312314,1.0548187626763803,0.5442067755927482,5,True
2023-01-26,1.0548187626763803,1.0548187626763803,0.0,0,False
2023-01-27,1.0548187626763803,1.0548187626763803,0.0,0,False
2023-01-28,1.0548187626763803,1.0548187626763803,0.0,0,False
2023-01-29,1.0548187626763803,1.0548187626763803,0.0,0,False
2023-01-30,1.0548187626763803,1.054657943762265,-0.01524611808262355,2,True
2023-01-31,1.054657943762265,1.0508400677164567,-0.3620013548837342,2,True
2023-02-01,1.0508400677164567,1.0508400677164567,0.0,0,False
2023-02-02,1.0508400677164567,1.0508400677164567,0.0,0,False
2023-02-03,1.0508400677164567,1.0508400677164567,0.0,0,False
2023-02-04,1.0508400677164567,1.0508400677164567,0.0,0,False
2023-02-05,1.0508400677164567,1.0532297755667501,0.22740928174602715,4,True
2023-02-06,1.0532297755667501,1.0680349548911505,1.4056931989445243,1,True
2023-02-07,1.0680349548911505,1.0675620854297536,-0.04427471771699665,0,True
2023-02-08,1.0675620854297536,1.0675620854297536,0.0,0,False
2023-02-09,1.0675620854297536,1.0675620854297536,0.0,0,False
2023-02-10,1.0675620854297536,1.0675620854297536,0.0,0,False
2023-02-11,1.0675620854297536,1.0675620854297536,0.0,0,False
2023-02-12,1.0675620854297536,1.0675620854297536,0.0,0,False
2023-02-13,1.0675620854297536,1.0675620854297536,0.0,0,False
2023-02-14,1.0675620854297536,1.0675620854297536,0.0,0,False
2023-02-15,1.0675620854297536,1.0675620854297536,0.0,0,False
2023-02-16,1.0675620854297536,1.0675620854297536,0.0,0,False
2023-02-17,1.0675620854297536,1.0675620854297536,0.0,0,False
2023-02-18,1.0675620854297536,1.0675620854297536,0.0,0,False
2023-02-19,1.0675620854297536,1.0675620854297536,0.0,0,False
2023-02-20,1.0675620854297536,1.0675620854297536,0.0,0,False
2023-02-21,1.0675620854297536,1.0659672870259276,-0.14938694672582686,2,True
2023-02-22,1.0659672870259276,1.0663354032660979,0.034533540067394064,0,True
2023-02-23,1.0663354032660979,1.0756847246521921,0.8767711695080171,1,True
2023-02-24,1.0756847246521921,1.0756847246521921,0.0,0,False
2023-02-25,1.0756847246521921,1.0756847246521921,0.0,0,False
2023-02-26,1.0756847246521921,1.0756847246521921,0.0,0,False
2023-02-27,1.0756847246521921,1.0703119127234746,-0.49947831419235866,1,True
2023-02-28,1.0703119127234746,1.0703119127234746,0.0,0,False
2023-03-01,1.0703119127234746,1.0703119127234746,0.0,0,False
2023-03-02,1.0703119127234746,1.0703119127234746,0.0,0,False
2023-03-03,1.0703119127234746,1.06458623380877,-0.5349542359231796,5,True
2023-03-04,1.06458623380877,1.06458623380877,0.0,0,False
2023-03-05,1.06458623380877,1.06458623380877,0.0,0,False
2023-03-06,1.06458623380877,1.06458623380877,0.0,0,False
2023-03-07,1.06458623380877,1.06458623380877,0.0,0,False
2023-03-08,1.06458623380877,1.06458623380877,0.0,0,False
2023-03-09,1.06458623380877,1.06458623380877,0.0,0,False
2023-03-10,1.06458623380877,1.06458623380877,0.0,0,False
2023-03-11,1.06458623380877,1.0699788738524618,0.5065479782129678,1,True
2023-03-12,1.0699788738524618,1.0668539957705392,-0.29205044681597236,0,True
2023-03-13,1.0668539957705392,1.0668539957705392,0.0,0,False
2023-03-14,1.0668539957705392,1.0668539957705392,0.0,0,False
2023-03-15,1.0668539957705392,1.0668539957705392,0.0,0,False
2023-03-16,1.0668539957705392,1.0693622465919776,0.2351072247357422,1,True
2023-03-17,1.0693622465919776,1.064021970344344,-0.49938888946685633,1,True
2023-03-18,1.064021970344344,1.064021970344344,0.0,0,False
2023-03-19,1.064021970344344,1.064021970344344,0.0,0,False
2023-03-20,1.064021970344344,1.064021970344344,0.0,0,False
2023-03-21,1.064021970344344,1.0587092984320818,-0.4993009599738807,1,True
2023-03-22,1.0587092984320818,1.0587092984320818,0.0,0,False
2023-03-23,1.0587092984320818,1.0681005782970454,0.8870499086833128,3,True
2023-03-24,1.0681005782970454,1.069339778463984,0.11601905214904118,0,True
2023-03-25,1.069339778463984,1.0639979025480701,-0.4995489762465444,1,True
2023-03-26,1.0639979025480701,1.0639979025480701,0.0,0,False
2023-03-27,1.0639979025480701,1.0639979025480701,0.0,0,False
2023-03-28,1.0639979025480701,1.0639979025480701,0.0,0,False
2023-03-29,1.0639979025480701,1.0639979025480701,0.0,0,False
2023-03-30,1.0639979025480701,1.0639979025480701,0.0,0,False
2023-03-31,1.0639979025480701,1.0639979025480701,0.0,0,False
2023-04-01,1.0639979025480701,1.0639979025480701,0.0,0,False
2023-04-02,1.0639979025480701,1.0639979025480701,0.0,0,False
2023-04-03,1.0639979025480701,1.0639979025480701,0.0,0,False
2023-04-04,1.0639979025480701,1.0639979025480701,0.0,0,False
2023-04-05,1.0639979025480701,1.0639979025480701,0.0,0,False
2023-04-06,1.0639979025480701,1.0586793212475494,-0.49986764896657876,1,True
2023-04-07,1.0586793212475494,1.0546326813961977,-0.38223471169561707,1,True
2023-04-08,1.0546326813961977,1.0546326813961977,0.0,0,False
2023-04-09,1.0546326813961977,1.0546326813961977,0.0,0,False
2023-04-10,1.0546326813961977,1.0546326813961977,0.0,0,False
2023-04-11,1.0546326813961977,1.0546326813961977,0.0,0,False
2023-04-12,1.0546326813961977,1.0546326813961977,0.0,0,False
2023-04-13,1.0546326813961977,1.0546326813961977,0.0,0,False
2023-04-14,1.0546326813961977,1.0546326813961977,0.0,0,False
2023-04-15,1.0546326813961977,1.0546326813961977,0.0,0,False
2023-04-16,1.0546326813961977,1.0546326813961977,0.0,0,False
2023-04-17,1.0546326813961977,1.0546326813961977,0.0,0,False
2023-04-18,1.0546326813961977,1.0546326813961977,0.0,0,False
2023-04-19,1.0546326813961977,1.0441110638854922,-0.9976570702110443,2,True
2023-04-20,1.0441110638854922,1.0441110638854922,0.0,0,False
2023-04-21,1.0441110638854922,1.0441110638854922,0.0,0,False
2023-04-22,1.0441110638854922,1.0441110638854922,0.0,0,False
2023-04-23,1.0441110638854922,1.0441110638854922,0.0,0,False
2023-04-24,1.0441110638854922,1.0441110638854922,0.0,0,False
2023-04-25,1.0441110638854922,1.0441110638854922,0.0,0,False
2023-04-26,1.0441110638854922,1.0441110638854922,0.0,0,False
2023-04-27,1.0441110638854922,1.0441110638854922,0.0,0,False
2023-04-28,1.0441110638854922,1.0441110638854922,0.0,0,False
2023-04-29,1.0441110638854922,1.0441110638854922,0.0,0,False
2023-04-30,1.0441110638854922,1.0441110638854922,0.0,0,False
2023-05-01,1.0441110638854922,1.0441110638854922,0.0,0,False
2023-05-02,1.0441110638854922,1.0441110638854922,0.0,0,False
2023-05-03,1.0441110638854922,1.0441110638854922,0.0,0,False
2023-05-04,1.0441110638854922,1.0441110638854922,0.0,0,False
2023-05-05,1.0441110638854922,1.0441110638854922,0.0,0,False
2023-05-06,1.0441110638854922,1.0441110638854922,0.0,0,False
2023-05-07,1.0441110638854922,1.0441110638854922,0.0,0,False
2023-05-08,1.0441110638854922,1.0413711823790297,-0.26241284105030793,5,True
2023-05-09,1.0413711823790297,1.039030366135267,-0.22478212220307103,2,True
2023-05-10,1.039030366135267,1.0404180242486443,0.13355318175529707,1,True
2023-05-11,1.0404180242486443,1.041920021778277,0.14436481247210864,0,True
2023-05-12,1.041920021778277,1.041920021778277,0.0,0,False
2023-05-13,1.041920021778277,1.041920021778277,0.0,0,False
2023-05-14,1.041920021778277,1.041920021778277,0.0,0,False
2023-05-15,1.041920021778277,1.041920021778277,0.0,0,False
2023-05-16,1.041920021778277,1.041920021778277,0.0,0,False
2023-05-17,1.041920021778277,1.041920021778277,0.0,0,False
2023-05-18,1.041920021778277,1.041920021778277,0.0,0,False
2023-05-19,1.041920021778277,1.041920021778277,0.0,0,False
2023-05-20,1.041920021778277,1.041920021778277,0.0,0,False
2023-05-21,1.041920021778277,1.041920021778277,0.0,0,False
2023-05-22,1.041920021778277,1.041920021778277,0.0,0,False
2023-05-23,1.041920021778277,1.041920021778277,0.0,0,False
2023-05-24,1.041920021778277,1.041920021778277,0.0,0,False
2023-05-25,1.041920021778277,1.041920021778277,0.0,0,False
2023-05-26,1.041920021778277,1.0437429555691555,0.17495909021572054,1,True
2023-05-27,1.0437429555691555,1.0472069103280228,0.33187814493831347,0,True
2023-05-28,1.0472069103280228,1.0472069103280228,0.0,0,False
2023-05-29,1.0472069103280228,1.0472069103280228,0.0,0,False
2023-05-30,1.0472069103280228,1.0472069103280228,0.0,0,False
2023-05-31,1.0472069103280228,1.0472069103280228,0.0,0,False
2023-06-01,1.0472069103280228,1.0472069103280228,0.0,0,False
2023-06-02,1.0472069103280228,1.0567184779069019,0.9082796804596782,1,True
2023-06-03,1.0567184779069019,1.0567184779069019,0.0,0,False
2023-06-04,1.0567184779069019,1.0567184779069019,0.0,0,False
2023-06-05,1.0567184779069019,1.0567184779069019,0.0,0,False
2023-06-06,1.0567184779069019,1.0487202665872897,-0.7568914036077734,4,True
2023-06-07,1.0487202665872897,1.0487202665872897,0.0,0,False
2023-06-08,1.0487202665872897,1.048308126933599,-0.039299293321737316,1,True
2023-06-09,1.048308126933599,1.048308126933599,0.0,0,False
2023-06-10,1.048308126933599,1.0641445439497366,1.510664337064771,5,True
2023-06-11,1.0641445439497366,1.0633864375134652,-0.0712409268629588,0,True
2023-06-12,1.0633864375134652,1.0633864375134652,0.0,0,False
2023-06-13,1.0633864375134652,1.0633864375134652,0.0,0,False
2023-06-14,1.0633864375134652,1.0633864375134652,0.0,0,False
2023-06-15,1.0633864375134652,1.0633864375134652,0.0,0,False
2023-06-16,1.0633864375134652,1.0633864375134652,0.0,0,False
2023-06-17,1.0633864375134652,1.0633864375134652,0.0,0,False
2023-06-18,1.0633864375134652,1.0633864375134652,0.0,0,False
2023-06-19,1.0633864375134652,1.0687383210845525,0.5032867998205459,1,True
2023-06-20,1.0687383210845525,1.0695989266134838,0.08052537388740788,0,True
2023-06-21,1.0695989266134838,1.0695989266134838,0.0,0,False
2023-06-22,1.0695989266134838,1.0642512659830845,-0.4999687730924296,1,True
2023-06-23,1.0642512659830845,1.0642512659830845,0.0,0,False
2023-06-24,1.0642512659830845,1.0642512659830845,0.0,0,False
2023-06-25,1.0642512659830845,1.0642512659830845,0.0,0,False
2023-06-26,1.0642512659830845,1.0642512659830845,0.0,0,False
2023-06-27,1.0642512659830845,1.0642512659830845,0.0,0,False
2023-06-28,1.0642512659830845,1.0642512659830845,0.0,0,False
2023-06-29,1.0642512659830845,1.0642512659830845,0.0,0,False
2023-06-30,1.0642512659830845,1.0430376181917527,-1.9932931695163192,4,True
2023-07-01,1.0430376181917527,1.0378286136965509,-0.49940715505853994,1,True
2023-07-02,1.0378286136965509,1.0378286136965509,0.0,0,False
2023-07-03,1.0378286136965509,1.0378286136965509,0.0,0,False
2023-07-04,1.0378286136965509,1.0378286136965509,0.0,0,False
2023-07-05,1.0378286136965509,1.0378286136965509,0.0,0,False
2023-07-06,1.0378286136965509,1.0378286136965509,0.0,0,False
2023-07-07,1.0378286136965509,1.0378286136965509,0.0,0,False
2023-07-08,1.0378286136965509,1.0378286136965509,0.0,0,False
2023-07-09,1.0378286136965509,1.0378286136965509,0.0,0,False
2023-07-10,1.0378286136965509,1.0378286136965509,0.0,0,False
2023-07-11,1.0378286136965509,1.0378286136965509,0.0,0,False
2023-07-12,1.0378286136965509,1.0378286136965509,0.0,0,False
2023-07-13,1.0378286136965509,1.0378286136965509,0.0,0,False
2023-07-14,1.0378286136965509,1.0378286136965509,0.0,0,False
2023-07-15,1.0378286136965509,1.0378286136965509,0.0,0,False
2023-07-16,1.0378286136965509,1.0378286136965509,0.0,0,False
2023-07-17,1.0378286136965509,1.0378286136965509,0.0,0,False
2023-07-18,1.0378286136965509,1.0378286136965509,0.0,0,False
2023-07-19,1.0378286136965509,1.0378286136965509,0.0,0,False
2023-07-20,1.0378286136965509,1.0378286136965509,0.0,0,False
2023-07-21,1.0378286136965509,1.0378286136965509,0.0,0,False
2023-07-22,1.0378286136965509,1.0378286136965509,0.0,0,False
2023-07-23,1.0378286136965509,1.0378286136965509,0.0,0,False
2023-07-24,1.0378286136965509,1.0375937825681565,-0.022627158790500257,1,True
2023-07-25,1.0375937825681565,1.0379404610336338,0.03341177166840126,0,True
2023-07-26,1.0379404610336338,1.0379404610336338,0.0,0,False
2023-07-27,1.0379404610336338,1.0379404610336338,0.0,0,False
2023-07-28,1.0379404610336338,1.0379404610336338,0.0,0,False
2023-07-29,1.0379404610336338,1.0379404610336338,0.0,0,False
2023-07-30,1.0379404610336338,1.0379404610336338,0.0,0,False
2023-07-31,1.0379404610336338,1.0379404610336338,0.0,0,False
2023-08-01,1.0379404610336338,1.0379404610336338,0.0,0,False
2023-08-02,1.0379404610336338,1.0379404610336338,0.0,0,False
2023-08-03,1.0379404610336338,1.0379404610336338,0.0,0,False
2023-08-04,1.0379404610336338,1.0379404610336338,0.0,0,False
2023-08-05,1.0379404610336338,1.0379404610336338,0.0,0,False
2023-08-06,1.0379404610336338,1.0379404610336338,0.0,0,False
2023-08-07,1.0379404610336338,1.0379404610336338,0.0,0,False
2023-08-08,1.0379404610336338,1.0379404610336338,0.0,0,False
2023-08-09,1.0379404610336338,1.0379404610336338,0.0,0,False
2023-08-10,1.0379404610336338,1.0379404610336338,0.0,0,False
2023-08-11,1.0379404610336338,1.0379404610336338,0.0,0,False
2023-08-12,1.0379404610336338,1.0379404610336338,0.0,0,False
2023-08-13,1.0379404610336338,1.0379404610336338,0.0,0,False
2023-08-14,1.0379404610336338,1.0379404610336338,0.0,0,False
2023-08-15,1.0379404610336338,1.0379404610336338,0.0,0,False
2023-08-16,1.0379404610336338,1.0452608920034479,0.7052842860103992,4,True
2023-08-17,1.0452608920034479,1.0452608920034479,0.0,0,False
2023-08-18,1.0452608920034479,1.0819951096666511,3.5143587542814325,4,True
2023-08-19,1.0819951096666511,1.0819951096666511,0.0,0,False
2023-08-20,1.0819951096666511,1.0819951096666511,0.0,0,False
2023-08-21,1.0819951096666511,1.0819951096666511,0.0,0,False
2023-08-22,1.0819951096666511,1.0819951096666511,0.0,0,False
2023-08-23,1.0819951096666511,1.0819951096666511,0.0,0,False
2023-08-24,1.0819951096666511,1.0819951096666511,0.0,0,False
2023-08-25,1.0819951096666511,1.0658421160384906,-1.4928897075271563,3,True
2023-08-26,1.0658421160384906,1.0658421160384906,0.0,0,False
2023-08-27,1.0658421160384906,1.0658421160384906,0.0,0,False
2023-08-28,1.0658421160384906,1.0658421160384906,0.0,0,False
2023-08-29,1.0658421160384906,1.0658421160384906,0.0,0,False
2023-08-30,1.0658421160384906,1.0658421160384906,0.0,0,False
2023-08-31,1.0658421160384906,1.0658421160384906,0.0,0,False
2023-09-01,1.0658421160384906,1.0658421160384906,0.0,0,False
2023-09-02,1.0658421160384906,1.0676840139039088,0.17281151098289538,1,True
2023-09-03,1.0676840139039088,1.0682896099780992,0.05672053400669341,0,True
2023-09-04,1.0682896099780992,1.0682896099780992,0.0,0,False
2023-09-05,1.0682896099780992,1.0682896099780992,0.0,0,False
2023-09-06,1.0682896099780992,1.0682896099780992,0.0,0,False
2023-09-07,1.0682896099780992,1.0682896099780992,0.0,0,False
2023-09-08,1.0682896099780992,1.0682896099780992,0.0,0,False
2023-09-09,1.0682896099780992,1.0682896099780992,0.0,0,False
2023-09-10,1.0682896099780992,1.0664782068079557,-0.16956105846435143,2,True
2023-09-11,1.0664782068079557,1.0636053457745784,-0.2693783159410157,1,True
2023-09-12,1.0636053457745784,1.0636053457745784,0.0,0,False
2023-09-13,1.0636053457745784,1.0731710813615234,0.8993688894990193,1,True
2023-09-14,1.0731710813615234,1.0731710813615234,0.0,0,False
2023-09-15,1.0731710813615234,1.0731710813615234,0.0,0,False
2023-09-16,1.0731710813615234,1.0731710813615234,0.0,0,False
2023-09-17,1.0731710813615234,1.0731710813615234,0.0,0,False
2023-09-18,1.0731710813615234,1.0678109217854563,-0.49946925230845984,1,True
2023-09-19,1.0678109217854563,1.0678109217854563,0.0,0,False
2023-09-20,1.0678109217854563,1.0702702350238222,0.23031354972973261,1,True
2023-09-21,1.0702702350238222,1.0734229041821508,0.29456758257491167,0,True
2023-09-22,1.0734229041821508,1.0734229041821508,0.0,0,False
2023-09-23,1.0734229041821508,1.0734229041821508,0.0,0,False
2023-09-24,1.0734229041821508,1.0734229041821508,0.0,0,False
2023-09-25,1.0734229041821508,1.0734229041821508,0.0,0,False
2023-09-26,1.0734229041821508,1.0742542151058418,0.0774448654348836,1,True
2023-09-27,1.0742542151058418,1.0728719215478577,-0.12867471577460154,0,True
2023-09-28,1.0728719215478577,1.0728719215478577,0.0,0,False
2023-09-29,1.0728719215478577,1.0728719215478577,0.0,0,False
2023-09-30,1.0728719215478577,1.0728719215478577,0.0,0,False
2023-10-01,1.0728719215478577,1.0728719215478577,0.0,0,False
2023-10-02,1.0728719215478577,1.0728719215478577,0.0,0,False
2023-10-03,1.0728719215478577,1.0730734118424199,0.018780461163658835,1,True
2023-10-04,1.0730734118424199,1.0675089927585857,-0.5185497117369042,0,True
2023-10-05,1.0675089927585857,1.0675089927585857,0.0,0,False
2023-10-06,1.0675089927585857,1.0675089927585857,0.0,0,False
2023-10-07,1.0675089927585857,1.0675089927585857,0.0,0,False
2023-10-08,1.0675089927585857,1.0675089927585857,0.0,0,False
2023-10-09,1.0675089927585857,1.0675089927585857,0.0,0,False
2023-10-10,1.0675089927585857,1.0675089927585857,0.0,0,False
2023-10-11,1.0675089927585857,1.0675089927585857,0.0,0,False
2023-10-12,1.0675089927585857,1.0675089927585857,0.0,0,False
2023-10-13,1.0675089927585857,1.0675089927585857,0.0,0,False
2023-10-14,1.0675089927585857,1.0675089927585857,0.0,0,False
2023-10-15,1.0675089927585857,1.0674194634908631,-0.008386745997446265,1,True
2023-10-16,1.0674194634908631,1.0681254654524335,0.06614100507980059,1,True
2023-10-17,1.0681254654524335,1.0622930263312322,-0.5460443842831508,1,True
2023-10-18,1.0622930263312322,1.0622930263312322,0.0,0,False
2023-10-19,1.0622930263312322,1.0517079542790064,-0.9964361800230193,2,True
2023-10-20,1.0517079542790064,1.0517079542790064,0.0,0,False
2023-10-21,1.0517079542790064,1.0525040562391674,0.07569610526592108,1,True
2023-10-22,1.0525040562391674,1.0525040562391674,0.0,0,False
2023-10-23,1.0525040562391674,1.0525040562391674,0.0,0,False
2023-10-24,1.0525040562391674,1.0525040562391674,0.0,0,False
2023-10-25,1.0525040562391674,1.0525040562391674,0.0,0,False
2023-10-26,1.0525040562391674,1.0624713160874657,0.9470044119272547,2,True
2023-10-27,1.0624713160874657,1.0633007230418814,0.07806393846658821,1,True
2023-10-28,1.0633007230418814,1.0646363834140744,0.12561454565478414,0,True
2023-10-29,1.0646363834140744,1.0646363834140744,0.0,0,False
2023-10-30,1.0646363834140744,1.0646363834140744,0.0,0,False
2023-10-31,1.0646363834140744,1.0646363834140744,0.0,0,False
2023-11-01,1.0646363834140744,1.0646363834140744,0.0,0,False
2023-11-02,1.0646363834140744,1.0646363834140744,0.0,0,False
2023-11-03,1.0646363834140744,1.0646363834140744,0.0,0,False
2023-11-04,1.0646363834140744,1.0646363834140744,0.0,0,False
2023-11-05,1.0646363834140744,1.0646363834140744,0.0,0,False
2023-11-06,1.0646363834140744,1.0646363834140744,0.0,0,False
2023-11-07,1.0646363834140744,1.0593174891968755,-0.49959726156852957,1,True
2023-11-08,1.0593174891968755,1.0593174891968755,0.0,0,False
2023-11-09,1.0593174891968755,1.0582282542205204,-0.10282422290421867,3,True
2023-11-10,1.0582282542205204,1.071341335343273,1.2391543195387156,4,True
2023-11-11,1.071341335343273,1.071341335343273,0.0,0,False
2023-11-12,1.071341335343273,1.071341335343273,0.0,0,False
2023-11-13,1.071341335343273,1.071341335343273,0.0,0,False
2023-11-14,1.071341335343273,1.071341335343273,0.0,0,False
2023-11-15,1.071341335343273,1.071341335343273,0.0,0,False
2023-11-16,1.071341335343273,1.071341335343273,0.0,0,False
2023-11-17,1.071341335343273,1.071341335343273,0.0,0,False
2023-11-18,1.071341335343273,1.071341335343273,0.0,0,False
2023-11-19,1.071341335343273,1.071341335343273,0.0,0,False
2023-11-20,1.071341335343273,1.0730015034953482,0.15496164455777173,1,True
2023-11-21,1.0730015034953482,1.0692886556775125,-0.34602447487174226,0,True
2023-11-22,1.0692886556775125,1.067597442436526,-0.15816245987524402,1,True
2023-11-23,1.067597442436526,1.067597442436526,0.0,0,False
2023-11-24,1.067597442436526,1.067597442436526,0.0,0,False
2023-11-25,1.067597442436526,1.077185924673795,0.8981364937879155,1,True
2023-11-26,1.077185924673795,1.077185924673795,0.0,0,False
2023-11-27,1.077185924673795,1.071806725794862,-0.4993751548101444,1,True
2023-11-28,1.071806725794862,1.071806725794862,0.0,0,False
2023-11-29,1.071806725794862,1.0664531174914995,-0.4994938149312511,1,True
2023-11-30,1.0664531174914995,1.0664531174914995,0.0,0,False
2023-12-01,1.0664531174914995,1.0664531174914995,0.0,0,False
2023-12-02,1.0664531174914995,1.0664531174914995,0.0,0,False
2023-12-03,1.0664531174914995,1.0671187327902727,0.06241392967549775,1,True
2023-12-04,1.0671187327902727,1.0760532407327048,0.837255280775584,4,True
2023-12-05,1.0760532407327048,1.081780791436406,0.5322739142350486,0,True
2023-12-06,1.081780791436406,1.081780791436406,0.0,0,False
2023-12-07,1.081780791436406,1.0763774370017882,-0.49948700119208933,1,True
2023-12-08,1.0763774370017882,1.0763774370017882,0.0,0,False
2023-12-09,1.0763774370017882,1.0763774370017882,0.0,0,False
2023-12-10,1.0763774370017882,1.0763774370017882,0.0,0,False
2023-12-11,1.0763774370017882,1.0912852844827845,1.3850018560888522,4,True
2023-12-12,1.0912852844827845,1.0912852844827845,0.0,0,False
2023-12-13,1.0912852844827845,1.0904990363407425,-0.07204790105959091,1,True
2023-12-14,1.0904990363407425,1.0904990363407425,0.0,0,False
2023-12-15,1.0904990363407425,1.0904990363407425,0.0,0,False
2023-12-16,1.0904990363407425,1.0904990363407425,0.0,0,False
2023-12-17,1.0904990363407425,1.0904990363407425,0.0,0,False
2023-12-18,1.0904990363407425,1.0942253923863177,0.3417110810183921,1,True
2023-12-19,1.0942253923863177,1.0915351938148508,-0.24585415310094394,0,True
2023-12-20,1.0915351938148508,1.0915351938148508,0.0,0,False
2023-12-21,1.0915351938148508,1.0915351938148508,0.0,0,False
2023-12-22,1.0915351938148508,1.0915351938148508,0.0,0,False
2023-12-23,1.0915351938148508,1.0915351938148508,0.0,0,False
2023-12-24,1.0915351938148508,1.089856495831735,-0.15379238274937368,1,True
2023-12-25,1.089856495831735,1.0931741454203094,0.30441159925762573,0,True
2023-12-26,1.0931741454203094,1.0931741454203094,0.0,0,False
2023-12-27,1.0931741454203094,1.0850967225591281,-0.7388962586629466,2,True
2023-12-28,1.0850967225591281,1.0850967225591281,0.0,0,False
2023-12-29,1.0850967225591281,1.0850967225591281,0.0,0,False
2023-12-30,1.0850967225591281,1.0850967225591281,0.0,0,False
2023-12-31,1.0850967225591281,1.0850967225591281,0.0,0,False
