day,start_equity,end_equity,return_pct,entries,active
2021-09-02,1.0,1.0,0.0,0,False
2021-09-03,1.0,1.0,0.0,0,False
2021-09-04,1.0,1.0,0.0,0,False
2021-09-05,1.0,1.0,0.0,0,False
2021-09-06,1.0,1.0,0.0,0,False
2021-09-07,1.0,1.0,0.0,0,False
2021-09-08,1.0,1.0,0.0,0,False
2021-09-09,1.0,1.0,0.0,0,False
2021-09-10,1.0,1.0,0.0,0,False
2021-09-11,1.0,1.0,0.0,0,False
2021-09-12,1.0,1.0,0.0,0,False
2021-09-13,1.0,1.0,0.0,0,False
2021-09-14,1.0,1.0,0.0,0,False
2021-09-15,1.0,1.0,0.0,0,False
2021-09-16,1.0,1.0,0.0,0,False
2021-09-17,1.0,1.0,0.0,0,False
2021-09-18,1.0,1.0,0.0,0,False
2021-09-19,1.0,1.0,0.0,0,False
2021-09-20,1.0,1.0,0.0,0,False
2021-09-21,1.0,1.0,0.0,0,False
2021-09-22,1.0,1.0,0.0,0,False
2021-09-23,1.0,1.0,0.0,0,False
2021-09-24,1.0,1.0,0.0,0,False
2021-09-25,1.0,1.0,0.0,0,False
2021-09-26,1.0,1.0,0.0,0,False
2021-09-27,1.0,1.0,0.0,0,False
2021-09-28,1.0,1.0,0.0,0,False
2021-09-29,1.0,1.0,0.0,0,False
2021-09-30,1.0,1.0,0.0,0,False
2021-10-01,1.0,1.0,0.0,0,False
2021-10-02,1.0,1.0,0.0,0,False
2021-10-03,1.0,1.0,0.0,0,False
2021-10-04,1.0,1.0,0.0,0,False
2021-10-05,1.0,1.0,0.0,0,False
2021-10-06,1.0,0.9950030470865769,-0.49969529134230584,1,True
2021-10-07,0.9950030470865769,0.9950030470865769,0.0,0,False
2021-10-08,0.9950030470865769,0.9950030470865769,0.0,0,False
2021-10-09,0.9950030470865769,0.9950030470865769,0.0,0,False
2021-10-10,0.9950030470865769,0.9950030470865769,0.0,0,False
2021-10-11,0.9950030470865769,0.9950030470865769,0.0,0,False
2021-10-12,0.9950030470865769,0.9950030470865769,0.0,0,False
2021-10-13,0.9950030470865769,1.000771297016294,0.57972183568753,1,True
2021-10-14,1.000771297016294,1.0050421818727526,0.4267593274499104,0,True
2021-10-15,1.0050421818727526,1.0050421818727526,0.0,0,False
2021-10-16,1.0050421818727526,1.0012874519487007,-0.3735892872730462,1,True
2021-10-17,1.0012874519487007,1.0015387450061592,0.025096994571294218,0,True
2021-10-18,1.0015387450061592,1.0015387450061592,0.0,0,False
2021-10-19,1.0015387450061592,1.0015387450061592,0.0,0,False
2021-10-20,1.0015387450061592,1.0015387450061592,0.0,0,False
2021-10-21,1.0015387450061592,1.0015387450061592,0.0,0,False
2021-10-22,1.0015387450061592,1.0015387450061592,0.0,0,False
2021-10-23,1.0015387450061592,1.0015387450061592,0.0,0,False
2021-10-24,1.0015387450061592,1.0015387450061592,0.0,0,False
2021-10-25,1.0015387450061592,1.006178471373074,0.463259797990756,1,True
2021-10-26,1.006178471373074,1.006178471373074,0.0,0,False
2021-10-27,1.006178471373074,1.021885200742249,1.561028169062384,4,True
2021-10-28,1.021885200742249,1.0188144679012967,-0.30049685020605565,0,True
2021-10-29,1.0188144679012967,1.0188144679012967,0.0,0,False
2021-10-30,1.0188144679012967,1.0176796738429166,-0.11138377929769128,1,True
2021-10-31,1.0176796738429166,1.0179730695564766,0.02882986868080195,0,True
2021-11-01,1.0179730695564766,1.0179730695564766,0.0,0,False
2021-11-02,1.0179730695564766,1.0179730695564766,0.0,0,False
2021-11-03,1.0179730695564766,1.0179730695564766,0.0,0,False
2021-11-04,1.0179730695564766,1.0179730695564766,0.0,0,False
2021-11-05,1.0179730695564766,1.0179730695564766,0.0,0,False
2021-11-06,1.0179730695564766,1.0179730695564766,0.0,0,False
2021-11-07,1.0179730695564766,1.0179730695564766,0.0,0,False
2021-11-08,1.0179730695564766,1.0179730695564766,0.0,0,False
2021-11-09,1.0179730695564766,1.0179730695564766,0.0,0,False
2021-11-10,1.0179730695564766,1.0179730695564766,0.0,0,False
2021-11-11,1.0179730695564766,1.0339475960174347,1.56924843482531,6,True
2021-11-12,1.0339475960174347,1.0339475960174347,0.0,0,False
2021-11-13,1.0339475960174347,1.0339475960174347,0.0,0,False
2021-11-14,1.0339475960174347,1.0339475960174347,0.0,0,False
2021-11-15,1.0339475960174347,1.0339475960174347,0.0,0,False
2021-11-16,1.0339475960174347,1.069613151295072,3.449454828756715,4,True
2021-11-17,1.069613151295072,1.0783861155286665,0.8201997351072521,0,True
2021-11-18,1.0783861155286665,1.0739843060029655,-0.4081849221086342,1,True
2021-11-19,1.0739843060029655,1.0729951065928887,-0.09210557403378505,0,True
2021-11-20,1.0729951065928887,1.0729951065928887,0.0,0,False
2021-11-21,1.0729951065928887,1.0729951065928887,0.0,0,False
2021-11-22,1.0729951065928887,1.0729951065928887,0.0,0,False
2021-11-23,1.0729951065928887,1.0729951065928887,0.0,0,False
2021-11-24,1.0729951065928887,1.0729951065928887,0.0,0,False
2021-11-25,1.0729951065928887,1.0729951065928887,0.0,0,False
2021-11-26,1.0729951065928887,1.0791660155305771,0.5751106318912402,5,True
2021-11-27,1.0791660155305771,1.0772555781139292,-0.17702905661911572,0,True
2021-11-28,1.0772555781139292,1.0718753135001098,-0.4994417966476705,1,True
2021-11-29,1.0718753135001098,1.0718753135001098,0.0,0,False
2021-11-30,1.0718753135001098,1.0718753135001098,0.0,0,False
2021-12-01,1.0718753135001098,1.0690577194242938,-0.26286584272711133,1,True
2021-12-02,1.0690577194242938,1.0701267143644266,0.0999941276050631,1,True
2021-12-03,1.0701267143644266,1.0668939177403522,-0.302094750152504,1,True
2021-12-04,1.0668939177403522,1.0333022138527852,-3.1485514472435305,11,True
2021-12-05,1.0333022138527852,1.0311026880598815,-0.21286374532214491,0,True
2021-12-06,1.0311026880598815,1.0311026880598815,0.0,0,False
2021-12-07,1.0311026880598815,1.0311026880598815,0.0,0,False
2021-12-08,1.0311026880598815,1.0311026880598815,0.0,0,False
2021-12-09,1.0311026880598815,1.0311026880598815,0.0,0,False
2021-12-10,1.0311026880598815,1.0311026880598815,0.0,0,False
2021-12-11,1.0311026880598815,1.0311026880598815,0.0,0,False
2021-12-12,1.0311026880598815,1.0311026880598815,0.0,0,False
2021-12-13,1.0311026880598815,1.0311026880598815,0.0,0,False
2021-12-14,1.0311026880598815,1.0311026880598815,0.0,0,False
2021-12-15,1.0311026880598815,1.0311026880598815,0.0,0,False
2021-12-16,1.0311026880598815,1.0311026880598815,0.0,0,False
2021-12-17,1.0311026880598815,1.0304550245560302,-0.06281270637261693,1,True
2021-12-18,1.0304550245560302,1.0304550245560302,0.0,0,False
2021-12-19,1.0304550245560302,1.0304550245560302,0.0,0,False
2021-12-20,1.0304550245560302,1.0304550245560302,0.0,0,False
2021-12-21,1.0304550245560302,1.0304550245560302,0.0,0,False
2021-12-22,1.0304550245560302,1.0304550245560302,0.0,0,False
2021-12-23,1.0304550245560302,1.0304550245560302,0.0,0,False
2021-12-24,1.0304550245560302,1.0304550245560302,0.0,0,False
2021-12-25,1.0304550245560302,1.0304550245560302,0.0,0,False
2021-12-26,1.0304550245560302,1.0304550245560302,0.0,0,False
2021-12-27,1.0304550245560302,1.0304550245560302,0.0,0,False
2021-12-28,1.0304550245560302,1.0304550245560302,0.0,0,False
2021-12-29,1.0304550245560302,1.0304550245560302,0.0,0,False
2021-12-30,1.0304550245560302,1.0304550245560302,0.0,0,False
2021-12-31,1.0304550245560302,1.0304550245560302,0.0,0,False
2022-01-01,1.0304550245560302,1.0304550245560302,0.0,0,False
2022-01-02,1.0304550245560302,1.0304550245560302,0.0,0,False
2022-01-03,1.0304550245560302,1.0304550245560302,0.0,0,False
2022-01-04,1.0304550245560302,1.0304550245560302,0.0,0,False
2022-01-05,1.0304550245560302,1.0304550245560302,0.0,0,False
2022-01-06,1.0304550245560302,1.0318394048060473,0.13434649907340113,1,True
2022-01-07,1.0318394048060473,1.0318394048060473,0.0,0,False
2022-01-08,1.0318394048060473,1.0318394048060473,0.0,0,False
2022-01-09,1.0318394048060473,1.0318394048060473,0.0,0,False
2022-01-10,1.0318394048060473,1.0318394048060473,0.0,0,False
2022-01-11,1.0318394048060473,1.0318394048060473,0.0,0,False
2022-01-12,1.0318394048060473,1.0318394048060473,0.0,0,False
2022-01-13,1.0318394048060473,1.0318394048060473,0.0,0,False
2022-01-14,1.0318394048060473,1.0318394048060473,0.0,0,False
2022-01-15,1.0318394048060473,1.0318394048060473,0.0,0,False
2022-01-16,1.0318394048060473,1.0318394048060473,0.0,0,False
2022-01-17,1.0318394048060473,1.0318394048060473,0.0,0,False
2022-01-18,1.0318394048060473,1.0318394048060473,0.0,0,False
2022-01-19,1.0318394048060473,1.0318394048060473,0.0,0,False
2022-01-20,1.0318394048060473,1.0318394048060473,0.0,0,False
2022-01-21,1.0318394048060473,1.0318394048060473,0.0,0,False
2022-01-22,1.0318394048060473,1.0318394048060473,0.0,0,False
2022-01-23,1.0318394048060473,1.0318394048060473,0.0,0,False
2022-01-24,1.0318394048060473,1.0318394048060473,0.0,0,False
2022-01-25,1.0318394048060473,1.0318394048060473,0.0,0,False
2022-01-26,1.0318394048060473,1.0318394048060473,0.0,0,False
2022-01-27,1.0318394048060473,1.0318394048060473,0.0,0,False
2022-01-28,1.0318394048060473,1.0318394048060473,0.0,0,False
2022-01-29,1.0318394048060473,1.0318394048060473,0.0,0,False
2022-01-30,1.0318394048060473,1.0318394048060473,0.0,0,False
2022-01-31,1.0318394048060473,1.0318394048060473,0.0,0,False
2022-02-01,1.0318394048060473,1.0318394048060473,0.0,0,False
2022-02-02,1.0318394048060473,1.0318394048060473,0.0,0,False
2022-02-03,1.0318394048060473,1.0318394048060473,0.0,0,False
2022-02-04,1.0318394048060473,1.0318394048060473,0.0,0,False
2022-02-05,1.0318394048060473,1.0318394048060473,0.0,0,False
2022-02-06,1.0318394048060473,1.0318394048060473,0.0,0,False
2022-02-07,1.0318394048060473,1.0318394048060473,0.0,0,False
2022-02-08,1.0318394048060473,1.0318394048060473,0.0,0,False
2022-02-09,1.0318394048060473,1.0318394048060473,0.0,0,False
2022-02-10,1.0318394048060473,1.033021273687991,0.11454000268247277,2,True
2022-02-11,1.033021273687991,1.0229942651433581,-0.9706487949503018,0,True
2022-02-12,1.0229942651433581,1.0229942651433581,0.0,0,False
2022-02-13,1.0229942651433581,1.0229942651433581,0.0,0,False
2022-02-14,1.0229942651433581,1.0229942651433581,0.0,0,False
2022-02-15,1.0229942651433581,1.0229942651433581,0.0,0,False
2022-02-16,1.0229942651433581,1.0229942651433581,0.0,0,False
2022-02-17,1.0229942651433581,1.0229942651433581,0.0,0,False
2022-02-18,1.0229942651433581,1.0229942651433581,0.0,0,False
2022-02-19,1.0229942651433581,1.0229942651433581,0.0,0,False
2022-02-20,1.0229942651433581,1.0229942651433581,0.0,0,False
2022-02-21,1.0229942651433581,1.0229942651433581,0.0,0,False
2022-02-22,1.0229942651433581,1.0229942651433581,0.0,0,False
2022-02-23,1.0229942651433581,1.0229942651433581,0.0,0,False
2022-02-24,1.0229942651433581,1.0229942651433581,0.0,0,False
2022-02-25,1.0229942651433581,1.0229942651433581,0.0,0,False
2022-02-26,1.0229942651433581,1.0229942651433581,0.0,0,False
2022-02-27,1.0229942651433581,1.0229942651433581,0.0,0,False
2022-02-28,1.0229942651433581,1.0229942651433581,0.0,0,False
2022-03-01,1.0229942651433581,1.0229942651433581,0.0,0,False
2022-03-02,1.0229942651433581,1.0229942651433581,0.0,0,False
2022-03-03,1.0229942651433581,1.0229942651433581,0.0,0,False
2022-03-04,1.0229942651433581,1.0229942651433581,0.0,0,False
2022-03-05,1.0229942651433581,1.0229942651433581,0.0,0,False
2022-03-06,1.0229942651433581,1.0229942651433581,0.0,0,False
2022-03-07,1.0229942651433581,1.0229942651433581,0.0,0,False
2022-03-08,1.0229942651433581,1.0229942651433581,0.0,0,False
2022-03-09,1.0229942651433581,1.0229942651433581,0.0,0,False
2022-03-10,1.0229942651433581,1.0229942651433581,0.0,0,False
2022-03-11,1.0229942651433581,1.0229942651433581,0.0,0,False
2022-03-12,1.0229942651433581,1.0229942651433581,0.0,0,False
2022-03-13,1.0229942651433581,1.0229942651433581,0.0,0,False
2022-03-14,1.0229942651433581,1.0229942651433581,0.0,0,False
2022-03-15,1.0229942651433581,1.0229942651433581,0.0,0,False
2022-03-16,1.0229942651433581,1.0229942651433581,0.0,0,False
2022-03-17,1.0229942651433581,1.0229942651433581,0.0,0,False
2022-03-18,1.0229942651433581,1.0229942651433581,0.0,0,False
2022-03-19,1.0229942651433581,1.0229942651433581,0.0,0,False
2022-03-20,1.0229942651433581,1.0229942651433581,0.0,0,False
2022-03-21,1.0229942651433581,1.0229942651433581,0.0,0,False
2022-03-22,1.0229942651433581,1.0229942651433581,0.0,0,False
2022-03-23,1.0229942651433581,1.0229942651433581,0.0,0,False
2022-03-24,1.0229942651433581,1.0229942651433581,0.0,0,False
2022-03-25,1.0229942651433581,1.0229942651433581,0.0,0,False
2022-03-26,1.0229942651433581,1.0249215176087545,0.18839328147419732,1,True
2022-03-27,1.0249215176087545,1.0249215176087545,0.0,0,False
2022-03-28,1.0249215176087545,1.0249215176087545,0.0,0,False
2022-03-29,1.0249215176087545,1.0249215176087545,0.0,0,False
2022-03-30,1.0249215176087545,1.0234142555281183,-0.14706121929733973,1,True
2022-03-31,1.0234142555281183,1.0234142555281183,0.0,0,False
2022-04-01,1.0234142555281183,1.0234142555281183,0.0,0,False
2022-04-02,1.0234142555281183,1.0234142555281183,0.0,0,False
2022-04-03,1.0234142555281183,1.0234142555281183,0.0,0,False
2022-04-04,1.0234142555281183,1.0183027586256104,-0.4994553158603532,1,True
2022-04-05,1.0183027586256104,1.0183027586256104,0.0,0,False
2022-04-06,1.0183027586256104,1.0197665693479712,0.14375004977267292,1,True
2022-04-07,1.0197665693479712,1.0168771318881358,-0.28334302640288245,1,True
2022-04-08,1.0168771318881358,1.0168771318881358,0.0,0,False
2022-04-09,1.0168771318881358,1.0168771318881358,0.0,0,False
2022-04-10,1.0168771318881358,1.0168771318881358,0.0,0,False
2022-04-11,1.0168771318881358,1.0168771318881358,0.0,0,False
2022-04-12,1.0168771318881358,1.0168771318881358,0.0,0,False
2022-04-13,1.0168771318881358,1.0168771318881358,0.0,0,False
2022-04-14,1.0168771318881358,1.0168771318881358,0.0,0,False
2022-04-15,1.0168771318881358,1.0168771318881358,0.0,0,False
2022-04-16,1.0168771318881358,1.0168771318881358,0.0,0,False
2022-04-17,1.0168771318881358,1.0168771318881358,0.0,0,False
2022-04-18,1.0168771318881358,1.019917128727655,0.2989541945814578,1,True
2022-04-19,1.019917128727655,1.0184256755566736,-0.14623277999477047,0,True
2022-04-20,1.0184256755566736,1.0184256755566736,0.0,0,False
2022-04-21,1.0184256755566736,1.0184256755566736,0.0,0,False
2022-04-22,1.0184256755566736,1.0184256755566736,0.0,0,False
2022-04-23,1.0184256755566736,1.0184256755566736,0.0,0,False
2022-04-24,1.0184256755566736,1.0184256755566736,0.0,0,False
2022-04-25,1.0184256755566736,1.0184256755566736,0.0,0,False
2022-04-26,1.0184256755566736,1.0184256755566736,0.0,0,False
2022-04-27,1.0184256755566736,1.0184256755566736,0.0,0,False
2022-04-28,1.0184256755566736,1.0184256755566736,0.0,0,False
2022-04-29,1.0184256755566736,1.0184256755566736,0.0,0,False
2022-04-30,1.0184256755566736,1.0184256755566736,0.0,0,False
2022-05-01,1.0184256755566736,1.034934165579988,1.6209813263290629,4,True
2022-05-02,1.034934165579988,1.034934165579988,0.0,0,False
2022-05-03,1.034934165579988,1.034934165579988,0.0,0,False
2022-05-04,1.034934165579988,1.034934165579988,0.0,0,False
2022-05-05,1.034934165579988,1.034934165579988,0.0,0,False
2022-05-06,1.034934165579988,1.030746699421502,-0.4046118388737585,2,True
2022-05-07,1.030746699421502,1.0297213410951362,-0.09947723596313018,0,True
2022-05-08,1.0297213410951362,1.0297213410951362,0.0,0,False
2022-05-09,1.0297213410951362,1.0297213410951362,0.0,0,False
2022-05-10,1.0297213410951362,1.0194309872593392,-0.999333841605432,2,True
2022-05-11,1.0194309872593392,1.0045768456867001,-1.457101241602754,5,True
2022-05-12,1.0045768456867001,0.9891233629432904,-1.5383076774824755,1,True
2022-05-13,0.9891233629432904,0.9891233629432904,0.0,0,False
2022-05-14,0.9891233629432904,0.9891233629432904,0.0,0,False
2022-05-15,0.9891233629432904,0.9861045712546146,-0.30519870440557373,1,True
2022-05-16,0.9861045712546146,0.9882220001100441,0.21472660376531394,1,True
2022-05-17,0.9882220001100441,0.9882220001100441,0.0,0,False
2022-05-18,0.9882220001100441,0.9882220001100441,0.0,0,False
2022-05-19,0.9882220001100441,0.9882220001100441,0.0,0,False
2022-05-20,0.9882220001100441,0.983287886807361,-0.4992919912867433,1,True
2022-05-21,0.983287886807361,0.983287886807361,0.0,0,False
2022-05-22,0.983287886807361,0.983287886807361,0.0,0,False
2022-05-23,0.983287886807361,0.9830318963462784,-0.026034131460095367,1,True
2022-05-24,0.9830318963462784,0.9780327303458851,-0.5085456554333678,1,True
2022-05-25,0.9780327303458851,0.9779722429329676,-0.006184600069170099,1,True
2022-05-26,0.9779722429329676,0.9832743055384098,0.5421485777082236,1,True
2022-05-27,0.9832743055384098,0.9814694250692247,-0.183558185037358,0,True
2022-05-28,0.9814694250692247,0.9814694250692247,0.0,0,False
2022-05-29,0.9814694250692247,0.9814694250692247,0.0,0,False
2022-05-30,0.9814694250692247,0.9814694250692247,0.0,0,False
2022-05-31,0.9814694250692247,0.9814694250692247,0.0,0,False
2022-06-01,0.9814694250692247,0.9814694250692247,0.0,0,False
2022-06-02,0.9814694250692247,0.976566291202056,-0.4995707193652943,1,True
2022-06-03,0.976566291202056,0.976566291202056,0.0,0,False
2022-06-04,0.976566291202056,0.976566291202056,0.0,0,False
2022-06-05,0.976566291202056,0.976566291202056,0.0,0,False
2022-06-06,0.976566291202056,0.976566291202056,0.0,0,False
2022-06-07,0.976566291202056,0.9775878465872017,0.10460686533508845,1,True
2022-06-08,0.9775878465872017,0.9778209610547928,0.023845884378048687,1,True
2022-06-09,0.9778209610547928,0.9778209610547928,0.0,0,False
2022-06-10,0.9778209610547928,0.9846215500806534,0.6954840708798926,1,True
2022-06-11,0.9846215500806534,0.9846215500806534,0.0,0,False
2022-06-12,0.9846215500806534,0.9856573626325039,0.1051990535618108,4,True
2022-06-13,0.9856573626325039,0.9856573626325039,0.0,0,False
2022-06-14,0.9856573626325039,0.9856573626325039,0.0,0,False
2022-06-15,0.9856573626325039,0.9856573626325039,0.0,0,False
2022-06-16,0.9856573626325039,0.9959652042382044,1.0457834534072008,2,True
2022-06-17,0.9959652042382044,0.9992461683704981,0.32942557815593965,0,True
2022-06-18,0.9992461683704981,0.9891330047346197,-1.0120793009764761,4,True
2022-06-19,0.9891330047346197,0.9911427622304166,0.20318374638970127,0,True
2022-06-20,0.9911427622304166,0.9911427622304166,0.0,0,False
2022-06-21,0.9911427622304166,0.9911427622304166,0.0,0,False
2022-06-22,0.9911427622304166,0.9911427622304166,0.0,0,False
2022-06-23,0.9911427622304166,0.9911427622304166,0.0,0,False
2022-06-24,0.9911427622304166,0.9911427622304166,0.0,0,False
2022-06-25,0.9911427622304166,0.9911427622304166,0.0,0,False
2022-06-26,0.9911427622304166,0.9911427622304166,0.0,0,False
2022-06-27,0.9911427622304166,0.9911427622304166,0.0,0,False
2022-06-28,0.9911427622304166,0.9928395583922746,0.17119593932557464,1,True
2022-06-29,0.9928395583922746,0.9984827183873334,0.5683858935069841,0,True
2022-06-30,0.9984827183873334,0.9984827183873334,0.0,0,False
2022-07-01,0.9984827183873334,0.9984827183873334,0.0,0,False
2022-07-02,0.9984827183873334,0.9984827183873334,0.0,0,False
2022-07-03,0.9984827183873334,0.9984827183873334,0.0,0,False
2022-07-04,0.9984827183873334,0.9984827183873334,0.0,0,False
2022-07-05,0.9984827183873334,0.9984827183873334,0.0,0,False
2022-07-06,0.9984827183873334,0.9984827183873334,0.0,0,False
2022-07-07,0.9984827183873334,0.9984827183873334,0.0,0,False
2022-07-08,0.9984827183873334,0.9984827183873334,0.0,0,False
2022-07-09,0.9984827183873334,0.9984827183873334,0.0,0,False
2022-07-10,0.9984827183873334,0.9984827183873334,0.0,0,False
2022-07-11,0.9984827183873334,0.9984827183873334,0.0,0,False
2022-07-12,0.9984827183873334,0.9984827183873334,0.0,0,False
2022-07-13,0.9984827183873334,1.0107402605007634,1.2276168518196684,4,True
2022-07-14,1.0107402605007634,1.0285031743190394,1.7574162732446608,0,True
2022-07-15,1.0285031743190394,1.0285031743190394,0.0,0,False
2022-07-16,1.0285031743190394,1.0285031743190394,0.0,0,False
2022-07-17,1.0285031743190394,1.0285031743190394,0.0,0,False
2022-07-18,1.0285031743190394,1.0285031743190394,0.0,0,False
2022-07-19,1.0285031743190394,1.0285031743190394,0.0,0,False
2022-07-20,1.0285031743190394,1.0285031743190394,0.0,0,False
2022-07-21,1.0285031743190394,1.0258154505568933,-0.261323817879866,3,True
2022-07-22,1.0258154505568933,1.0258154505568933,0.0,0,False
2022-07-23,1.0258154505568933,1.0258154505568933,0.0,0,False
2022-07-24,1.0258154505568933,1.0320275802006038,0.6055796527862922,1,True
2022-07-25,1.0320275802006038,1.0331757883487764,0.11125750611717944,1,True
2022-07-26,1.0331757883487764,1.0331757883487764,0.0,0,False
2022-07-27,1.0331757883487764,1.0331757883487764,0.0,0,False
2022-07-28,1.0331757883487764,1.0331757883487764,0.0,0,False
2022-07-29,1.0331757883487764,1.0331757883487764,0.0,0,False
2022-07-30,1.0331757883487764,1.0331757883487764,0.0,0,False
2022-07-31,1.0331757883487764,1.0331757883487764,0.0,0,False
2022-08-01,1.0331757883487764,1.0331757883487764,0.0,0,False
2022-08-02,1.0331757883487764,1.0331757883487764,0.0,0,False
2022-08-03,1.0331757883487764,1.0331757883487764,0.0,0,False
2022-08-04,1.0331757883487764,1.0331757883487764,0.0,0,False
2022-08-05,1.0331757883487764,1.0331757883487764,0.0,0,False
2022-08-06,1.0331757883487764,1.0331757883487764,0.0,0,False
2022-08-07,1.0331757883487764,1.0331757883487764,0.0,0,False
2022-08-08,1.0331757883487764,1.0331757883487764,0.0,0,False
2022-08-09,1.0331757883487764,1.0353097565406573,0.20654454120447863,1,True
2022-08-10,1.0353097565406573,1.0353097565406573,0.0,0,False
2022-08-11,1.0353097565406573,1.0353097565406573,0.0,0,False
2022-08-12,1.0353097565406573,1.0356932640834131,0.0370427826390074,1,True
2022-08-13,1.0356932640834131,1.0356932640834131,0.0,0,False
2022-08-14,1.0356932640834131,1.0356932640834131,0.0,0,False
2022-08-15,1.0356932640834131,1.0356932640834131,0.0,0,False
2022-08-16,1.0356932640834131,1.0356932640834131,0.0,0,False
2022-08-17,1.0356932640834131,1.0356932640834131,0.0,0,False
2022-08-18,1.0356932640834131,1.0356932640834131,0.0,0,False
2022-08-19,1.0356932640834131,1.0154607214098714,-1.9535265290585246,8,True
2022-08-20,1.0154607214098714,1.0190028628103232,0.3488211139800468,0,True
2022-08-21,1.0190028628103232,1.0190028628103232,0.0,0,False
2022-08-22,1.0190028628103232,1.0190028628103232,0.0,0,False
2022-08-23,1.0190028628103232,1.0190028628103232,0.0,0,False
2022-08-24,1.0190028628103232,1.0190028628103232,0.0,0,False
2022-08-25,1.0190028628103232,1.0190028628103232,0.0,0,False
2022-08-26,1.0190028628103232,1.0190028628103232,0.0,0,False
2022-08-27,1.0190028628103232,1.0190028628103232,0.0,0,False
2022-08-28,1.0190028628103232,1.0190028628103232,0.0,0,False
2022-08-29,1.0190028628103232,1.0190028628103232,0.0,0,False
2022-08-30,1.0190028628103232,1.0190028628103232,0.0,0,False
2022-08-31,1.0190028628103232,1.0190028628103232,0.0,0,False
2022-09-01,1.0190028628103232,1.0190028628103232,0.0,0,False
2022-09-02,1.0190028628103232,1.0190028628103232,0.0,0,False
2022-09-03,1.0190028628103232,1.0190028628103232,0.0,0,False
2022-09-04,1.0190028628103232,1.0190028628103232,0.0,0,False
2022-09-05,1.0190028628103232,1.0190028628103232,0.0,0,False
2022-09-06,1.0190028628103232,1.0190028628103232,0.0,0,False
2022-09-07,1.0190028628103232,1.0110992165169186,-0.7756255239172671,4,True
2022-09-08,1.0110992165169186,1.0110992165169186,0.0,0,False
2022-09-09,1.0110992165169186,1.0110992165169186,0.0,0,False
2022-09-10,1.0110992165169186,1.0110992165169186,0.0,0,False
2022-09-11,1.0110992165169186,1.0110992165169186,0.0,0,False
2022-09-12,1.0110992165169186,1.0110992165169186,0.0,0,False
2022-09-13,1.0110992165169186,1.0028494769080858,-0.8159179113254478,4,True
2022-09-14,1.0028494769080858,0.9981467910399647,-0.46893237483854877,0,True
2022-09-15,0.9981467910399647,1.0032494110940042,0.5112093832133846,1,True
2022-09-16,1.0032494110940042,1.0032494110940042,0.0,0,False
2022-09-17,1.0032494110940042,1.0032494110940042,0.0,0,False
2022-09-18,1.0032494110940042,1.0032494110940042,0.0,0,False
2022-09-19,1.0032494110940042,1.0035901964931546,0.03396816338807618,5,True
2022-09-20,1.0035901964931546,1.0035901964931546,0.0,0,False
2022-09-21,1.0035901964931546,1.0035901964931546,0.0,0,False
2022-09-22,1.0035901964931546,1.0035901964931546,0.0,0,False
2022-09-23,1.0035901964931546,1.0035901964931546,0.0,0,False
2022-09-24,1.0035901964931546,1.0035901964931546,0.0,0,False
2022-09-25,1.0035901964931546,1.0035901964931546,0.0,0,False
2022-09-26,1.0035901964931546,1.0035901964931546,0.0,0,False
2022-09-27,1.0035901964931546,1.0035901964931546,0.0,0,False
2022-09-28,1.0035901964931546,1.0035901964931546,0.0,0,False
2022-09-29,1.0035901964931546,1.0035901964931546,0.0,0,False
2022-09-30,1.0035901964931546,1.0035901964931546,0.0,0,False
2022-10-01,1.0035901964931546,1.0035901964931546,0.0,0,False
2022-10-02,1.0035901964931546,1.0035901964931546,0.0,0,False
2022-10-03,1.0035901964931546,1.0035901964931546,0.0,0,False
2022-10-04,1.0035901964931546,1.0035901964931546,0.0,0,False
2022-10-05,1.0035901964931546,1.0035901964931546,0.0,0,False
2022-10-06,1.0035901964931546,1.0035901964931546,0.0,0,False
2022-10-07,1.0035901964931546,1.0035901964931546,0.0,0,False
2022-10-08,1.0035901964931546,1.0035901964931546,0.0,0,False
2022-10-09,1.0035901964931546,1.0035901964931546,0.0,0,False
2022-10-10,1.0035901964931546,1.0035901964931546,0.0,0,False
2022-10-11,1.0035901964931546,1.0292447299935907,2.5562758175678546,4,True
2022-10-12,1.0292447299935907,1.0292447299935907,0.0,0,False
2022-10-13,1.0292447299935907,1.0292447299935907,0.0,0,False
2022-10-14,1.0292447299935907,1.0292447299935907,0.0,0,False
2022-10-15,1.0292447299935907,1.0292447299935907,0.0,0,False
2022-10-16,1.0292447299935907,1.0292447299935907,0.0,0,False
2022-10-17,1.0292447299935907,1.0292447299935907,0.0,0,False
2022-10-18,1.0292447299935907,1.0292447299935907,0.0,0,False
2022-10-19,1.0292447299935907,1.0292447299935907,0.0,0,False
2022-10-20,1.0292447299935907,1.0335679111200824,0.42003432230530713,1,True
2022-10-21,1.0335679111200824,1.0335679111200824,0.0,0,False
2022-10-22,1.0335679111200824,1.0335679111200824,0.0,0,False
2022-10-23,1.0335679111200824,1.0335679111200824,0.0,0,False
2022-10-24,1.0335679111200824,1.0335679111200824,0.0,0,False
2022-10-25,1.0335679111200824,1.0335679111200824,0.0,0,False
2022-10-26,1.0335679111200824,1.0335679111200824,0.0,0,False
2022-10-27,1.0335679111200824,1.0335679111200824,0.0,0,False
2022-10-28,1.0335679111200824,1.0335679111200824,0.0,0,False
2022-10-29,1.0335679111200824,1.0335679111200824,0.0,0,False
2022-10-30,1.0335679111200824,1.0335679111200824,0.0,0,False
2022-10-31,1.0335679111200824,1.0335679111200824,0.0,0,False
2022-11-01,1.0335679111200824,1.0335679111200824,0.0,0,False
2022-11-02,1.0335679111200824,1.0383482762043699,0.4625109809288652,1,True
2022-11-03,1.0383482762043699,1.0383482762043699,0.0,0,False
2022-11-04,1.0383482762043699,1.0507657261231587,1.1958848686280943,2,True
2022-11-05,1.0507657261231587,1.0497171021349734,-0.09979617360134085,0,True
2022-11-06,1.0497171021349734,1.0497171021349734,0.0,0,False
2022-11-07,1.0497171021349734,1.0501402948776808,0.04031493264677888,1,True
2022-11-08,1.0501402948776808,1.042335803543393,-0.7431855888547667,3,True
2022-11-09,1.042335803543393,1.0391564926144672,-0.3050179143916698,4,True
2022-11-10,1.0391564926144672,1.0480308450278792,0.8539957625713024,1,True
2022-11-11,1.0480308450278792,1.0544524189378572,0.6127275681286903,5,True
2022-11-12,1.0544524189378572,1.064847160114988,0.9857951852964009,1,True
2022-11-13,1.064847160114988,1.0584320591786245,-0.6024433530602447,1,True
2022-11-14,1.0584320591786245,1.0637441930530496,0.501887091226938,2,True
2022-11-15,1.0637441930530496,1.0637441930530496,0.0,0,False
2022-11-16,1.0637441930530496,1.0637441930530496,0.0,0,False
2022-11-17,1.0637441930530496,1.0637441930530496,0.0,0,False
2022-11-18,1.0637441930530496,1.0637441930530496,0.0,0,False
2022-11-19,1.0637441930530496,1.0640904295121674,0.03254884598937746,2,True
2022-11-20,1.0640904295121674,1.059391928765047,-0.4415508886095654,1,True
2022-11-21,1.059391928765047,1.0532081606387114,-0.5837091975529951,1,True
2022-11-22,1.0532081606387114,1.0532081606387114,0.0,0,False
2022-11-23,1.0532081606387114,1.0532081606387114,0.0,0,False
2022-11-24,1.0532081606387114,1.0532081606387114,0.0,0,False
2022-11-25,1.0532081606387114,1.0532081606387114,0.0,0,False
2022-11-26,1.0532081606387114,1.0532081606387114,0.0,0,False
2022-11-27,1.0532081606387114,1.0532081606387114,0.0,0,False
2022-11-28,1.0532081606387114,1.0496337096510966,-0.3393869437402608,2,True
2022-11-29,1.0496337096510966,1.0496337096510966,0.0,0,False
2022-11-30,1.0496337096510966,1.0496337096510966,0.0,0,False
2022-12-01,1.0496337096510966,1.0495654005490629,-0.00650789903235971,1,True
2022-12-02,1.0495654005490629,1.0495654005490629,0.0,0,False
2022-12-03,1.0495654005490629,1.0495654005490629,0.0,0,False
2022-12-04,1.0495654005490629,1.0495654005490629,0.0,0,False
2022-12-05,1.0495654005490629,1.0495654005490629,0.0,0,False
2022-12-06,1.0495654005490629,1.0495654005490629,0.0,0,False
2022-12-07,1.0495654005490629,1.0495654005490629,0.0,0,False
2022-12-08,1.0495654005490629,1.0443274263612128,-0.499061248123267,1,True
2022-12-09,1.0443274263612128,1.0443274263612128,0.0,0,False
2022-12-10,1.0443274263612128,1.0443274263612128,0.0,0,False
2022-12-11,1.0443274263612128,1.0443274263612128,0.0,0,False
2022-12-12,1.0443274263612128,1.0443274263612128,0.0,0,False
2022-12-13,1.0443274263612128,1.0443274263612128,0.0,0,False
2022-12-14,1.0443274263612128,1.0443274263612128,0.0,0,False
2022-12-15,1.0443274263612128,1.0443274263612128,0.0,0,False
2022-12-16,1.0443274263612128,1.0443274263612128,0.0,0,False
2022-12-17,1.0443274263612128,1.0577456653945438,1.2848689687375847,4,True
2022-12-18,1.0577456653945438,1.0577456653945438,0.0,0,False
2022-12-19,1.0577456653945438,1.0577456653945438,0.0,0,False
2022-12-20,1.0577456653945438,1.0577456653945438,0.0,0,False
2022-12-21,1.0577456653945438,1.0577456653945438,0.0,0,False
2022-12-22,1.0577456653945438,1.0577456653945438,0.0,0,False
2022-12-23,1.0577456653945438,1.0577456653945438,0.0,0,False
2022-12-24,1.0577456653945438,1.0577456653945438,0.0,0,False
2022-12-25,1.0577456653945438,1.0577456653945438,0.0,0,False
2022-12-26,1.0577456653945438,1.0577456653945438,0.0,0,False
2022-12-27,1.0577456653945438,1.0577456653945438,0.0,0,False
2022-12-28,1.0577456653945438,1.0605994555835183,0.26979927995356423,1,True
2022-12-29,1.0605994555835183,1.0595289656682036,-0.10093253486781473,0,True
2022-12-30,1.0595289656682036,1.0595289656682036,0.0,0,False
2022-12-31,1.0595289656682036,1.0595289656682036,0.0,0,False
2023-01-01,1.0595289656682036,1.0595289656682036,0.0,0,False
2023-01-02,1.0595289656682036,1.0599164641835923,0.036572715607108286,1,True
2023-01-03,1.0599164641835923,1.060011147039361,0.00893304887394919,0,True
2023-01-04,1.060011147039361,1.060011147039361,0.0,0,False
2023-01-05,1.060011147039361,1.060011147039361,0.0,0,False
2023-01-06,1.060011147039361,1.060011147039361,0.0,0,False
2023-01-07,1.060011147039361,1.060011147039361,0.0,0,False
2023-01-08,1.060011147039361,1.060011147039361,0.0,0,False
2023-01-09,1.060011147039361,1.060011147039361,0.0,0,False
2023-01-10,1.060011147039361,1.057868609424686,-0.20212406451186604,2,True
2023-01-11,1.057868609424686,1.0586089977181004,0.069988681658395,0,True
2023-01-12,1.0586089977181004,1.0586089977181004,0.0,0,False
2023-01-13,1.0586089977181004,1.0586089977181004,0.0,0,False
2023-01-14,1.0586089977181004,1.0586089977181004,0.0,0,False
2023-01-15,1.0586089977181004,1.0603404484534518,0.16355904201490468,1,True
2023-01-16,1.0603404484534518,1.0603404484534518,0.0,0,False
2023-01-17,1.0603404484534518,1.0603404484534518,0.0,0,False
2023-01-18,1.0603404484534518,1.0603404484534518,0.0,0,False
2023-01-19,1.0603404484534518,1.0550449883928261,-0.4994113040155401,1,True
2023-01-20,1.0550449883928261,1.0550449883928261,0.0,0,False
2023-01-21,1.0550449883928261,1.0564182535231375,0.1301617604386074,1,True
2023-01-22,1.0564182535231375,1.055689293204422,-0.0690030029568689,0,True
2023-01-23,1.055689293204422,1.055689293204422,0.0,0,False
2023-01-24,1.055689293204422,1.0621363610714225,0.6106974759051642,1,True
2023-01-25,1.0621363610714225,1.069206124318246,0.6656172885082245,5,True
2023-01-26,1.069206124318246,1.069206124318246,0.0,0,False
2023-01-27,1.069206124318246,1.069206124318246,0.0,0,False
2023-01-28,1.069206124318246,1.069206124318246,0.0,0,False
2023-01-29,1.069206124318246,1.069206124318246,0.0,0,False
2023-01-30,1.069206124318246,1.0693937744177857,0.0175504138324456,2,True
2023-01-31,1.0693937744177857,1.0657730891395494,-0.3385736259973626,2,True
2023-02-01,1.0657730891395494,1.0657730891395494,0.0,0,False
2023-02-02,1.0657730891395494,1.0657730891395494,0.0,0,False
2023-02-03,1.0657730891395494,1.0657730891395494,0.0,0,False
2023-02-04,1.0657730891395494,1.0657730891395494,0.0,0,False
2023-02-05,1.0657730891395494,1.0690761574105956,0.30992228127217913,4,True
2023-02-06,1.0690761574105956,1.0820313617635278,1.2118130465383237,1,True
2023-02-07,1.0820313617635278,1.0815405533686566,-0.04535990473244489,0,True
2023-02-08,1.0815405533686566,1.0815405533686566,0.0,0,False
2023-02-09,1.0815405533686566,1.0815405533686566,0.0,0,False
2023-02-10,1.0815405533686566,1.0815405533686566,0.0,0,False
2023-02-11,1.0815405533686566,1.0815405533686566,0.0,0,False
2023-02-12,1.0815405533686566,1.0815405533686566,0.0,0,False
2023-02-13,1.0815405533686566,1.0815405533686566,0.0,0,False
2023-02-14,1.0815405533686566,1.0815405533686566,0.0,0,False
2023-02-15,1.0815405533686566,1.0815405533686566,0.0,0,False
2023-02-16,1.0815405533686566,1.0815405533686566,0.0,0,False
2023-02-17,1.0815405533686566,1.0815405533686566,0.0,0,False
2023-02-18,1.0815405533686566,1.0815405533686566,0.0,0,False
2023-02-19,1.0815405533686566,1.0815405533686566,0.0,0,False
2023-02-20,1.0815405533686566,1.0815405533686566,0.0,0,False
2023-02-21,1.0815405533686566,1.0801955149589952,-0.1243631970592296,2,True
2023-02-22,1.0801955149589952,1.0805800747897765,0.03560094681525072,0,True
2023-02-23,1.0805800747897765,1.0927911449849477,1.1300476919812619,1,True
2023-02-24,1.0927911449849477,1.0927911449849477,0.0,0,False
2023-02-25,1.0927911449849477,1.0927911449849477,0.0,0,False
2023-02-26,1.0927911449849477,1.0927911449849477,0.0,0,False
2023-02-27,1.0927911449849477,1.0873330388400213,-0.49946471198771825,1,True
2023-02-28,1.0873330388400213,1.0873330388400213,0.0,0,False
2023-03-01,1.0873330388400213,1.0873330388400213,0.0,0,False
2023-03-02,1.0873330388400213,1.0873330388400213,0.0,0,False
2023-03-03,1.0873330388400213,1.0821806956460445,-0.4738514337312316,5,True
2023-03-04,1.0821806956460445,1.0821806956460445,0.0,0,False
2023-03-05,1.0821806956460445,1.0821806956460445,0.0,0,False
2023-03-06,1.0821806956460445,1.0821806956460445,0.0,0,False
2023-03-07,1.0821806956460445,1.0821806956460445,0.0,0,False
2023-03-08,1.0821806956460445,1.0821806956460445,0.0,0,False
2023-03-09,1.0821806956460445,1.0821806956460445,0.0,0,False
2023-03-10,1.0821806956460445,1.0821806956460445,0.0,0,False
2023-03-11,1.0821806956460445,1.0879614378786115,0.5341753235688751,1,True
2023-03-12,1.0879614378786115,1.0846977288912962,-0.2999838848773084,0,True
2023-03-13,1.0846977288912962,1.0846977288912962,0.0,0,False
2023-03-14,1.0846977288912962,1.0846977288912962,0.0,0,False
2023-03-15,1.0846977288912962,1.0846977288912962,0.0,0,False
2023-03-16,1.0846977288912962,1.0874562522818838,0.2543126363329984,1,True
2023-03-17,1.0874562522818838,1.0820257878573207,-0.4993731392107015,1,True
2023-03-18,1.0820257878573207,1.0820257878573207,0.0,0,False
2023-03-19,1.0820257878573207,1.0820257878573207,0.0,0,False
2023-03-20,1.0820257878573207,1.0820257878573207,0.0,0,False
2023-03-21,1.0820257878573207,1.0766234352530357,-0.49928131703617096,1,True
2023-03-22,1.0766234352530357,1.0766234352530357,0.0,0,False
2023-03-23,1.0766234352530357,1.0872072992931299,0.9830609007323687,3,True
2023-03-24,1.0872072992931299,1.0885290553128673,0.1215735049421296,0,True
2023-03-25,1.0885290553128673,1.0830914838131698,-0.4995338868685084,1,True
2023-03-26,1.0830914838131698,1.0830914838131698,0.0,0,False
2023-03-27,1.0830914838131698,1.0830914838131698,0.0,0,False
2023-03-28,1.0830914838131698,1.0830914838131698,0.0,0,False
2023-03-29,1.0830914838131698,1.0830914838131698,0.0,0,False
2023-03-30,1.0830914838131698,1.0830914838131698,0.0,0,False
2023-03-31,1.0830914838131698,1.0830914838131698,0.0,0,False
2023-04-01,1.0830914838131698,1.0830914838131698,0.0,0,False
2023-04-02,1.0830914838131698,1.0830914838131698,0.0,0,False
2023-04-03,1.0830914838131698,1.0830914838131698,0.0,0,False
2023-04-04,1.0830914838131698,1.0830914838131698,0.0,0,False
2023-04-05,1.0830914838131698,1.0830914838131698,0.0,0,False
2023-04-06,1.0830914838131698,1.0776775000954841,-0.49986393565065734,1,True
2023-04-07,1.0776775000954841,1.073610343777754,-0.37740013291265306,1,True
2023-04-08,1.073610343777754,1.073610343777754,0.0,0,False
2023-04-09,1.073610343777754,1.073610343777754,0.0,0,False
2023-04-10,1.073610343777754,1.073610343777754,0.0,0,False
2023-04-11,1.073610343777754,1.073610343777754,0.0,0,False
2023-04-12,1.073610343777754,1.073610343777754,0.0,0,False
2023-04-13,1.073610343777754,1.073610343777754,0.0,0,False
2023-04-14,1.073610343777754,1.073610343777754,0.0,0,False
2023-04-15,1.073610343777754,1.073610343777754,0.0,0,False
2023-04-16,1.073610343777754,1.073610343777754,0.0,0,False
2023-04-17,1.073610343777754,1.073610343777754,0.0,0,False
2023-04-18,1.073610343777754,1.073610343777754,0.0,0,False
2023-04-19,1.073610343777754,1.0628993123435824,-0.9976647017466589,2,True
2023-04-20,1.0628993123435824,1.0628993123435824,0.0,0,False
2023-04-21,1.0628993123435824,1.0628993123435824,0.0,0,False
2023-04-22,1.0628993123435824,1.0628993123435824,0.0,0,False
2023-04-23,1.0628993123435824,1.0628993123435824,0.0,0,False
2023-04-24,1.0628993123435824,1.0628993123435824,0.0,0,False
2023-04-25,1.0628993123435824,1.0628993123435824,0.0,0,False
2023-04-26,1.0628993123435824,1.0628993123435824,0.0,0,False
2023-04-27,1.0628993123435824,1.0628993123435824,0.0,0,False
2023-04-28,1.0628993123435824,1.0628993123435824,0.0,0,False
2023-04-29,1.0628993123435824,1.0628993123435824,0.0,0,False
2023-04-30,1.0628993123435824,1.0628993123435824,0.0,0,False
2023-05-01,1.0628993123435824,1.0628993123435824,0.0,0,False
2023-05-02,1.0628993123435824,1.0628993123435824,0.0,0,False
2023-05-03,1.0628993123435824,1.0628993123435824,0.0,0,False
2023-05-04,1.0628993123435824,1.0628993123435824,0.0,0,False
2023-05-05,1.0628993123435824,1.0628993123435824,0.0,0,False
2023-05-06,1.0628993123435824,1.0628993123435824,0.0,0,False
2023-05-07,1.0628993123435824,1.0628993123435824,0.0,0,False
2023-05-08,1.0628993123435824,1.0612905023113073,-0.15136052997605232,5,True
2023-05-09,1.0612905023113073,1.059147123572858,-0.20195966455757164,2,True
2023-05-10,1.059147123572858,1.0607386328324944,0.15026328488412233,1,True
2023-05-11,1.0607386328324944,1.0623100983604254,0.1481482317406302,0,True
2023-05-12,1.0623100983604254,1.0623100983604254,0.0,0,False
2023-05-13,1.0623100983604254,1.0623100983604254,0.0,0,False
2023-05-14,1.0623100983604254,1.0623100983604254,0.0,0,False
2023-05-15,1.0623100983604254,1.0623100983604254,0.0,0,False
2023-05-16,1.0623100983604254,1.0623100983604254,0.0,0,False
2023-05-17,1.0623100983604254,1.0623100983604254,0.0,0,False
2023-05-18,1.0623100983604254,1.0623100983604254,0.0,0,False
2023-05-19,1.0623100983604254,1.0623100983604254,0.0,0,False
2023-05-20,1.0623100983604254,1.0623100983604254,0.0,0,False
2023-05-21,1.0623100983604254,1.0623100983604254,0.0,0,False
2023-05-22,1.0623100983604254,1.0623100983604254,0.0,0,False
2023-05-23,1.0623100983604254,1.0623100983604254,0.0,0,False
2023-05-24,1.0623100983604254,1.0623100983604254,0.0,0,False
2023-05-25,1.0623100983604254,1.0623100983604254,0.0,0,False
2023-05-26,1.0623100983604254,1.064413307823976,0.19798451194208422,1,True
2023-05-27,1.064413307823976,1.068065534074971,0.34312106248102214,0,True
2023-05-28,1.068065534074971,1.068065534074971,0.0,0,False
2023-05-29,1.068065534074971,1.068065534074971,0.0,0,False
2023-05-30,1.068065534074971,1.068065534074971,0.0,0,False
2023-05-31,1.068065534074971,1.068065534074971,0.0,0,False
2023-06-01,1.068065534074971,1.068065534074971,0.0,0,False
2023-06-02,1.068065534074971,1.0816593304399915,1.2727492772055315,1,True
2023-06-03,1.0816593304399915,1.0816593304399915,0.0,0,False
2023-06-04,1.0816593304399915,1.0816593304399915,0.0,0,False
2023-06-05,1.0816593304399915,1.0816593304399915,0.0,0,False
2023-06-06,1.0816593304399915,1.0740569341920845,-0.702845714353939,4,True
2023-06-07,1.0740569341920845,1.0740569341920845,0.0,0,False
2023-06-08,1.0740569341920845,1.073763671922445,-0.02730416426760529,1,True
2023-06-09,1.073763671922445,1.073763671922445,0.0,0,False
2023-06-10,1.073763671922445,1.0914470207169926,1.6468566833600873,5,True
2023-06-11,1.0914470207169926,1.090646453168517,-0.07334918995425266,0,True
2023-06-12,1.090646453168517,1.090646453168517,0.0,0,False
2023-06-13,1.090646453168517,1.090646453168517,0.0,0,False
2023-06-14,1.090646453168517,1.090646453168517,0.0,0,False
2023-06-15,1.090646453168517,1.090646453168517,0.0,0,False
2023-06-16,1.090646453168517,1.090646453168517,0.0,0,False
2023-06-17,1.090646453168517,1.090646453168517,0.0,0,False
2023-06-18,1.090646453168517,1.090646453168517,0.0,0,False
2023-06-19,1.090646453168517,1.0964194796755948,0.5293215313089128,1,True
2023-06-20,1.0964194796755948,1.0973250527479594,0.08259366867802154,0,True
2023-06-21,1.0973250527479594,1.0973250527479594,0.0,0,False
2023-06-22,1.0973250527479594,1.0918387803924383,-0.4999678392270557,1,True
2023-06-23,1.0918387803924383,1.0918387803924383,0.0,0,False
2023-06-24,1.0918387803924383,1.0918387803924383,0.0,0,False
2023-06-25,1.0918387803924383,1.0918387803924383,0.0,0,False
2023-06-26,1.0918387803924383,1.0918387803924383,0.0,0,False
2023-06-27,1.0918387803924383,1.0918387803924383,0.0,0,False
2023-06-28,1.0918387803924383,1.0918387803924383,0.0,0,False
2023-06-29,1.0918387803924383,1.0918387803924383,0.0,0,False
2023-06-30,1.0918387803924383,1.0700626019023143,-1.9944499940089178,4,True
2023-07-01,1.0700626019023143,1.064718790996385,-0.4993923623187402,1,True
2023-07-02,1.064718790996385,1.064718790996385,0.0,0,False
2023-07-03,1.064718790996385,1.064718790996385,0.0,0,False
2023-07-04,1.064718790996385,1.064718790996385,0.0,0,False
2023-07-05,1.064718790996385,1.064718790996385,0.0,0,False
2023-07-06,1.064718790996385,1.064718790996385,0.0,0,False
2023-07-07,1.064718790996385,1.064718790996385,0.0,0,False
2023-07-08,1.064718790996385,1.064718790996385,0.0,0,False
2023-07-09,1.064718790996385,1.064718790996385,0.0,0,False
2023-07-10,1.064718790996385,1.064718790996385,0.0,0,False
2023-07-11,1.064718790996385,1.064718790996385,0.0,0,False
2023-07-12,1.064718790996385,1.064718790996385,0.0,0,False
2023-07-13,1.064718790996385,1.064718790996385,0.0,0,False
2023-07-14,1.064718790996385,1.064718790996385,0.0,0,False
2023-07-15,1.064718790996385,1.064718790996385,0.0,0,False
2023-07-16,1.064718790996385,1.064718790996385,0.0,0,False
2023-07-17,1.064718790996385,1.064718790996385,0.0,0,False
2023-07-18,1.064718790996385,1.064718790996385,0.0,0,False
2023-07-19,1.064718790996385,1.064718790996385,0.0,0,False
2023-07-20,1.064718790996385,1.064718790996385,0.0,0,False
2023-07-21,1.064718790996385,1.064718790996385,0.0,0,False
2023-07-22,1.064718790996385,1.064718790996385,0.0,0,False
2023-07-23,1.064718790996385,1.064718790996385,0.0,0,False
2023-07-24,1.064718790996385,1.0646810999916088,-0.003539996203205664,1,True
2023-07-25,1.0646810999916088,1.0650509882132837,0.03474169135508909,0,True
2023-07-26,1.0650509882132837,1.0650509882132837,0.0,0,False
2023-07-27,1.0650509882132837,1.0650509882132837,0.0,0,False
2023-07-28,1.0650509882132837,1.0650509882132837,0.0,0,False
2023-07-29,1.0650509882132837,1.0650509882132837,0.0,0,False
2023-07-30,1.0650509882132837,1.0650509882132837,0.0,0,False
2023-07-31,1.0650509882132837,1.0650509882132837,0.0,0,False
2023-08-01,1.0650509882132837,1.0650509882132837,0.0,0,False
2023-08-02,1.0650509882132837,1.0650509882132837,0.0,0,False
2023-08-03,1.0650509882132837,1.0650509882132837,0.0,0,False
2023-08-04,1.0650509882132837,1.0650509882132837,0.0,0,False
2023-08-05,1.0650509882132837,1.0650509882132837,0.0,0,False
2023-08-06,1.0650509882132837,1.0650509882132837,0.0,0,False
2023-08-07,1.0650509882132837,1.0650509882132837,0.0,0,False
2023-08-08,1.0650509882132837,1.0650509882132837,0.0,0,False
2023-08-09,1.0650509882132837,1.0650509882132837,0.0,0,False
2023-08-10,1.0650509882132837,1.0650509882132837,0.0,0,False
2023-08-11,1.0650509882132837,1.0650509882132837,0.0,0,False
2023-08-12,1.0650509882132837,1.0650509882132837,0.0,0,False
2023-08-13,1.0650509882132837,1.0650509882132837,0.0,0,False
2023-08-14,1.0650509882132837,1.0650509882132837,0.0,0,False
2023-08-15,1.0650509882132837,1.0650509882132837,0.0,0,False
2023-08-16,1.0650509882132837,1.0737031082474515,0.812366743932369,4,True
2023-08-17,1.0737031082474515,1.0737031082474515,0.0,0,False
2023-08-18,1.0737031082474515,1.1216412722767541,4.464750419466479,4,True
2023-08-19,1.1216412722767541,1.1216412722767541,0.0,0,False
2023-08-20,1.1216412722767541,1.1216412722767541,0.0,0,False
2023-08-21,1.1216412722767541,1.1216412722767541,0.0,0,False
2023-08-22,1.1216412722767541,1.1216412722767541,0.0,0,False
2023-08-23,1.1216412722767541,1.1216412722767541,0.0,0,False
2023-08-24,1.1216412722767541,1.1216412722767541,0.0,0,False
2023-08-25,1.1216412722767541,1.1048962633534791,-1.492902350970493,3,True
2023-08-26,1.1048962633534791,1.1048962633534791,0.0,0,False
2023-08-27,1.1048962633534791,1.1048962633534791,0.0,0,False
2023-08-28,1.1048962633534791,1.1048962633534791,0.0,0,False
2023-08-29,1.1048962633534791,1.1048962633534791,0.0,0,False
2023-08-30,1.1048962633534791,1.1048962633534791,0.0,0,False
2023-08-31,1.1048962633534791,1.1048962633534791,0.0,0,False
2023-09-01,1.1048962633534791,1.1048962633534791,0.0,0,False
2023-09-02,1.1048962633534791,1.1070254726541957,0.19270671567430675,1,True
2023-09-03,1.1070254726541957,1.1076718256583502,0.05838646175004847,0,True
2023-09-04,1.1076718256583502,1.1076718256583502,0.0,0,False
2023-09-05,1.1076718256583502,1.1076718256583502,0.0,0,False
2023-09-06,1.1076718256583502,1.1076718256583502,0.0,0,False
2023-09-07,1.1076718256583502,1.1076718256583502,0.0,0,False
2023-09-08,1.1076718256583502,1.1076718256583502,0.0,0,False
2023-09-09,1.1076718256583502,1.1076718256583502,0.0,0,False
2023-09-10,1.1076718256583502,1.1061397404750157,-0.13831580327718918,2,True
2023-09-11,1.1061397404750157,1.1032141135270248,-0.26448981452692477,1,True
2023-09-12,1.1032141135270248,1.1032141135270248,0.0,0,False
2023-09-13,1.1032141135270248,1.1136058853398363,0.9419542122778513,1,True
2023-09-14,1.1136058853398363,1.1188784887871372,0.4734712268238406,0,True
2023-09-15,1.1188784887871372,1.1188784887871372,0.0,0,False
2023-09-16,1.1188784887871372,1.1188784887871372,0.0,0,False
2023-09-17,1.1188784887871372,1.1188784887871372,0.0,0,False
2023-09-18,1.1188784887871372,1.1132901764968972,-0.4994565849860799,1,True
2023-09-19,1.1132901764968972,1.1132901764968972,0.0,0,False
2023-09-20,1.1132901764968972,1.1160703386897892,0.24972484726668576,1,True
2023-09-21,1.1160703386897892,1.1194446570029586,0.3023392161044747,0,True
2023-09-22,1.1194446570029586,1.1194446570029586,0.0,0,False
2023-09-23,1.1194446570029586,1.1194446570029586,0.0,0,False
2023-09-24,1.1194446570029586,1.1194446570029586,0.0,0,False
2023-09-25,1.1194446570029586,1.1194446570029586,0.0,0,False
2023-09-26,1.1194446570029586,1.1205157662663237,0.09568219890678797,1,True
2023-09-27,1.1205157662663237,1.1190286867612413,-0.1327138403449224,0,True
2023-09-28,1.1190286867612413,1.1190286867612413,0.0,0,False
2023-09-29,1.1190286867612413,1.1190286867612413,0.0,0,False
2023-09-30,1.1190286867612413,1.1190286867612413,0.0,0,False
2023-10-01,1.1190286867612413,1.1190286867612413,0.0,0,False
2023-10-02,1.1190286867612413,1.1190286867612413,0.0,0,False
2023-10-03,1.1190286867612413,1.1194594951610115,0.03849842321890229,1,True
2023-10-04,1.1194594951610115,1.1134350908766102,-0.5381529488509784,0,True
2023-10-05,1.1134350908766102,1.1134350908766102,0.0,0,False
2023-10-06,1.1134350908766102,1.1134350908766102,0.0,0,False
2023-10-07,1.1134350908766102,1.1134350908766102,0.0,0,False
2023-10-08,1.1134350908766102,1.1134350908766102,0.0,0,False
2023-10-09,1.1134350908766102,1.1134350908766102,0.0,0,False
2023-10-10,1.1134350908766102,1.1134350908766102,0.0,0,False
2023-10-11,1.1134350908766102,1.1134350908766102,0.0,0,False
2023-10-12,1.1134350908766102,1.1134350908766102,0.0,0,False
2023-10-13,1.1134350908766102,1.1134350908766102,0.0,0,False
2023-10-14,1.1134350908766102,1.1134350908766102,0.0,0,False
2023-10-15,1.1134350908766102,1.1134866155955554,0.004627545814517298,1,True
2023-10-16,1.1134866155955554,1.1144058604447546,0.08255553648550684,1,True
2023-10-17,1.1144058604447546,1.1083054348928991,-0.5474150637920117,1,True
2023-10-18,1.1083054348928991,1.1083054348928991,0.0,0,False
2023-10-19,1.1083054348928991,1.0972623240043988,-0.9963959880398332,2,True
2023-10-20,1.0972623240043988,1.0972623240043988,0.0,0,False
2023-10-21,1.0972623240043988,1.0983474671918914,0.09889551147006514,1,True
2023-10-22,1.0983474671918914,1.0983474671918914,0.0,0,False
2023-10-23,1.0983474671918914,1.0983474671918914,0.0,0,False
2023-10-24,1.0983474671918914,1.0983474671918914,0.0,0,False
2023-10-25,1.0983474671918914,1.0983474671918914,0.0,0,False
2023-10-26,1.0983474671918914,1.106216574907393,0.7164497529748237,2,True
2023-10-27,1.106216574907393,1.107294178437988,0.09741343196609797,1,True
2023-10-28,1.107294178437988,1.108731387941463,0.1297947312883574,0,True
2023-10-29,1.108731387941463,1.108731387941463,0.0,0,False
2023-10-30,1.108731387941463,1.108731387941463,0.0,0,False
2023-10-31,1.108731387941463,1.108731387941463,0.0,0,False
2023-11-01,1.108731387941463,1.108731387941463,0.0,0,False
2023-11-02,1.108731387941463,1.108731387941463,0.0,0,False
2023-11-03,1.108731387941463,1.108731387941463,0.0,0,False
2023-11-04,1.108731387941463,1.108731387941463,0.0,0,False
2023-11-05,1.108731387941463,1.108731387941463,0.0,0,False
2023-11-06,1.108731387941463,1.108731387941463,0.0,0,False
2023-11-07,1.108731387941463,1.1031923099674792,-0.4995870085601206,1,True
2023-11-08,1.1031923099674792,1.1031923099674792,0.0,0,False
2023-11-09,1.1031923099674792,1.1067815007685087,0.3253458865331682,3,True
2023-11-10,1.1067815007685087,1.1214508093217084,1.3254023981259078,4,True
2023-11-11,1.1214508093217084,1.1214508093217084,0.0,0,False
2023-11-12,1.1214508093217084,1.1214508093217084,0.0,0,False
2023-11-13,1.1214508093217084,1.1214508093217084,0.0,0,False
2023-11-14,1.1214508093217084,1.1214508093217084,0.0,0,False
2023-11-15,1.1214508093217084,1.1214508093217084,0.0,0,False
2023-11-16,1.1214508093217084,1.1214508093217084,0.0,0,False
2023-11-17,1.1214508093217084,1.1214508093217084,0.0,0,False
2023-11-18,1.1214508093217084,1.1214508093217084,0.0,0,False
2023-11-19,1.1214508093217084,1.1214508093217084,0.0,0,False
2023-11-20,1.1214508093217084,1.12339286693161,0.17317367768241443,1,True
2023-11-21,1.12339286693161,1.1193982936621918,-0.3555811494805772,0,True
2023-11-22,1.1193982936621918,1.1177310448298245,-0.1489415199046551,1,True
2023-11-23,1.1177310448298245,1.1177310448298245,0.0,0,False
2023-11-24,1.1177310448298245,1.1177310448298245,0.0,0,False
2023-11-25,1.1177310448298245,1.1154050298025335,-0.20810149615601015,1,True
2023-11-26,1.1154050298025335,1.1154050298025335,0.0,0,False
2023-11-27,1.1154050298025335,1.1098351538830848,-0.4993590463219233,1,True
2023-11-28,1.1098351538830848,1.1098351538830848,0.0,0,False
2023-11-29,1.1098351538830848,1.1042917461918669,-0.4994802761313477,1,True
2023-11-30,1.1042917461918669,1.1042917461918669,0.0,0,False
2023-12-01,1.1042917461918669,1.1042917461918669,0.0,0,False
2023-12-02,1.1042917461918669,1.1042917461918669,0.0,0,False
2023-12-03,1.1042917461918669,1.1051912723860398,0.08145729579840388,1,True
2023-12-04,1.1051912723860398,1.115630066635091,0.9445237679550633,4,True
2023-12-05,1.115630066635091,1.1217869467000314,0.5518746983496525,0,True
2023-12-06,1.1217869467000314,1.1217869467000314,0.0,0,False
2023-12-07,1.1217869467000314,1.1161839062527992,-0.49947456276923097,1,True
2023-12-08,1.1161839062527992,1.1161839062527992,0.0,0,False
2023-12-09,1.1161839062527992,1.1161839062527992,0.0,0,False
2023-12-10,1.1161839062527992,1.1161839062527992,0.0,0,False
2023-12-11,1.1161839062527992,1.1314904642874075,1.3713293973208085,4,True
2023-12-12,1.1314904642874075,1.1314904642874075,0.0,0,False
2023-12-13,1.1314904642874075,1.1308216353183802,-0.05911043796984483,1,True
2023-12-14,1.1308216353183802,1.1308216353183802,0.0,0,False
2023-12-15,1.1308216353183802,1.1308216353183802,0.0,0,False
2023-12-16,1.1308216353183802,1.1308216353183802,0.0,0,False
2023-12-17,1.1308216353183802,1.1308216353183802,0.0,0,False
2023-12-18,1.1308216353183802,1.134919074463956,0.362341771469743,1,True
2023-12-19,1.134919074463956,1.1320610282630108,-0.2518281933269084,0,True
2023-12-20,1.1320610282630108,1.1320610282630108,0.0,0,False
2023-12-21,1.1320610282630108,1.1320610282630108,0.0,0,False
2023-12-22,1.1320610282630108,1.1320610282630108,0.0,0,False
2023-12-23,1.1320610282630108,1.1320610282630108,0.0,0,False
2023-12-24,1.1320610282630108,1.130453392135002,-0.14200966978569207,1,True
2023-12-25,1.130453392135002,1.13401133893092,0.31473626605680316,0,True
2023-12-26,1.13401133893092,1.13401133893092,0.0,0,False
2023-12-27,1.13401133893092,1.1257070198792727,-0.732295945071959,2,True
2023-12-28,1.1257070198792727,1.1257070198792727,0.0,0,False
2023-12-29,1.1257070198792727,1.1257070198792727,0.0,0,False
2023-12-30,1.1257070198792727,1.1257070198792727,0.0,0,False
2023-12-31,1.1257070198792727,1.1257070198792727,0.0,0,False
