day,start_equity,end_equity,return_pct,entries,active
2024-01-02,1.0,0.9984427074127776,-0.15572925872223697,1,True
2024-01-03,0.9984427074127776,0.9927288063571331,-0.5722813150141337,9,True
2024-01-04,0.9927288063571331,1.0102508444279406,1.7650377382626203,7,True
2024-01-05,1.0102508444279406,0.9952367440708074,-1.4861754820541528,4,True
2024-01-06,0.9952367440708074,0.9884793868119774,-0.6789698329656146,7,True
2024-01-07,0.9884793868119774,0.9797216264822619,-0.8859831015759378,3,True
2024-01-08,0.9797216264822619,0.9589409933090091,-2.1210752739905026,5,True
2024-01-09,0.9589409933090091,0.9589409933090091,0.0,0,False
2024-01-10,0.9589409933090091,0.9572565945175358,-0.17565197475404304,4,True
2024-01-11,0.9572565945175358,0.9581096995980632,0.0891197914345554,3,True
2024-01-12,0.9581096995980632,0.950144138157563,-0.8313830288788293,7,True
2024-01-13,0.950144138157563,0.9423534970840234,-0.8199430760733373,9,True
2024-01-14,0.9423534970840234,0.9486248277453804,0.6654966189187705,0,True
2024-01-15,0.9486248277453804,0.9438709396586618,-0.5011346896767743,2,True
2024-01-16,0.9438709396586618,0.943325305881978,-0.057808091525846095,1,True
2024-01-17,0.943325305881978,0.9460290094210171,0.28661412157402477,0,True
2024-01-18,0.9460290094210171,0.9437100137307217,-0.24512944816720283,1,True
2024-01-19,0.9437100137307217,0.9402169919706429,-0.3701371935505904,1,True
2024-01-20,0.9402169919706429,0.9628592855158435,2.4081987178027564,7,True
2024-01-21,0.9628592855158435,0.9619489131370138,-0.09454884971504818,1,True
2024-01-22,0.9619489131370138,0.94532804701157,-1.727832517762451,4,True
2024-01-23,0.94532804701157,0.9247225582954625,-2.1797183296578315,9,True
2024-01-24,0.9247225582954625,0.9221421886914372,-0.2790425712963729,1,True
2024-01-25,0.9221421886914372,0.9170080279120647,-0.5567645469792493,2,True
2024-01-26,0.9170080279120647,0.9170080279120647,0.0,0,False
2024-01-27,0.9170080279120647,0.9170080279120647,0.0,0,False
2024-01-28,0.9170080279120647,0.915658055463522,-0.14721489970120905,2,True
2024-01-29,0.915658055463522,0.915658055463522,0.0,0,False
2024-01-30,0.915658055463522,0.915658055463522,0.0,0,False
2024-01-31,0.915658055463522,0.9135904393964853,-0.2258065720821989,1,True
2024-02-01,0.9135904393964853,0.9135904393964853,0.0,0,False
2024-02-02,0.9135904393964853,0.9133072992713565,-0.030992019281195216,2,True
2024-02-03,0.9133072992713565,0.9177051679385864,0.4815321930240257,1,True
2024-02-04,0.9177051679385864,0.916520384147221,-0.12910287887194505,1,True
2024-02-05,0.916520384147221,0.916520384147221,0.0,0,False
2024-02-06,0.916520384147221,0.9134076140755625,-0.33962911523837125,2,True
2024-02-07,0.9134076140755625,0.9118657056424465,-0.16880836215455997,4,True
2024-02-08,0.9118657056424465,0.9201365771857722,0.9070273717003641,1,True
2024-02-09,0.9201365771857722,0.926333996041818,0.6735324961214539,0,True
2024-02-10,0.926333996041818,0.9235480729563843,-0.3007471492288749,2,True
2024-02-11,0.9235480729563843,0.9229755625046403,-0.06199032497694601,0,True
2024-02-12,0.9229755625046403,0.923344893201842,0.040015219492861576,1,True
2024-02-13,0.923344893201842,0.923344893201842,0.0,0,False
2024-02-14,0.923344893201842,0.9240208002810757,0.07320201630074408,2,True
2024-02-15,0.9240208002810757,0.9308271575670889,0.7366021721527005,1,True
2024-02-16,0.9308271575670889,0.9304288794782744,-0.042787544989075776,3,True
2024-02-17,0.9304288794782744,0.9289072085189164,-0.1635451126808518,5,True
2024-02-18,0.9289072085189164,0.9322670733562928,0.3617008035424307,1,True
2024-02-19,0.9322670733562928,0.9323151998059908,0.005162302850059142,2,True
2024-02-20,0.9323151998059908,0.9309377082155662,-0.14774955838017245,10,True
2024-02-21,0.9309377082155662,0.9246541609741807,-0.6749696769110192,7,True
2024-02-22,0.9246541609741807,0.9363433897441765,1.2641730566248066,4,True
2024-02-23,0.9363433897441765,0.9336926521357674,-0.2830946036937787,3,True
2024-02-24,0.9336926521357674,0.9285802951081819,-0.5475417436231589,8,True
2024-02-25,0.9285802951081819,0.9202939926277465,-0.8923625155614623,4,True
2024-02-26,0.9202939926277465,0.9163391052077076,-0.4297417403265169,5,True
2024-02-27,0.9163391052077076,0.916133121611449,-0.02247897040384972,3,True
2024-02-28,0.916133121611449,0.9317284797610863,1.7023026219383564,5,True
2024-02-29,0.9317284797610863,0.9364019834406699,0.5015950227025279,8,True
2024-03-01,0.9364019834406699,0.9354326780790178,-0.10351380911118868,6,True
2024-03-02,0.9354326780790178,0.9339832546066944,-0.1549468504029483,5,True
2024-03-03,0.9339832546066944,0.9368484662294593,0.3067733397395189,10,True
2024-03-04,0.9368484662294593,0.9408210411929357,0.42403602147793595,1,True
2024-03-05,0.9408210411929357,0.9535671859504852,1.3547895082562933,12,True
2024-03-06,0.9535671859504852,0.9323062013475024,-2.2296262828916946,9,True
2024-03-07,0.9323062013475024,0.932881132994684,0.06166768453867988,5,True
2024-03-08,0.932881132994684,0.9313265362668465,-0.16664467453072485,5,True
2024-03-09,0.9313265362668465,0.9252273092063997,-0.6548967330937461,5,True
2024-03-10,0.9252273092063997,0.9297961564694582,0.49380808560195444,9,True
2024-03-11,0.9297961564694582,0.9341570174594012,0.4690125851349647,3,True
2024-03-12,0.9341570174594012,0.9337569190506314,-0.04282988847612579,4,True
2024-03-13,0.9337569190506314,0.9398171508222704,0.6490159963473685,5,True
2024-03-14,0.9398171508222704,0.9400628551765603,0.026143846606219157,5,True
2024-03-15,0.9400628551765603,0.920875831392837,-2.0410362645505886,16,True
2024-03-16,0.920875831392837,0.9197785551785156,-0.1191557186012604,3,True
2024-03-17,0.9197785551785156,0.9141791438288684,-0.608778201896687,8,True
2024-03-18,0.9141791438288684,0.9149757506987802,0.08713903344756968,4,True
2024-03-19,0.9149757506987802,0.8956544081120865,-2.1116781042489596,10,True
2024-03-20,0.8956544081120865,0.8894522778676647,-0.6924691251724013,4,True
2024-03-21,0.8894522778676647,0.8871066227862586,-0.2637190482022711,4,True
2024-03-22,0.8871066227862586,0.8859551802644458,-0.12979753416746398,9,True
2024-03-23,0.8859551802644458,0.8876298409625412,0.1890231848518109,7,True
2024-03-24,0.8876298409625412,0.884655796871085,-0.33505454122984,4,True
2024-03-25,0.884655796871085,0.8885767804100451,0.44322136957990477,4,True
2024-03-26,0.8885767804100451,0.8997356253458795,1.2558109981992693,5,True
2024-03-27,0.8997356253458795,0.8972035591457346,-0.2814233569079283,7,True
2024-03-28,0.8972035591457346,0.892507450193512,-0.5234162196919967,2,True
2024-03-29,0.892507450193512,0.8900161860253147,-0.2791309100733108,6,True
2024-03-30,0.8900161860253147,0.8856304988496116,-0.49276487827586424,2,True
2024-03-31,0.8856304988496116,0.8856304988496116,0.0,0,False
2024-04-01,0.8856304988496116,0.8858544227938189,0.025284127466029815,5,True
2024-04-02,0.8858544227938189,0.8833850191908678,-0.2787595274585941,6,True
2024-04-03,0.8833850191908678,0.8796682008767972,-0.4207472657250855,3,True
2024-04-04,0.8796682008767972,0.8793336350774191,-0.0380331810385548,1,True
2024-04-05,0.8793336350774191,0.8755556273562584,-0.42964440008349536,5,True
2024-04-06,0.8755556273562584,0.874634614761157,-0.1051917852304074,1,True
2024-04-07,0.874634614761157,0.8803325992615091,0.6514702716068577,3,True
2024-04-08,0.8803325992615091,0.8772332074243623,-0.3520705514877931,1,True
2024-04-09,0.8772332074243623,0.8718368864517486,-0.6151523821650295,3,True
2024-04-10,0.8718368864517486,0.8692764966861471,-0.2936776139424335,5,True
2024-04-11,0.8692764966861471,0.8702008953200475,0.10634115122454268,1,True
2024-04-12,0.8702008953200475,0.865567966656433,-0.5323975979030227,8,True
2024-04-13,0.865567966656433,0.865567966656433,0.0,0,False
2024-04-14,0.865567966656433,0.865567966656433,0.0,0,False
2024-04-15,0.865567966656433,0.865567966656433,0.0,0,False
2024-04-16,0.865567966656433,0.865567966656433,0.0,0,False
2024-04-17,0.865567966656433,0.865567966656433,0.0,0,False
2024-04-18,0.865567966656433,0.865567966656433,0.0,0,False
2024-04-19,0.865567966656433,0.865567966656433,0.0,0,False
2024-04-20,0.865567966656433,0.865567966656433,0.0,0,False
2024-04-21,0.865567966656433,0.865567966656433,0.0,0,False
2024-04-22,0.865567966656433,0.865567966656433,0.0,0,False
2024-04-23,0.865567966656433,0.865567966656433,0.0,0,False
2024-04-24,0.865567966656433,0.865567966656433,0.0,0,False
2024-04-25,0.865567966656433,0.865567966656433,0.0,0,False
2024-04-26,0.865567966656433,0.865567966656433,0.0,0,False
2024-04-27,0.865567966656433,0.865567966656433,0.0,0,False
2024-04-28,0.865567966656433,0.865567966656433,0.0,0,False
2024-04-29,0.865567966656433,0.865567966656433,0.0,0,False
2024-04-30,0.865567966656433,0.865567966656433,0.0,0,False
2024-05-01,0.865567966656433,0.865567966656433,0.0,0,False
2024-05-02,0.865567966656433,0.865567966656433,0.0,0,False
2024-05-03,0.865567966656433,0.865567966656433,0.0,0,False
2024-05-04,0.865567966656433,0.865567966656433,0.0,0,False
2024-05-05,0.865567966656433,0.865567966656433,0.0,0,False
2024-05-06,0.865567966656433,0.865567966656433,0.0,0,False
2024-05-07,0.865567966656433,0.865567966656433,0.0,0,False
2024-05-08,0.865567966656433,0.865567966656433,0.0,0,False
2024-05-09,0.865567966656433,0.865567966656433,0.0,0,False
2024-05-10,0.865567966656433,0.865567966656433,0.0,0,False
2024-05-11,0.865567966656433,0.865567966656433,0.0,0,False
2024-05-12,0.865567966656433,0.865567966656433,0.0,0,False
2024-05-13,0.865567966656433,0.865567966656433,0.0,0,False
2024-05-14,0.865567966656433,0.865567966656433,0.0,0,False
2024-05-15,0.865567966656433,0.865567966656433,0.0,0,False
2024-05-16,0.865567966656433,0.865567966656433,0.0,0,False
2024-05-17,0.865567966656433,0.865567966656433,0.0,0,False
2024-05-18,0.865567966656433,0.865567966656433,0.0,0,False
2024-05-19,0.865567966656433,0.865567966656433,0.0,0,False
2024-05-20,0.865567966656433,0.865567966656433,0.0,0,False
2024-05-21,0.865567966656433,0.865567966656433,0.0,0,False
2024-05-22,0.865567966656433,0.865567966656433,0.0,0,False
2024-05-23,0.865567966656433,0.865567966656433,0.0,0,False
2024-05-24,0.865567966656433,0.865567966656433,0.0,0,False
2024-05-25,0.865567966656433,0.865567966656433,0.0,0,False
2024-05-26,0.865567966656433,0.865567966656433,0.0,0,False
2024-05-27,0.865567966656433,0.865567966656433,0.0,0,False
2024-05-28,0.865567966656433,0.865567966656433,0.0,0,False
2024-05-29,0.865567966656433,0.865567966656433,0.0,0,False
2024-05-30,0.865567966656433,0.865567966656433,0.0,0,False
2024-05-31,0.865567966656433,0.865567966656433,0.0,0,False
2024-06-01,0.865567966656433,0.865567966656433,0.0,0,False
2024-06-02,0.865567966656433,0.865567966656433,0.0,0,False
2024-06-03,0.865567966656433,0.865567966656433,0.0,0,False
2024-06-04,0.865567966656433,0.865567966656433,0.0,0,False
2024-06-05,0.865567966656433,0.865567966656433,0.0,0,False
2024-06-06,0.865567966656433,0.865567966656433,0.0,0,False
2024-06-07,0.865567966656433,0.865567966656433,0.0,0,False
2024-06-08,0.865567966656433,0.865567966656433,0.0,0,False
2024-06-09,0.865567966656433,0.865567966656433,0.0,0,False
2024-06-10,0.865567966656433,0.865567966656433,0.0,0,False
2024-06-11,0.865567966656433,0.865567966656433,0.0,0,False
2024-06-12,0.865567966656433,0.865567966656433,0.0,0,False
2024-06-13,0.865567966656433,0.865567966656433,0.0,0,False
2024-06-14,0.865567966656433,0.865567966656433,0.0,0,False
2024-06-15,0.865567966656433,0.865567966656433,0.0,0,False
2024-06-16,0.865567966656433,0.865567966656433,0.0,0,False
2024-06-17,0.865567966656433,0.865567966656433,0.0,0,False
2024-06-18,0.865567966656433,0.865567966656433,0.0,0,False
2024-06-19,0.865567966656433,0.865567966656433,0.0,0,False
2024-06-20,0.865567966656433,0.865567966656433,0.0,0,False
2024-06-21,0.865567966656433,0.865567966656433,0.0,0,False
2024-06-22,0.865567966656433,0.865567966656433,0.0,0,False
2024-06-23,0.865567966656433,0.865567966656433,0.0,0,False
2024-06-24,0.865567966656433,0.865567966656433,0.0,0,False
2024-06-25,0.865567966656433,0.865567966656433,0.0,0,False
2024-06-26,0.865567966656433,0.865567966656433,0.0,0,False
2024-06-27,0.865567966656433,0.865567966656433,0.0,0,False
2024-06-28,0.865567966656433,0.865567966656433,0.0,0,False
2024-06-29,0.865567966656433,0.865567966656433,0.0,0,False
2024-06-30,0.865567966656433,0.865567966656433,0.0,0,False
2024-07-01,0.865567966656433,0.865567966656433,0.0,0,False
2024-07-02,0.865567966656433,0.865567966656433,0.0,0,False
2024-07-03,0.865567966656433,0.865567966656433,0.0,0,False
2024-07-04,0.865567966656433,0.865567966656433,0.0,0,False
2024-07-05,0.865567966656433,0.865567966656433,0.0,0,False
2024-07-06,0.865567966656433,0.865567966656433,0.0,0,False
2024-07-07,0.865567966656433,0.865567966656433,0.0,0,False
2024-07-08,0.865567966656433,0.865567966656433,0.0,0,False
2024-07-09,0.865567966656433,0.865567966656433,0.0,0,False
2024-07-10,0.865567966656433,0.865567966656433,0.0,0,False
2024-07-11,0.865567966656433,0.865567966656433,0.0,0,False
2024-07-12,0.865567966656433,0.865567966656433,0.0,0,False
2024-07-13,0.865567966656433,0.865567966656433,0.0,0,False
2024-07-14,0.865567966656433,0.865567966656433,0.0,0,False
2024-07-15,0.865567966656433,0.865567966656433,0.0,0,False
2024-07-16,0.865567966656433,0.865567966656433,0.0,0,False
2024-07-17,0.865567966656433,0.865567966656433,0.0,0,False
2024-07-18,0.865567966656433,0.865567966656433,0.0,0,False
2024-07-19,0.865567966656433,0.865567966656433,0.0,0,False
2024-07-20,0.865567966656433,0.865567966656433,0.0,0,False
2024-07-21,0.865567966656433,0.865567966656433,0.0,0,False
2024-07-22,0.865567966656433,0.865567966656433,0.0,0,False
2024-07-23,0.865567966656433,0.865567966656433,0.0,0,False
2024-07-24,0.865567966656433,0.865567966656433,0.0,0,False
2024-07-25,0.865567966656433,0.865567966656433,0.0,0,False
2024-07-26,0.865567966656433,0.865567966656433,0.0,0,False
2024-07-27,0.865567966656433,0.865567966656433,0.0,0,False
2024-07-28,0.865567966656433,0.865567966656433,0.0,0,False
2024-07-29,0.865567966656433,0.865567966656433,0.0,0,False
2024-07-30,0.865567966656433,0.865567966656433,0.0,0,False
2024-07-31,0.865567966656433,0.865567966656433,0.0,0,False
2024-08-01,0.865567966656433,0.865567966656433,0.0,0,False
2024-08-02,0.865567966656433,0.865567966656433,0.0,0,False
2024-08-03,0.865567966656433,0.865567966656433,0.0,0,False
2024-08-04,0.865567966656433,0.865567966656433,0.0,0,False
2024-08-05,0.865567966656433,0.865567966656433,0.0,0,False
2024-08-06,0.865567966656433,0.865567966656433,0.0,0,False
2024-08-07,0.865567966656433,0.865567966656433,0.0,0,False
2024-08-08,0.865567966656433,0.865567966656433,0.0,0,False
2024-08-09,0.865567966656433,0.865567966656433,0.0,0,False
2024-08-10,0.865567966656433,0.865567966656433,0.0,0,False
2024-08-11,0.865567966656433,0.865567966656433,0.0,0,False
2024-08-12,0.865567966656433,0.865567966656433,0.0,0,False
2024-08-13,0.865567966656433,0.865567966656433,0.0,0,False
2024-08-14,0.865567966656433,0.865567966656433,0.0,0,False
2024-08-15,0.865567966656433,0.865567966656433,0.0,0,False
2024-08-16,0.865567966656433,0.865567966656433,0.0,0,False
2024-08-17,0.865567966656433,0.865567966656433,0.0,0,False
2024-08-18,0.865567966656433,0.865567966656433,0.0,0,False
2024-08-19,0.865567966656433,0.865567966656433,0.0,0,False
2024-08-20,0.865567966656433,0.865567966656433,0.0,0,False
2024-08-21,0.865567966656433,0.865567966656433,0.0,0,False
2024-08-22,0.865567966656433,0.865567966656433,0.0,0,False
2024-08-23,0.865567966656433,0.865567966656433,0.0,0,False
2024-08-24,0.865567966656433,0.865567966656433,0.0,0,False
2024-08-25,0.865567966656433,0.865567966656433,0.0,0,False
2024-08-26,0.865567966656433,0.865567966656433,0.0,0,False
2024-08-27,0.865567966656433,0.865567966656433,0.0,0,False
2024-08-28,0.865567966656433,0.865567966656433,0.0,0,False
2024-08-29,0.865567966656433,0.865567966656433,0.0,0,False
2024-08-30,0.865567966656433,0.865567966656433,0.0,0,False
2024-08-31,0.865567966656433,0.865567966656433,0.0,0,False
2024-09-01,0.865567966656433,0.865567966656433,0.0,0,False
2024-09-02,0.865567966656433,0.865567966656433,0.0,0,False
2024-09-03,0.865567966656433,0.865567966656433,0.0,0,False
2024-09-04,0.865567966656433,0.865567966656433,0.0,0,False
2024-09-05,0.865567966656433,0.865567966656433,0.0,0,False
2024-09-06,0.865567966656433,0.865567966656433,0.0,0,False
2024-09-07,0.865567966656433,0.865567966656433,0.0,0,False
2024-09-08,0.865567966656433,0.865567966656433,0.0,0,False
2024-09-09,0.865567966656433,0.865567966656433,0.0,0,False
2024-09-10,0.865567966656433,0.865567966656433,0.0,0,False
2024-09-11,0.865567966656433,0.865567966656433,0.0,0,False
2024-09-12,0.865567966656433,0.865567966656433,0.0,0,False
2024-09-13,0.865567966656433,0.865567966656433,0.0,0,False
2024-09-14,0.865567966656433,0.865567966656433,0.0,0,False
2024-09-15,0.865567966656433,0.865567966656433,0.0,0,False
2024-09-16,0.865567966656433,0.865567966656433,0.0,0,False
2024-09-17,0.865567966656433,0.865567966656433,0.0,0,False
2024-09-18,0.865567966656433,0.865567966656433,0.0,0,False
2024-09-19,0.865567966656433,0.865567966656433,0.0,0,False
2024-09-20,0.865567966656433,0.865567966656433,0.0,0,False
2024-09-21,0.865567966656433,0.865567966656433,0.0,0,False
2024-09-22,0.865567966656433,0.865567966656433,0.0,0,False
2024-09-23,0.865567966656433,0.865567966656433,0.0,0,False
2024-09-24,0.865567966656433,0.865567966656433,0.0,0,False
2024-09-25,0.865567966656433,0.865567966656433,0.0,0,False
2024-09-26,0.865567966656433,0.865567966656433,0.0,0,False
2024-09-27,0.865567966656433,0.865567966656433,0.0,0,False
2024-09-28,0.865567966656433,0.865567966656433,0.0,0,False
2024-09-29,0.865567966656433,0.865567966656433,0.0,0,False
2024-09-30,0.865567966656433,0.865567966656433,0.0,0,False
2024-10-01,0.865567966656433,0.865567966656433,0.0,0,False
2024-10-02,0.865567966656433,0.865567966656433,0.0,0,False
2024-10-03,0.865567966656433,0.865567966656433,0.0,0,False
2024-10-04,0.865567966656433,0.865567966656433,0.0,0,False
2024-10-05,0.865567966656433,0.865567966656433,0.0,0,False
2024-10-06,0.865567966656433,0.865567966656433,0.0,0,False
2024-10-07,0.865567966656433,0.865567966656433,0.0,0,False
2024-10-08,0.865567966656433,0.865567966656433,0.0,0,False
2024-10-09,0.865567966656433,0.865567966656433,0.0,0,False
2024-10-10,0.865567966656433,0.865567966656433,0.0,0,False
2024-10-11,0.865567966656433,0.865567966656433,0.0,0,False
2024-10-12,0.865567966656433,0.865567966656433,0.0,0,False
2024-10-13,0.865567966656433,0.865567966656433,0.0,0,False
2024-10-14,0.865567966656433,0.865567966656433,0.0,0,False
2024-10-15,0.865567966656433,0.865567966656433,0.0,0,False
2024-10-16,0.865567966656433,0.865567966656433,0.0,0,False
2024-10-17,0.865567966656433,0.865567966656433,0.0,0,False
2024-10-18,0.865567966656433,0.865567966656433,0.0,0,False
2024-10-19,0.865567966656433,0.865567966656433,0.0,0,False
2024-10-20,0.865567966656433,0.865567966656433,0.0,0,False
2024-10-21,0.865567966656433,0.865567966656433,0.0,0,False
2024-10-22,0.865567966656433,0.865567966656433,0.0,0,False
2024-10-23,0.865567966656433,0.865567966656433,0.0,0,False
2024-10-24,0.865567966656433,0.865567966656433,0.0,0,False
2024-10-25,0.865567966656433,0.865567966656433,0.0,0,False
2024-10-26,0.865567966656433,0.865567966656433,0.0,0,False
2024-10-27,0.865567966656433,0.865567966656433,0.0,0,False
2024-10-28,0.865567966656433,0.865567966656433,0.0,0,False
2024-10-29,0.865567966656433,0.865567966656433,0.0,0,False
2024-10-30,0.865567966656433,0.865567966656433,0.0,0,False
2024-10-31,0.865567966656433,0.865567966656433,0.0,0,False
2024-11-01,0.865567966656433,0.865567966656433,0.0,0,False
2024-11-02,0.865567966656433,0.865567966656433,0.0,0,False
2024-11-03,0.865567966656433,0.865567966656433,0.0,0,False
2024-11-04,0.865567966656433,0.865567966656433,0.0,0,False
2024-11-05,0.865567966656433,0.865567966656433,0.0,0,False
2024-11-06,0.865567966656433,0.865567966656433,0.0,0,False
2024-11-07,0.865567966656433,0.865567966656433,0.0,0,False
2024-11-08,0.865567966656433,0.865567966656433,0.0,0,False
2024-11-09,0.865567966656433,0.865567966656433,0.0,0,False
2024-11-10,0.865567966656433,0.865567966656433,0.0,0,False
2024-11-11,0.865567966656433,0.865567966656433,0.0,0,False
2024-11-12,0.865567966656433,0.865567966656433,0.0,0,False
2024-11-13,0.865567966656433,0.865567966656433,0.0,0,False
2024-11-14,0.865567966656433,0.865567966656433,0.0,0,False
2024-11-15,0.865567966656433,0.865567966656433,0.0,0,False
2024-11-16,0.865567966656433,0.865567966656433,0.0,0,False
2024-11-17,0.865567966656433,0.865567966656433,0.0,0,False
2024-11-18,0.865567966656433,0.865567966656433,0.0,0,False
2024-11-19,0.865567966656433,0.865567966656433,0.0,0,False
2024-11-20,0.865567966656433,0.865567966656433,0.0,0,False
2024-11-21,0.865567966656433,0.865567966656433,0.0,0,False
2024-11-22,0.865567966656433,0.865567966656433,0.0,0,False
2024-11-23,0.865567966656433,0.865567966656433,0.0,0,False
2024-11-24,0.865567966656433,0.865567966656433,0.0,0,False
2024-11-25,0.865567966656433,0.865567966656433,0.0,0,False
2024-11-26,0.865567966656433,0.865567966656433,0.0,0,False
2024-11-27,0.865567966656433,0.865567966656433,0.0,0,False
2024-11-28,0.865567966656433,0.865567966656433,0.0,0,False
2024-11-29,0.865567966656433,0.865567966656433,0.0,0,False
2024-11-30,0.865567966656433,0.865567966656433,0.0,0,False
2024-12-01,0.865567966656433,0.865567966656433,0.0,0,False
2024-12-02,0.865567966656433,0.865567966656433,0.0,0,False
2024-12-03,0.865567966656433,0.865567966656433,0.0,0,False
2024-12-04,0.865567966656433,0.865567966656433,0.0,0,False
2024-12-05,0.865567966656433,0.865567966656433,0.0,0,False
2024-12-06,0.865567966656433,0.865567966656433,0.0,0,False
2024-12-07,0.865567966656433,0.865567966656433,0.0,0,False
2024-12-08,0.865567966656433,0.865567966656433,0.0,0,False
2024-12-09,0.865567966656433,0.865567966656433,0.0,0,False
2024-12-10,0.865567966656433,0.865567966656433,0.0,0,False
2024-12-11,0.865567966656433,0.865567966656433,0.0,0,False
2024-12-12,0.865567966656433,0.865567966656433,0.0,0,False
2024-12-13,0.865567966656433,0.865567966656433,0.0,0,False
2024-12-14,0.865567966656433,0.865567966656433,0.0,0,False
2024-12-15,0.865567966656433,0.865567966656433,0.0,0,False
2024-12-16,0.865567966656433,0.865567966656433,0.0,0,False
2024-12-17,0.865567966656433,0.865567966656433,0.0,0,False
2024-12-18,0.865567966656433,0.865567966656433,0.0,0,False
2024-12-19,0.865567966656433,0.865567966656433,0.0,0,False
2024-12-20,0.865567966656433,0.865567966656433,0.0,0,False
2024-12-21,0.865567966656433,0.865567966656433,0.0,0,False
2024-12-22,0.865567966656433,0.865567966656433,0.0,0,False
2024-12-23,0.865567966656433,0.865567966656433,0.0,0,False
2024-12-24,0.865567966656433,0.865567966656433,0.0,0,False
2024-12-25,0.865567966656433,0.865567966656433,0.0,0,False
2024-12-26,0.865567966656433,0.865567966656433,0.0,0,False
2024-12-27,0.865567966656433,0.865567966656433,0.0,0,False
2024-12-28,0.865567966656433,0.865567966656433,0.0,0,False
2024-12-29,0.865567966656433,0.865567966656433,0.0,0,False
2024-12-30,0.865567966656433,0.865567966656433,0.0,0,False
2024-12-31,0.865567966656433,0.865567966656433,0.0,0,False
