day,start_equity,end_equity,return_pct,entries,active
2024-01-02,1.01329894281636,1.0071475260243288,-0.607068312430481,1,True
2024-01-03,1.0071475260243288,0.9836148724900379,-2.336564696453658,4,True
2024-01-04,0.9836148724900379,0.9993075856042846,1.5954123461472625,10,True
2024-01-05,0.9993075856042846,0.9906436206921758,-0.8669968122847371,7,True
2024-01-06,0.9906436206921758,0.9851656103942642,-0.5529748724454553,7,True
2024-01-07,0.9851656103942642,0.9909950560286196,0.5917224041166458,9,True
2024-01-08,0.9909950560286196,0.9675769167847282,-2.3630934484919375,3,True
2024-01-09,0.9675769167847282,0.9584295789586863,-0.945386115290836,5,True
2024-01-10,0.9584295789586863,0.9408682292848615,-1.8323046428622147,7,True
2024-01-11,0.9408682292848615,0.953437634609642,1.3359368436039576,6,True
2024-01-12,0.953437634609642,0.9333319425222626,-2.1087579677522506,1,True
2024-01-13,0.9333319425222626,0.9439864383336936,1.1415548237466266,8,True
2024-01-14,0.9439864383336936,0.9434397582397662,-0.05791185887080719,1,True
2024-01-15,0.9434397582397662,0.9509312209926211,0.79405841098239,5,True
2024-01-16,0.9509312209926211,0.9486759486831764,-0.23716460871802125,1,True
2024-01-17,0.9486759486831764,0.956462861679929,0.8208190591910025,0,True
2024-01-18,0.956462861679929,0.9505791428338003,-0.6151539261853411,2,True
2024-01-19,0.9505791428338003,0.9422091801238928,-0.8805119250729132,1,True
2024-01-20,0.9422091801238928,0.9817509248054622,4.19670552099376,11,True
2024-01-21,0.9817509248054622,0.9789417637062596,-0.2861378612665111,3,True
2024-01-22,0.9789417637062596,0.95918386962538,-2.0182910580989533,3,True
2024-01-23,0.95918386962538,0.9396280503907496,-2.0387977585849315,11,True
2024-01-24,0.9396280503907496,0.934942259770888,-0.49868568929088974,1,True
2024-01-25,0.934942259770888,0.9208274382826194,-1.5096998066733591,4,True
2024-01-26,0.9208274382826194,0.9163674357055261,-0.48434727199390126,0,True
2024-01-27,0.9163674357055261,0.9163674357055261,0.0,0,False
2024-01-28,0.9163674357055261,0.9120928908498362,-0.4664662545978415,2,True
2024-01-29,0.9120928908498362,0.9119905753145775,-0.0112176661264618,0,True
2024-01-30,0.9119905753145775,0.9119905753145775,0.0,0,False
2024-01-31,0.9119905753145775,0.9097192924766467,-0.2490467444959399,1,True
2024-02-01,0.9097192924766467,0.9097192924766467,0.0,0,False
2024-02-02,0.9097192924766467,0.9098218069534197,0.011268803203456912,3,True
2024-02-03,0.9098218069534197,0.912318604751564,0.2744271217794747,1,True
2024-02-04,0.912318604751564,0.9103889825515081,-0.2115074920105764,1,True
2024-02-05,0.9103889825515081,0.9103889825515081,0.0,0,False
2024-02-06,0.9103889825515081,0.9069653094023208,-0.3760670674629596,2,True
2024-02-07,0.9069653094023208,0.9036177491172939,-0.36909463353487215,5,True
2024-02-08,0.9036177491172939,0.9156281044472558,1.3291411486432647,1,True
2024-02-09,0.9156281044472558,0.9156281044472558,0.0,0,False
2024-02-10,0.9156281044472558,0.9127153395684965,-0.3181165873581082,2,True
2024-02-11,0.9127153395684965,0.9114009756588669,-0.1440058967619562,0,True
2024-02-12,0.9114009756588669,0.9148520467972913,0.37865563353489673,3,True
2024-02-13,0.9148520467972913,0.9149025861361411,0.005524318279293006,0,True
2024-02-14,0.9149025861361411,0.9161342342255886,0.13462068072722655,2,True
2024-02-15,0.9161342342255886,0.9201529842009116,0.4386638797228226,7,True
2024-02-16,0.9201529842009116,0.923281680387412,0.3400191316248691,7,True
2024-02-17,0.923281680387412,0.9186234942393059,-0.5045249187822565,6,True
2024-02-18,0.9186234942393059,0.9184464315913925,-0.019274778951738902,4,True
2024-02-19,0.9184464315913925,0.9139488885128421,-0.4896902991672114,6,True
2024-02-20,0.9139488885128421,0.904986695615038,-0.9806011047715391,13,True
2024-02-21,0.904986695615038,0.8995002313029697,-0.6062480629441258,9,True
2024-02-22,0.8995002313029697,0.9168190879472294,1.9253865692921979,5,True
2024-02-23,0.9168190879472294,0.9063013282528404,-1.1472012126120146,7,True
2024-02-24,0.9063013282528404,0.9123845976096411,0.6712192917699866,9,True
2024-02-25,0.9123845976096411,0.9105848802990416,-0.1972542407351674,7,True
2024-02-26,0.9105848802990416,0.9131750371948171,0.2844498027382958,8,True
2024-02-27,0.9131750371948171,0.9057953026901187,-0.8081401926369192,7,True
2024-02-28,0.9057953026901187,0.903915052611952,-0.20758002084825256,7,True
2024-02-29,0.903915052611952,0.8947555230736951,-1.0133175138293815,17,True
2024-03-01,0.8947555230736951,0.9006252060542029,0.6560096952901828,9,True
2024-03-02,0.9006252060542029,0.8970766545181404,-0.394009795884942,10,True
2024-03-03,0.8970766545181404,0.9103492704703673,1.4795408937886334,13,True
2024-03-04,0.9103492704703673,0.916018926107875,0.622800041854088,4,True
2024-03-05,0.916018926107875,0.9241328182144252,0.8857777798353617,15,True
2024-03-06,0.9241328182144252,0.9000247729085,-2.608720827868205,9,True
2024-03-07,0.9000247729085,0.901358633711557,0.14820267654926944,10,True
2024-03-08,0.901358633711557,0.9019457969052923,0.06514201692588983,6,True
2024-03-09,0.9019457969052923,0.9041641372570681,0.2459505171360954,8,True
2024-03-10,0.9041641372570681,0.8956007489781992,-0.9471055006502915,9,True
2024-03-11,0.8956007489781992,0.8983465767163508,0.30659060315485487,10,True
2024-03-12,0.8983465767163508,0.9128305964479364,1.6122975371629877,10,True
2024-03-13,0.9128305964479364,0.9176894786158438,0.532287391199926,9,True
2024-03-14,0.9176894786158438,0.9205202053840822,0.3084623758036198,6,True
2024-03-15,0.9205202053840822,0.9019676796130933,-2.015439276886699,11,True
2024-03-16,0.9019676796130933,0.8999634604869517,-0.22220520440392466,4,True
2024-03-17,0.8999634604869517,0.8877121790251404,-1.3613087641560884,9,True
2024-03-18,0.8877121790251404,0.9024525363818569,1.6604883547845173,5,True
2024-03-19,0.9024525363818569,0.8841742430872489,-2.0254021743780437,9,True
2024-03-20,0.8841742430872489,0.8718754661461082,-1.3909901851695383,7,True
2024-03-21,0.8718754661461082,0.8781748499340448,0.7225095822206429,6,True
2024-03-22,0.8781748499340448,0.8788283194823046,0.07441223673267938,10,True
2024-03-23,0.8788283194823046,0.8877953310188724,1.0203371167931907,6,True
2024-03-24,0.8877953310188724,0.8848885616035385,-0.3274143615959346,6,True
2024-03-25,0.8848885616035385,0.8976848468490001,1.4460900276835886,4,True
2024-03-26,0.8976848468490001,0.9078060661567071,1.127480244679857,10,True
2024-03-27,0.9078060661567071,0.9037102725290946,-0.4511749568883672,10,True
2024-03-28,0.9037102725290946,0.8982679900623005,-0.6022154037890415,5,True
2024-03-29,0.8982679900623005,0.8872259963485648,-1.2292538347013604,7,True
2024-03-30,0.8872259963485648,0.8836012277857966,-0.40855076132644275,3,True
2024-03-31,0.8836012277857966,0.882018597698618,-0.17911134994057498,1,True
2024-04-01,0.882018597698618,0.8789008430796138,-0.3534794648479167,6,True
2024-04-02,0.8789008430796138,0.8754389488951589,-0.39388905036483735,9,True
2024-04-03,0.8754389488951589,0.8685941262975589,-0.7818732084331481,5,True
2024-04-04,0.8685941262975589,0.866798200499284,-0.20676236966167272,3,True
2024-04-05,0.866798200499284,0.8608983684154679,-0.6806465542288587,1,True
2024-04-06,0.8608983684154679,0.8608983684154679,0.0,0,False
2024-04-07,0.8608983684154679,0.8608983684154679,0.0,0,False
2024-04-08,0.8608983684154679,0.8608983684154679,0.0,0,False
2024-04-09,0.8608983684154679,0.8608983684154679,0.0,0,False
2024-04-10,0.8608983684154679,0.8608983684154679,0.0,0,False
2024-04-11,0.8608983684154679,0.8608983684154679,0.0,0,False
2024-04-12,0.8608983684154679,0.8608983684154679,0.0,0,False
2024-04-13,0.8608983684154679,0.8608983684154679,0.0,0,False
2024-04-14,0.8608983684154679,0.8608983684154679,0.0,0,False
2024-04-15,0.8608983684154679,0.8608983684154679,0.0,0,False
2024-04-16,0.8608983684154679,0.8608983684154679,0.0,0,False
2024-04-17,0.8608983684154679,0.8608983684154679,0.0,0,False
2024-04-18,0.8608983684154679,0.8608983684154679,0.0,0,False
2024-04-19,0.8608983684154679,0.8608983684154679,0.0,0,False
2024-04-20,0.8608983684154679,0.8608983684154679,0.0,0,False
2024-04-21,0.8608983684154679,0.8608983684154679,0.0,0,False
2024-04-22,0.8608983684154679,0.8608983684154679,0.0,0,False
2024-04-23,0.8608983684154679,0.8608983684154679,0.0,0,False
2024-04-24,0.8608983684154679,0.8608983684154679,0.0,0,False
2024-04-25,0.8608983684154679,0.8608983684154679,0.0,0,False
2024-04-26,0.8608983684154679,0.8608983684154679,0.0,0,False
2024-04-27,0.8608983684154679,0.8608983684154679,0.0,0,False
2024-04-28,0.8608983684154679,0.8608983684154679,0.0,0,False
2024-04-29,0.8608983684154679,0.8608983684154679,0.0,0,False
2024-04-30,0.8608983684154679,0.8608983684154679,0.0,0,False
2024-05-01,0.8608983684154679,0.8608983684154679,0.0,0,False
2024-05-02,0.8608983684154679,0.8608983684154679,0.0,0,False
2024-05-03,0.8608983684154679,0.8608983684154679,0.0,0,False
2024-05-04,0.8608983684154679,0.8608983684154679,0.0,0,False
2024-05-05,0.8608983684154679,0.8608983684154679,0.0,0,False
2024-05-06,0.8608983684154679,0.8608983684154679,0.0,0,False
2024-05-07,0.8608983684154679,0.8608983684154679,0.0,0,False
2024-05-08,0.8608983684154679,0.8608983684154679,0.0,0,False
2024-05-09,0.8608983684154679,0.8608983684154679,0.0,0,False
2024-05-10,0.8608983684154679,0.8608983684154679,0.0,0,False
2024-05-11,0.8608983684154679,0.8608983684154679,0.0,0,False
2024-05-12,0.8608983684154679,0.8608983684154679,0.0,0,False
2024-05-13,0.8608983684154679,0.8608983684154679,0.0,0,False
2024-05-14,0.8608983684154679,0.8608983684154679,0.0,0,False
2024-05-15,0.8608983684154679,0.8608983684154679,0.0,0,False
2024-05-16,0.8608983684154679,0.8608983684154679,0.0,0,False
2024-05-17,0.8608983684154679,0.8608983684154679,0.0,0,False
2024-05-18,0.8608983684154679,0.8608983684154679,0.0,0,False
2024-05-19,0.8608983684154679,0.8608983684154679,0.0,0,False
2024-05-20,0.8608983684154679,0.8608983684154679,0.0,0,False
2024-05-21,0.8608983684154679,0.8608983684154679,0.0,0,False
2024-05-22,0.8608983684154679,0.8608983684154679,0.0,0,False
2024-05-23,0.8608983684154679,0.8608983684154679,0.0,0,False
2024-05-24,0.8608983684154679,0.8608983684154679,0.0,0,False
2024-05-25,0.8608983684154679,0.8608983684154679,0.0,0,False
2024-05-26,0.8608983684154679,0.8608983684154679,0.0,0,False
2024-05-27,0.8608983684154679,0.8608983684154679,0.0,0,False
2024-05-28,0.8608983684154679,0.8608983684154679,0.0,0,False
2024-05-29,0.8608983684154679,0.8608983684154679,0.0,0,False
2024-05-30,0.8608983684154679,0.8608983684154679,0.0,0,False
2024-05-31,0.8608983684154679,0.8608983684154679,0.0,0,False
2024-06-01,0.8608983684154679,0.8608983684154679,0.0,0,False
2024-06-02,0.8608983684154679,0.8608983684154679,0.0,0,False
2024-06-03,0.8608983684154679,0.8608983684154679,0.0,0,False
2024-06-04,0.8608983684154679,0.8608983684154679,0.0,0,False
2024-06-05,0.8608983684154679,0.8608983684154679,0.0,0,False
2024-06-06,0.8608983684154679,0.8608983684154679,0.0,0,False
2024-06-07,0.8608983684154679,0.8608983684154679,0.0,0,False
2024-06-08,0.8608983684154679,0.8608983684154679,0.0,0,False
2024-06-09,0.8608983684154679,0.8608983684154679,0.0,0,False
2024-06-10,0.8608983684154679,0.8608983684154679,0.0,0,False
2024-06-11,0.8608983684154679,0.8608983684154679,0.0,0,False
2024-06-12,0.8608983684154679,0.8608983684154679,0.0,0,False
2024-06-13,0.8608983684154679,0.8608983684154679,0.0,0,False
2024-06-14,0.8608983684154679,0.8608983684154679,0.0,0,False
2024-06-15,0.8608983684154679,0.8608983684154679,0.0,0,False
2024-06-16,0.8608983684154679,0.8608983684154679,0.0,0,False
2024-06-17,0.8608983684154679,0.8608983684154679,0.0,0,False
2024-06-18,0.8608983684154679,0.8608983684154679,0.0,0,False
2024-06-19,0.8608983684154679,0.8608983684154679,0.0,0,False
2024-06-20,0.8608983684154679,0.8608983684154679,0.0,0,False
2024-06-21,0.8608983684154679,0.8608983684154679,0.0,0,False
2024-06-22,0.8608983684154679,0.8608983684154679,0.0,0,False
2024-06-23,0.8608983684154679,0.8608983684154679,0.0,0,False
2024-06-24,0.8608983684154679,0.8608983684154679,0.0,0,False
2024-06-25,0.8608983684154679,0.8608983684154679,0.0,0,False
2024-06-26,0.8608983684154679,0.8608983684154679,0.0,0,False
2024-06-27,0.8608983684154679,0.8608983684154679,0.0,0,False
2024-06-28,0.8608983684154679,0.8608983684154679,0.0,0,False
2024-06-29,0.8608983684154679,0.8608983684154679,0.0,0,False
2024-06-30,0.8608983684154679,0.8608983684154679,0.0,0,False
2024-07-01,0.8608983684154679,0.8608983684154679,0.0,0,False
2024-07-02,0.8608983684154679,0.8608983684154679,0.0,0,False
2024-07-03,0.8608983684154679,0.8608983684154679,0.0,0,False
2024-07-04,0.8608983684154679,0.8608983684154679,0.0,0,False
2024-07-05,0.8608983684154679,0.8608983684154679,0.0,0,False
2024-07-06,0.8608983684154679,0.8608983684154679,0.0,0,False
2024-07-07,0.8608983684154679,0.8608983684154679,0.0,0,False
2024-07-08,0.8608983684154679,0.8608983684154679,0.0,0,False
2024-07-09,0.8608983684154679,0.8608983684154679,0.0,0,False
2024-07-10,0.8608983684154679,0.8608983684154679,0.0,0,False
2024-07-11,0.8608983684154679,0.8608983684154679,0.0,0,False
2024-07-12,0.8608983684154679,0.8608983684154679,0.0,0,False
2024-07-13,0.8608983684154679,0.8608983684154679,0.0,0,False
2024-07-14,0.8608983684154679,0.8608983684154679,0.0,0,False
2024-07-15,0.8608983684154679,0.8608983684154679,0.0,0,False
2024-07-16,0.8608983684154679,0.8608983684154679,0.0,0,False
2024-07-17,0.8608983684154679,0.8608983684154679,0.0,0,False
2024-07-18,0.8608983684154679,0.8608983684154679,0.0,0,False
2024-07-19,0.8608983684154679,0.8608983684154679,0.0,0,False
2024-07-20,0.8608983684154679,0.8608983684154679,0.0,0,False
2024-07-21,0.8608983684154679,0.8608983684154679,0.0,0,False
2024-07-22,0.8608983684154679,0.8608983684154679,0.0,0,False
2024-07-23,0.8608983684154679,0.8608983684154679,0.0,0,False
2024-07-24,0.8608983684154679,0.8608983684154679,0.0,0,False
2024-07-25,0.8608983684154679,0.8608983684154679,0.0,0,False
2024-07-26,0.8608983684154679,0.8608983684154679,0.0,0,False
2024-07-27,0.8608983684154679,0.8608983684154679,0.0,0,False
2024-07-28,0.8608983684154679,0.8608983684154679,0.0,0,False
2024-07-29,0.8608983684154679,0.8608983684154679,0.0,0,False
2024-07-30,0.8608983684154679,0.8608983684154679,0.0,0,False
2024-07-31,0.8608983684154679,0.8608983684154679,0.0,0,False
2024-08-01,0.8608983684154679,0.8608983684154679,0.0,0,False
2024-08-02,0.8608983684154679,0.8608983684154679,0.0,0,False
2024-08-03,0.8608983684154679,0.8608983684154679,0.0,0,False
2024-08-04,0.8608983684154679,0.8608983684154679,0.0,0,False
2024-08-05,0.8608983684154679,0.8608983684154679,0.0,0,False
2024-08-06,0.8608983684154679,0.8608983684154679,0.0,0,False
2024-08-07,0.8608983684154679,0.8608983684154679,0.0,0,False
2024-08-08,0.8608983684154679,0.8608983684154679,0.0,0,False
2024-08-09,0.8608983684154679,0.8608983684154679,0.0,0,False
2024-08-10,0.8608983684154679,0.8608983684154679,0.0,0,False
2024-08-11,0.8608983684154679,0.8608983684154679,0.0,0,False
2024-08-12,0.8608983684154679,0.8608983684154679,0.0,0,False
2024-08-13,0.8608983684154679,0.8608983684154679,0.0,0,False
2024-08-14,0.8608983684154679,0.8608983684154679,0.0,0,False
2024-08-15,0.8608983684154679,0.8608983684154679,0.0,0,False
2024-08-16,0.8608983684154679,0.8608983684154679,0.0,0,False
2024-08-17,0.8608983684154679,0.8608983684154679,0.0,0,False
2024-08-18,0.8608983684154679,0.8608983684154679,0.0,0,False
2024-08-19,0.8608983684154679,0.8608983684154679,0.0,0,False
2024-08-20,0.8608983684154679,0.8608983684154679,0.0,0,False
2024-08-21,0.8608983684154679,0.8608983684154679,0.0,0,False
2024-08-22,0.8608983684154679,0.8608983684154679,0.0,0,False
2024-08-23,0.8608983684154679,0.8608983684154679,0.0,0,False
2024-08-24,0.8608983684154679,0.8608983684154679,0.0,0,False
2024-08-25,0.8608983684154679,0.8608983684154679,0.0,0,False
2024-08-26,0.8608983684154679,0.8608983684154679,0.0,0,False
2024-08-27,0.8608983684154679,0.8608983684154679,0.0,0,False
2024-08-28,0.8608983684154679,0.8608983684154679,0.0,0,False
2024-08-29,0.8608983684154679,0.8608983684154679,0.0,0,False
2024-08-30,0.8608983684154679,0.8608983684154679,0.0,0,False
2024-08-31,0.8608983684154679,0.8608983684154679,0.0,0,False
2024-09-01,0.8608983684154679,0.8608983684154679,0.0,0,False
2024-09-02,0.8608983684154679,0.8608983684154679,0.0,0,False
2024-09-03,0.8608983684154679,0.8608983684154679,0.0,0,False
2024-09-04,0.8608983684154679,0.8608983684154679,0.0,0,False
2024-09-05,0.8608983684154679,0.8608983684154679,0.0,0,False
2024-09-06,0.8608983684154679,0.8608983684154679,0.0,0,False
2024-09-07,0.8608983684154679,0.8608983684154679,0.0,0,False
2024-09-08,0.8608983684154679,0.8608983684154679,0.0,0,False
2024-09-09,0.8608983684154679,0.8608983684154679,0.0,0,False
2024-09-10,0.8608983684154679,0.8608983684154679,0.0,0,False
2024-09-11,0.8608983684154679,0.8608983684154679,0.0,0,False
2024-09-12,0.8608983684154679,0.8608983684154679,0.0,0,False
2024-09-13,0.8608983684154679,0.8608983684154679,0.0,0,False
2024-09-14,0.8608983684154679,0.8608983684154679,0.0,0,False
2024-09-15,0.8608983684154679,0.8608983684154679,0.0,0,False
2024-09-16,0.8608983684154679,0.8608983684154679,0.0,0,False
2024-09-17,0.8608983684154679,0.8608983684154679,0.0,0,False
2024-09-18,0.8608983684154679,0.8608983684154679,0.0,0,False
2024-09-19,0.8608983684154679,0.8608983684154679,0.0,0,False
2024-09-20,0.8608983684154679,0.8608983684154679,0.0,0,False
2024-09-21,0.8608983684154679,0.8608983684154679,0.0,0,False
2024-09-22,0.8608983684154679,0.8608983684154679,0.0,0,False
2024-09-23,0.8608983684154679,0.8608983684154679,0.0,0,False
2024-09-24,0.8608983684154679,0.8608983684154679,0.0,0,False
2024-09-25,0.8608983684154679,0.8608983684154679,0.0,0,False
2024-09-26,0.8608983684154679,0.8608983684154679,0.0,0,False
2024-09-27,0.8608983684154679,0.8608983684154679,0.0,0,False
2024-09-28,0.8608983684154679,0.8608983684154679,0.0,0,False
2024-09-29,0.8608983684154679,0.8608983684154679,0.0,0,False
2024-09-30,0.8608983684154679,0.8608983684154679,0.0,0,False
2024-10-01,0.8608983684154679,0.8608983684154679,0.0,0,False
2024-10-02,0.8608983684154679,0.8608983684154679,0.0,0,False
2024-10-03,0.8608983684154679,0.8608983684154679,0.0,0,False
2024-10-04,0.8608983684154679,0.8608983684154679,0.0,0,False
2024-10-05,0.8608983684154679,0.8608983684154679,0.0,0,False
2024-10-06,0.8608983684154679,0.8608983684154679,0.0,0,False
2024-10-07,0.8608983684154679,0.8608983684154679,0.0,0,False
2024-10-08,0.8608983684154679,0.8608983684154679,0.0,0,False
2024-10-09,0.8608983684154679,0.8608983684154679,0.0,0,False
2024-10-10,0.8608983684154679,0.8608983684154679,0.0,0,False
2024-10-11,0.8608983684154679,0.8608983684154679,0.0,0,False
2024-10-12,0.8608983684154679,0.8608983684154679,0.0,0,False
2024-10-13,0.8608983684154679,0.8608983684154679,0.0,0,False
2024-10-14,0.8608983684154679,0.8608983684154679,0.0,0,False
2024-10-15,0.8608983684154679,0.8608983684154679,0.0,0,False
2024-10-16,0.8608983684154679,0.8608983684154679,0.0,0,False
2024-10-17,0.8608983684154679,0.8608983684154679,0.0,0,False
2024-10-18,0.8608983684154679,0.8608983684154679,0.0,0,False
2024-10-19,0.8608983684154679,0.8608983684154679,0.0,0,False
2024-10-20,0.8608983684154679,0.8608983684154679,0.0,0,False
2024-10-21,0.8608983684154679,0.8608983684154679,0.0,0,False
2024-10-22,0.8608983684154679,0.8608983684154679,0.0,0,False
2024-10-23,0.8608983684154679,0.8608983684154679,0.0,0,False
2024-10-24,0.8608983684154679,0.8608983684154679,0.0,0,False
2024-10-25,0.8608983684154679,0.8608983684154679,0.0,0,False
2024-10-26,0.8608983684154679,0.8608983684154679,0.0,0,False
2024-10-27,0.8608983684154679,0.8608983684154679,0.0,0,False
2024-10-28,0.8608983684154679,0.8608983684154679,0.0,0,False
2024-10-29,0.8608983684154679,0.8608983684154679,0.0,0,False
2024-10-30,0.8608983684154679,0.8608983684154679,0.0,0,False
2024-10-31,0.8608983684154679,0.8608983684154679,0.0,0,False
2024-11-01,0.8608983684154679,0.8608983684154679,0.0,0,False
2024-11-02,0.8608983684154679,0.8608983684154679,0.0,0,False
2024-11-03,0.8608983684154679,0.8608983684154679,0.0,0,False
2024-11-04,0.8608983684154679,0.8608983684154679,0.0,0,False
2024-11-05,0.8608983684154679,0.8608983684154679,0.0,0,False
2024-11-06,0.8608983684154679,0.8608983684154679,0.0,0,False
2024-11-07,0.8608983684154679,0.8608983684154679,0.0,0,False
2024-11-08,0.8608983684154679,0.8608983684154679,0.0,0,False
2024-11-09,0.8608983684154679,0.8608983684154679,0.0,0,False
2024-11-10,0.8608983684154679,0.8608983684154679,0.0,0,False
2024-11-11,0.8608983684154679,0.8608983684154679,0.0,0,False
2024-11-12,0.8608983684154679,0.8608983684154679,0.0,0,False
2024-11-13,0.8608983684154679,0.8608983684154679,0.0,0,False
2024-11-14,0.8608983684154679,0.8608983684154679,0.0,0,False
2024-11-15,0.8608983684154679,0.8608983684154679,0.0,0,False
2024-11-16,0.8608983684154679,0.8608983684154679,0.0,0,False
2024-11-17,0.8608983684154679,0.8608983684154679,0.0,0,False
2024-11-18,0.8608983684154679,0.8608983684154679,0.0,0,False
2024-11-19,0.8608983684154679,0.8608983684154679,0.0,0,False
2024-11-20,0.8608983684154679,0.8608983684154679,0.0,0,False
2024-11-21,0.8608983684154679,0.8608983684154679,0.0,0,False
2024-11-22,0.8608983684154679,0.8608983684154679,0.0,0,False
2024-11-23,0.8608983684154679,0.8608983684154679,0.0,0,False
2024-11-24,0.8608983684154679,0.8608983684154679,0.0,0,False
2024-11-25,0.8608983684154679,0.8608983684154679,0.0,0,False
2024-11-26,0.8608983684154679,0.8608983684154679,0.0,0,False
2024-11-27,0.8608983684154679,0.8608983684154679,0.0,0,False
2024-11-28,0.8608983684154679,0.8608983684154679,0.0,0,False
2024-11-29,0.8608983684154679,0.8608983684154679,0.0,0,False
2024-11-30,0.8608983684154679,0.8608983684154679,0.0,0,False
2024-12-01,0.8608983684154679,0.8608983684154679,0.0,0,False
2024-12-02,0.8608983684154679,0.8608983684154679,0.0,0,False
2024-12-03,0.8608983684154679,0.8608983684154679,0.0,0,False
2024-12-04,0.8608983684154679,0.8608983684154679,0.0,0,False
2024-12-05,0.8608983684154679,0.8608983684154679,0.0,0,False
2024-12-06,0.8608983684154679,0.8608983684154679,0.0,0,False
2024-12-07,0.8608983684154679,0.8608983684154679,0.0,0,False
2024-12-08,0.8608983684154679,0.8608983684154679,0.0,0,False
2024-12-09,0.8608983684154679,0.8608983684154679,0.0,0,False
2024-12-10,0.8608983684154679,0.8608983684154679,0.0,0,False
2024-12-11,0.8608983684154679,0.8608983684154679,0.0,0,False
2024-12-12,0.8608983684154679,0.8608983684154679,0.0,0,False
2024-12-13,0.8608983684154679,0.8608983684154679,0.0,0,False
2024-12-14,0.8608983684154679,0.8608983684154679,0.0,0,False
2024-12-15,0.8608983684154679,0.8608983684154679,0.0,0,False
2024-12-16,0.8608983684154679,0.8608983684154679,0.0,0,False
2024-12-17,0.8608983684154679,0.8608983684154679,0.0,0,False
2024-12-18,0.8608983684154679,0.8608983684154679,0.0,0,False
2024-12-19,0.8608983684154679,0.8608983684154679,0.0,0,False
2024-12-20,0.8608983684154679,0.8608983684154679,0.0,0,False
2024-12-21,0.8608983684154679,0.8608983684154679,0.0,0,False
2024-12-22,0.8608983684154679,0.8608983684154679,0.0,0,False
2024-12-23,0.8608983684154679,0.8608983684154679,0.0,0,False
2024-12-24,0.8608983684154679,0.8608983684154679,0.0,0,False
2024-12-25,0.8608983684154679,0.8608983684154679,0.0,0,False
2024-12-26,0.8608983684154679,0.8608983684154679,0.0,0,False
2024-12-27,0.8608983684154679,0.8608983684154679,0.0,0,False
2024-12-28,0.8608983684154679,0.8608983684154679,0.0,0,False
2024-12-29,0.8608983684154679,0.8608983684154679,0.0,0,False
2024-12-30,0.8608983684154679,0.8608983684154679,0.0,0,False
2024-12-31,0.8608983684154679,0.8608983684154679,0.0,0,False
