day,start_equity,end_equity,return_pct,entries,active
2021-09-02,1.0,1.0,0.0,0,False
2021-09-03,1.0,1.0,0.0,0,False
2021-09-04,1.0,1.0,0.0,0,False
2021-09-05,1.0,1.0,0.0,0,False
2021-09-06,1.0,1.0,0.0,0,False
2021-09-07,1.0,1.0,0.0,0,False
2021-09-08,1.0,1.0,0.0,0,False
2021-09-09,1.0,1.0,0.0,0,False
2021-09-10,1.0,1.0,0.0,0,False
2021-09-11,1.0,1.0,0.0,0,False
2021-09-12,1.0,1.0,0.0,0,False
2021-09-13,1.0,1.0,0.0,0,False
2021-09-14,1.0,1.0,0.0,0,False
2021-09-15,1.0,1.0,0.0,0,False
2021-09-16,1.0,1.0,0.0,0,False
2021-09-17,1.0,1.0,0.0,0,False
2021-09-18,1.0,1.0,0.0,0,False
2021-09-19,1.0,1.0,0.0,0,False
2021-09-20,1.0,1.0,0.0,0,False
2021-09-21,1.0,1.0,0.0,0,False
2021-09-22,1.0,1.0,0.0,0,False
2021-09-23,1.0,1.0,0.0,0,False
2021-09-24,1.0,1.0,0.0,0,False
2021-09-25,1.0,1.0,0.0,0,False
2021-09-26,1.0,1.0,0.0,0,False
2021-09-27,1.0,1.0,0.0,0,False
2021-09-28,1.0,1.0,0.0,0,False
2021-09-29,1.0,1.0,0.0,0,False
2021-09-30,1.0,1.0,0.0,0,False
2021-10-01,1.0,1.0,0.0,0,False
2021-10-02,1.0,1.0,0.0,0,False
2021-10-03,1.0,1.0,0.0,0,False
2021-10-04,1.0,1.0,0.0,0,False
2021-10-05,1.0,0.9993073753491394,-0.06926246508606182,1,True
2021-10-06,0.9993073753491394,1.0047370107406295,0.543339869736581,5,True
2021-10-07,1.0047370107406295,0.9926783266390775,-1.2001831297787091,2,True
2021-10-08,0.9926783266390775,0.9920050187799829,-0.0678273959475062,1,True
2021-10-09,0.9920050187799829,0.9938392266473597,0.1848990511794435,4,True
2021-10-10,0.9938392266473597,0.9884026571438839,-0.5470270600825167,1,True
2021-10-11,0.9884026571438839,0.9884026571438839,0.0,0,False
2021-10-12,0.9884026571438839,0.9884026571438839,0.0,0,False
2021-10-13,0.9884026571438839,1.0080583013487623,1.9886272120793302,4,True
2021-10-14,1.0080583013487623,1.0235041206559823,1.5322347215983134,1,True
2021-10-15,1.0235041206559823,1.0256197591926657,0.20670542443224083,6,True
2021-10-16,1.0256197591926657,1.0628231281382603,3.627403685638808,4,True
2021-10-17,1.0628231281382603,1.0628231281382603,0.0,0,False
2021-10-18,1.0628231281382603,1.0642746490808197,0.13657220135037118,2,True
2021-10-19,1.0642746490808197,1.0642746490808197,0.0,0,False
2021-10-20,1.0642746490808197,1.0642746490808197,0.0,0,False
2021-10-21,1.0642746490808197,1.0642746490808197,0.0,0,False
2021-10-22,1.0642746490808197,1.0642746490808197,0.0,0,False
2021-10-23,1.0642746490808197,1.0642746490808197,0.0,0,False
2021-10-24,1.0642746490808197,1.0688177620254262,0.4268741107880558,1,True
2021-10-25,1.0688177620254262,1.060951399799869,-0.7359872286039071,3,True
2021-10-26,1.060951399799869,1.060951399799869,0.0,0,False
2021-10-27,1.060951399799869,1.0709058798986133,0.9382597638894818,7,True
2021-10-28,1.0709058798986133,1.0643105123340606,-0.6158680877891065,9,True
2021-10-29,1.0643105123340606,1.0619339325566786,-0.22329759500073765,3,True
2021-10-30,1.0619339325566786,1.0655351969714384,0.3391232076076056,2,True
2021-10-31,1.0655351969714384,1.057685054310256,-0.7367323654342672,11,True
2021-11-01,1.057685054310256,1.0429162344810936,-1.3963343595503108,9,True
2021-11-02,1.0429162344810936,1.050456067400031,0.7229567121168401,3,True
2021-11-03,1.050456067400031,1.0465197094526464,-0.37472846980906027,2,True
2021-11-04,1.0465197094526464,1.039218675691565,-0.6976489496695715,6,True
2021-11-05,1.039218675691565,1.0244897219629994,-1.417310338342781,7,True
2021-11-06,1.0244897219629994,1.0225881259466736,-0.1856139671837953,3,True
2021-11-07,1.0225881259466736,1.0225881259466736,0.0,0,False
2021-11-08,1.0225881259466736,1.0225881259466736,0.0,0,False
2021-11-09,1.0225881259466736,1.0292257508702034,0.6491005278772333,2,True
2021-11-10,1.0292257508702034,1.0638369310069875,3.362836589302254,1,True
2021-11-11,1.0638369310069875,1.0360084007425954,-2.615864278940827,19,True
2021-11-12,1.0360084007425954,1.0000785520670559,-3.468103989290583,9,True
2021-11-13,1.0000785520670559,1.0002456495911414,0.016708439926049756,1,True
2021-11-14,1.0002456495911414,0.9912025817716285,-0.9040846939158742,2,True
2021-11-15,0.9912025817716285,0.9912025817716285,0.0,0,False
2021-11-16,0.9912025817716285,1.0341896380601112,4.336858789416165,9,True
2021-11-17,1.0341896380601112,1.0243504210881957,-0.9513938846236636,1,True
2021-11-18,1.0243504210881957,1.012462967690371,-1.1604869928394712,4,True
2021-11-19,1.012462967690371,1.0243847154180268,1.1774996328855147,8,True
2021-11-20,1.0243847154180268,1.0332317434710223,0.8636431137480693,0,True
2021-11-21,1.0332317434710223,1.0262015286665127,-0.6804102611958518,3,True
2021-11-22,1.0262015286665127,0.9987714242475392,-2.6729744258535026,11,True
2021-11-23,0.9987714242475392,0.9969930785096756,-0.17805332578506583,0,True
2021-11-24,0.9969930785096756,0.9834905218259833,-1.3543280264168067,4,True
2021-11-25,0.9834905218259833,1.0042141469843142,2.107150470535779,11,True
2021-11-26,1.0042141469843142,0.9679439373237891,-3.6118003086737627,15,True
2021-11-27,0.9679439373237891,0.9728376664806672,0.5055798138896783,9,True
2021-11-28,0.9728376664806672,0.9362044831380295,-3.765600840185568,11,True
2021-11-29,0.9362044831380295,0.9296671887933087,-0.6982763341197296,2,True
2021-11-30,0.9296671887933087,0.9201073242993797,-1.0283104114212627,3,True
2021-12-01,0.9201073242993797,0.9274486057206589,0.7978722946118566,3,True
2021-12-02,0.9274486057206589,0.929962768711779,0.2710838072980337,7,True
2021-12-03,0.929962768711779,0.9206932383128277,-0.9967636028904492,3,True
2021-12-04,0.9206932383128277,0.8554329993459004,-7.088163163500227,23,True
2021-12-05,0.8554329993459004,0.8621759113145895,0.7882454819775342,4,True
2021-12-06,0.8621759113145895,0.849554243898761,-1.463931809064789,19,True
2021-12-07,0.849554243898761,0.8499190646929515,0.042942613354068904,1,True
2021-12-08,0.8499190646929515,0.8492422365003489,-0.07963442882025218,4,True
2021-12-09,0.8492422365003489,0.8397164778873992,-1.1216774441417887,4,True
2021-12-10,0.8397164778873992,0.8290232788399027,-1.2734297026538055,4,True
2021-12-11,0.8290232788399027,0.8227340579652834,-0.7586301899049297,2,True
2021-12-12,0.8227340579652834,0.8227340579652834,0.0,0,False
2021-12-13,0.8227340579652834,0.8177010019495894,-0.6117476196550564,2,True
2021-12-14,0.8177010019495894,0.8136264908437859,-0.4982886282502874,1,True
2021-12-15,0.8136264908437859,0.8152662693139978,0.2015394641970536,1,True
2021-12-16,0.8152662693139978,0.8150285046051906,-0.029164055690333868,1,True
2021-12-17,0.8150285046051906,0.8097064178230574,-0.6529939446364819,5,True
2021-12-18,0.8097064178230574,0.8059893334058685,-0.45906569780964634,3,True
2021-12-19,0.8059893334058685,0.8019882563258621,-0.49641811797919155,1,True
2021-12-20,0.8019882563258621,0.8019882563258621,0.0,0,False
2021-12-21,0.8019882563258621,0.7979959321263839,-0.4978033241743729,1,True
2021-12-22,0.7979959321263839,0.7922653474861526,-0.7181220366576535,2,True
2021-12-23,0.7922653474861526,0.7932536702421847,0.1247464323875791,0,True
2021-12-24,0.7932536702421847,0.7932536702421847,0.0,0,False
2021-12-25,0.7932536702421847,0.7925985886737137,-0.08258159943603793,2,True
2021-12-26,0.7925985886737137,0.7918583820176738,-0.0933898528987398,0,True
2021-12-27,0.7918583820176738,0.7918583820176738,0.0,0,False
2021-12-28,0.7918583820176738,0.7903146356072593,-0.19495233560336,1,True
2021-12-29,0.7903146356072593,0.7903146356072593,0.0,0,False
2021-12-30,0.7903146356072593,0.7903146356072593,0.0,0,False
2021-12-31,0.7903146356072593,0.7903146356072593,0.0,0,False
2022-01-01,0.7903146356072593,0.7903146356072593,0.0,0,False
2022-01-02,0.7903146356072593,0.7903146356072593,0.0,0,False
2022-01-03,0.7903146356072593,0.7903146356072593,0.0,0,False
2022-01-04,0.7903146356072593,0.7903146356072593,0.0,0,False
2022-01-05,0.7903146356072593,0.7921678561044386,0.23449148145349152,1,True
2022-01-06,0.7921678561044386,0.756133060333602,-4.548883862574438,15,True
2022-01-07,0.756133060333602,0.7443310391822715,-1.560839192261143,5,True
2022-01-08,0.7443310391822715,0.7443310391822715,0.0,0,False
2022-01-09,0.7443310391822715,0.7433458883818825,-0.13235385178498316,1,True
2022-01-10,0.7433458883818825,0.7433458883818825,0.0,0,False
2022-01-11,0.7433458883818825,0.7433458883818825,0.0,0,False
2022-01-12,0.7433458883818825,0.7433458883818825,0.0,0,False
2022-01-13,0.7433458883818825,0.7433458883818825,0.0,0,False
2022-01-14,0.7433458883818825,0.7433458883818825,0.0,0,False
2022-01-15,0.7433458883818825,0.7440357572961127,0.09280590974032332,1,True
2022-01-16,0.7440357572961127,0.7433950091393472,-0.08611792517795314,0,True
2022-01-17,0.7433950091393472,0.7484369152770485,0.6782270630977916,1,True
2022-01-18,0.7484369152770485,0.7484369152770485,0.0,0,False
2022-01-19,0.7484369152770485,0.744708848171049,-0.49811373943513537,1,True
2022-01-20,0.744708848171049,0.744708848171049,0.0,0,False
2022-01-21,0.744708848171049,0.7186406780930925,-3.5004512356712314,9,True
2022-01-22,0.7186406780930925,0.6981601644952866,-2.8498962307770825,25,True
2022-01-23,0.6981601644952866,0.6965976676532737,-0.22380206168630679,0,True
2022-01-24,0.6965976676532737,0.6891404316339491,-1.0705226798198741,6,True
2022-01-25,0.6891404316339491,0.7014863883724259,1.7915008569740376,0,True
2022-01-26,0.7014863883724259,0.7026365089732599,0.16395479939423918,1,True
2022-01-27,0.7026365089732599,0.7005308202648224,-0.29968393067341115,14,True
2022-01-28,0.7005308202648224,0.6965373619573303,-0.5700617577371503,0,True
2022-01-29,0.6965373619573303,0.6965373619573303,0.0,0,False
2022-01-30,0.6965373619573303,0.6978352242000777,0.1863305995676079,1,True
2022-01-31,0.6978352242000777,0.6954038444375947,-0.3484174599053924,2,True
2022-02-01,0.6954038444375947,0.6919362930445275,-0.49863851354914335,1,True
2022-02-02,0.6919362930445275,0.6942251549040576,0.3307908376158464,1,True
2022-02-03,0.6942251549040576,0.6969608948388708,0.39407098914348015,4,True
2022-02-04,0.6969608948388708,0.6997667712548181,0.4025873527087942,1,True
2022-02-05,0.6997667712548181,0.6997667712548181,0.0,0,False
2022-02-06,0.6997667712548181,0.6997667712548181,0.0,0,False
2022-02-07,0.6997667712548181,0.6997667712548181,0.0,0,False
2022-02-08,0.6997667712548181,0.6939606747544415,-0.829718806162405,3,True
2022-02-09,0.6939606747544415,0.6946330911813801,0.09689546560782691,2,True
2022-02-10,0.6946330911813801,0.7086287893376815,2.0148332024462867,5,True
2022-02-11,0.7086287893376815,0.7075449586052532,-0.15294760087877224,0,True
2022-02-12,0.7075449586052532,0.690032828327384,-2.475055480911059,5,True
2022-02-13,0.690032828327384,0.690032828327384,0.0,0,False
2022-02-14,0.690032828327384,0.690032828327384,0.0,0,False
2022-02-15,0.690032828327384,0.690032828327384,0.0,0,False
2022-02-16,0.690032828327384,0.690032828327384,0.0,0,False
2022-02-17,0.690032828327384,0.690032828327384,0.0,0,False
2022-02-18,0.690032828327384,0.690032828327384,0.0,0,False
2022-02-19,0.690032828327384,0.690032828327384,0.0,0,False
2022-02-20,0.690032828327384,0.690032828327384,0.0,0,False
2022-02-21,0.690032828327384,0.690032828327384,0.0,0,False
2022-02-22,0.690032828327384,0.6859291512019625,-0.5947075207086372,2,True
2022-02-23,0.6859291512019625,0.6859291512019625,0.0,0,False
2022-02-24,0.6859291512019625,0.6654222199756495,-2.9896573414875838,11,True
2022-02-25,0.6654222199756495,0.6779715588182597,1.885921219022313,0,True
2022-02-26,0.6779715588182597,0.6779715588182597,0.0,0,False
2022-02-27,0.6779715588182597,0.6779715588182597,0.0,0,False
2022-02-28,0.6779715588182597,0.672434295866711,-0.8167397112056496,2,True
2022-03-01,0.672434295866711,0.672434295866711,0.0,0,False
2022-03-02,0.672434295866711,0.672434295866711,0.0,0,False
2022-03-03,0.672434295866711,0.672434295866711,0.0,0,False
2022-03-04,0.672434295866711,0.6727093323120287,0.04090160882754823,3,True
2022-03-05,0.6727093323120287,0.6716376698876124,-0.15930541958338873,3,True
2022-03-06,0.6716376698876124,0.6684621024442782,-0.4728096093635781,4,True
2022-03-07,0.6684621024442782,0.6682296999065419,-0.034766748464343245,0,True
2022-03-08,0.6682296999065419,0.6649064811604654,-0.49731682781255504,1,True
2022-03-09,0.6649064811604654,0.6691034770044737,0.6312159623836466,2,True
2022-03-10,0.6691034770044737,0.66570077522106,-0.5085464207490564,4,True
2022-03-11,0.66570077522106,0.6646836906713102,-0.15278404166076953,2,True
2022-03-12,0.6646836906713102,0.6646836906713102,0.0,0,False
2022-03-13,0.6646836906713102,0.6646836906713102,0.0,0,False
2022-03-14,0.6646836906713102,0.6615964883718274,-0.4644618700309633,1,True
2022-03-15,0.6615964883718274,0.6629441133334034,0.20369288308836886,1,True
2022-03-16,0.6629441133334034,0.6659686265561041,0.45622446324968813,1,True
2022-03-17,0.6659686265561041,0.6627649734600368,-0.4810516544351717,1,True
2022-03-18,0.6627649734600368,0.6623948648788147,-0.055843111214815,0,True
2022-03-19,0.6623948648788147,0.6623948648788147,0.0,0,False
2022-03-20,0.6623948648788147,0.6581313383126914,-0.6436533240491316,4,True
2022-03-21,0.6581313383126914,0.6650332071819133,1.048706917211506,4,True
2022-03-22,0.6650332071819133,0.6650332071819133,0.0,0,False
2022-03-23,0.6650332071819133,0.664378579567804,-0.09843532729489901,2,True
2022-03-24,0.664378579567804,0.6629075566815231,-0.22141335249517002,0,True
2022-03-25,0.6629075566815231,0.6629075566815231,0.0,0,False
2022-03-26,0.6629075566815231,0.6646425706430934,0.2617278901232645,1,True
2022-03-27,0.6646425706430934,0.6683918126844337,0.5640989919909245,2,True
2022-03-28,0.6683918126844337,0.6684324796627711,0.006084302285813692,5,True
2022-03-29,0.6684324796627711,0.6691984731488926,0.1145954916056624,1,True
2022-03-30,0.6691984731488926,0.6675228684999408,-0.25038978960416625,7,True
2022-03-31,0.6675228684999408,0.66616572446451,-0.2033104930892704,8,True
2022-04-01,0.66616572446451,0.6509994116802815,-2.2766576284631967,15,True
2022-04-02,0.6509994116802815,0.6531975854082119,0.33766140007049916,2,True
2022-04-03,0.6531975854082119,0.6490849645038463,-0.6296136109865458,3,True
2022-04-04,0.6490849645038463,0.6445959721491418,-0.6915877889939859,2,True
2022-04-05,0.6445959721491418,0.6411723003247691,-0.5311345357864705,8,True
2022-04-06,0.6411723003247691,0.6309949987024723,-1.5872958980201912,16,True
2022-04-07,0.6309949987024723,0.6321180859110845,0.1779867052705164,3,True
2022-04-08,0.6321180859110845,0.6303558088775665,-0.278789212458308,0,True
2022-04-09,0.6303558088775665,0.629335928621293,-0.1617943773833952,1,True
2022-04-10,0.629335928621293,0.629335928621293,0.0,0,False
2022-04-11,0.629335928621293,0.6185533643777515,-1.7133241172426206,7,True
2022-04-12,0.6185533643777515,0.617871789097683,-0.11018859799657443,1,True
2022-04-13,0.617871789097683,0.6191076999110849,0.20002706632824552,2,True
2022-04-14,0.6191076999110849,0.6191076999110849,0.0,0,False
2022-04-15,0.6191076999110849,0.6215300176016886,0.391259499914387,1,True
2022-04-16,0.6215300176016886,0.6215300176016886,0.0,0,False
2022-04-17,0.6215300176016886,0.6241114276493476,0.41533151650823275,1,True
2022-04-18,0.6241114276493476,0.6288738965246788,0.763079902777708,9,True
2022-04-19,0.6288738965246788,0.629383856307748,0.0810909446054664,2,True
2022-04-20,0.629383856307748,0.633053122921673,0.5829934430556794,1,True
2022-04-21,0.633053122921673,0.6300197842863525,-0.47916020401590487,5,True
2022-04-22,0.6300197842863525,0.6245498033138842,-0.8682236826363154,2,True
2022-04-23,0.6245498033138842,0.6181431329576673,-1.0258061602490098,2,True
2022-04-24,0.6181431329576673,0.6181431329576673,0.0,0,False
2022-04-25,0.6181431329576673,0.6186264630190622,0.0781906383206632,3,True
2022-04-26,0.6186264630190622,0.6135949491758007,-0.813336341724924,2,True
2022-04-27,0.6135949491758007,0.609691926470603,-0.6360910744849457,1,True
2022-04-28,0.609691926470603,0.6114095971213872,0.28172763591072236,1,True
2022-04-29,0.6114095971213872,0.6093016933254835,-0.3447613197156363,4,True
2022-04-30,0.6093016933254835,0.6118746031457705,0.4222718972344275,5,True
2022-05-01,0.6118746031457705,0.6228589657478762,1.7951983209685274,9,True
2022-05-02,0.6228589657478762,0.6307172708667889,1.26165079914633,1,True
2022-05-03,0.6307172708667889,0.62573927893643,-0.78925885817549,3,True
2022-05-04,0.62573927893643,0.620120109381763,-0.8980049269430412,2,True
2022-05-05,0.620120109381763,0.620120109381763,0.0,0,False
2022-05-06,0.620120109381763,0.590877033684342,-4.715711562164193,13,True
2022-05-07,0.590877033684342,0.5864289509592253,-0.7527933007281051,2,True
2022-05-08,0.5864289509592253,0.5820489628645633,-0.746891518145143,3,True
2022-05-09,0.5820489628645633,0.5735736065876397,-1.4561242812309194,5,True
2022-05-10,0.5735736065876397,0.56795653479598,-0.9793114130682068,26,True
2022-05-11,0.56795653479598,0.5502963525031124,-3.1094249666854257,44,True
2022-05-12,0.5502963525031124,0.5142278356179989,-6.554380511709734,34,True
2022-05-13,0.5142278356179989,0.5371936994688971,4.466087259414464,14,True
2022-05-14,0.5371936994688971,0.5147940120010129,-4.169759900391579,20,True
2022-05-15,0.5147940120010129,0.5236022638509649,1.7110245349813091,4,True
2022-05-16,0.5236022638509649,0.5260232499090021,0.4623711976016853,13,True
2022-05-17,0.5260232499090021,0.525251267185712,-0.14675828937666946,4,True
2022-05-18,0.525251267185712,0.5166206730717724,-1.643136276506707,2,True
2022-05-19,0.5166206730717724,0.5154939209560807,-0.21810046992354337,9,True
2022-05-20,0.5154939209560807,0.5155614651909796,0.013102818899124458,1,True
2022-05-21,0.5155614651909796,0.5155614651909796,0.0,0,False
2022-05-22,0.5155614651909796,0.5148484227896406,-0.1383040528591173,1,True
2022-05-23,0.5148484227896406,0.5159055421086263,0.20532631978511517,4,True
2022-05-24,0.5159055421086263,0.5035141964006683,-2.401863266928994,18,True
2022-05-25,0.5035141964006683,0.5024418187604879,-0.21297863056219946,1,True
2022-05-26,0.5024418187604879,0.5026942299260357,0.050236894327504444,14,True
2022-05-27,0.5026942299260357,0.49150742052210517,-2.225370560862927,6,True
2022-05-28,0.49150742052210517,0.4914296294114501,-0.015827047040806175,1,True
2022-05-29,0.4914296294114501,0.4984021247884049,1.41881867914746,4,True
2022-05-30,0.4984021247884049,0.4984021247884049,0.0,0,False
2022-05-31,0.4984021247884049,0.49503363987503224,-0.6758568524969144,12,True
2022-06-01,0.49503363987503224,0.49688191854862257,0.3733642574385243,6,True
2022-06-02,0.49688191854862257,0.4887790315626571,-1.6307470011454162,12,True
2022-06-03,0.4887790315626571,0.48860518559260746,-0.03556739524890329,0,True
2022-06-04,0.48860518559260746,0.48860518559260746,0.0,0,False
2022-06-05,0.48860518559260746,0.48860518559260746,0.0,0,False
2022-06-06,0.48860518559260746,0.49061604404515535,0.41155078002477197,1,True
2022-06-07,0.49061604404515535,0.48407141198170794,-1.3339620957942167,5,True
2022-06-08,0.48407141198170794,0.4859974557027299,0.397884211574695,9,True
2022-06-09,0.4859974557027299,0.48781189634210803,0.3733436498663423,8,True
2022-06-10,0.48781189634210803,0.4897014592315747,0.38735481927270055,7,True
2022-06-11,0.4897014592315747,0.47151370518769015,-3.714049386829321,10,True
2022-06-12,0.47151370518769015,0.4564847760702359,-3.187379062814699,19,True
2022-06-13,0.4564847760702359,0.43915096238830714,-3.7972380658893523,19,True
2022-06-14,0.43915096238830714,0.4440567472294681,1.1171067039181803,16,True
2022-06-15,0.4440567472294681,0.4409420226818787,-0.7014248892788122,12,True
2022-06-16,0.4409420226818787,0.4347629208900512,-1.4013411001848386,10,True
2022-06-17,0.4347629208900512,0.43394276560296313,-0.18864425821066844,2,True
2022-06-18,0.43394276560296313,0.4284378599481933,-1.2685787369034252,9,True
2022-06-19,0.4284378599481933,0.4261605133664382,-0.5315465309322809,4,True
2022-06-20,0.4261605133664382,0.4276488376074378,0.3492402966297048,2,True
2022-06-21,0.4276488376074378,0.4315175768375122,0.9046532785447869,1,True
2022-06-22,0.4315175768375122,0.43053142456939275,-0.22853119340970895,9,True
2022-06-23,0.43053142456939275,0.42676510273837,-0.8748076484288547,2,True
2022-06-24,0.42676510273837,0.4233560400197244,-0.7988147804895762,2,True
2022-06-25,0.4233560400197244,0.42583503003739603,0.5855567851485333,4,True
2022-06-26,0.42583503003739603,0.4244059228141635,-0.3356011418569782,0,True
2022-06-27,0.4244059228141635,0.4226101034860148,-0.42313719757748336,5,True
2022-06-28,0.4226101034860148,0.41820233315832794,-1.04298744666258,3,True
2022-06-29,0.41820233315832794,0.4124902980702242,-1.3658544286363927,5,True
2022-06-30,0.4124902980702242,0.4086477854982753,-0.9315401089251107,4,True
2022-07-01,0.4086477854982753,0.411682438950345,0.7426085640888758,1,True
2022-07-02,0.411682438950345,0.4125352520119866,0.20715313089767484,2,True
2022-07-03,0.4125352520119866,0.4104494160572054,-0.505613991679088,3,True
2022-07-04,0.4104494160572054,0.4115057676254746,0.25736461715952785,0,True
2022-07-05,0.4115057676254746,0.4118373350185226,0.08057417881679463,1,True
2022-07-06,0.4118373350185226,0.41484404245863865,0.7300716046010791,0,True
2022-07-07,0.41484404245863865,0.41484404245863865,0.0,0,False
2022-07-08,0.41484404245863865,0.41484404245863865,0.0,0,False
2022-07-09,0.41484404245863865,0.41484404245863865,0.0,0,False
2022-07-10,0.41484404245863865,0.41484404245863865,0.0,0,False
2022-07-11,0.41484404245863865,0.4127797173720103,-0.49761473598458617,1,True
2022-07-12,0.4127797173720103,0.412182985535697,-0.14456423394841877,2,True
2022-07-13,0.412182985535697,0.41891182312659303,1.6324879548705429,6,True
2022-07-14,0.41891182312659303,0.42553729006449664,1.5815898650111349,0,True
2022-07-15,0.42553729006449664,0.42553729006449664,0.0,0,False
2022-07-16,0.42553729006449664,0.42553729006449664,0.0,0,False
2022-07-17,0.42553729006449664,0.42553729006449664,0.0,0,False
2022-07-18,0.42553729006449664,0.42569635992304944,0.03738094457683694,1,True
2022-07-19,0.42569635992304944,0.4208735310089181,-1.1329269799260522,4,True
2022-07-20,0.4208735310089181,0.4196273344826609,-0.2960976242126323,3,True
2022-07-21,0.4196273344826609,0.41948349948939867,-0.03427684076861004,8,True
2022-07-22,0.41948349948939867,0.41948349948939867,0.0,0,False
2022-07-23,0.41948349948939867,0.4218445602210327,0.562849488599193,3,True
2022-07-24,0.4218445602210327,0.4238055975357155,0.4648720167578446,3,True
2022-07-25,0.4238055975357155,0.4240094070805596,0.04809033812418484,1,True
2022-07-26,0.4240094070805596,0.4232307498120243,-0.18364150783743982,1,True
2022-07-27,0.4232307498120243,0.42448469731216,0.29627986640683446,1,True
2022-07-28,0.42448469731216,0.42448469731216,0.0,0,False
2022-07-29,0.42448469731216,0.424044794040471,-0.10363230393802825,6,True
2022-07-30,0.424044794040471,0.4263509585260694,0.5438492626272717,2,True
2022-07-31,0.4263509585260694,0.42039016489312026,-1.3980955158529706,6,True
2022-08-01,0.42039016489312026,0.4197309876984259,-0.156801288360775,2,True
2022-08-02,0.4197309876984259,0.41046652098857245,-2.207239155882834,8,True
2022-08-03,0.41046652098857245,0.4149636578856412,1.0956160045008767,2,True
2022-08-04,0.4149636578856412,0.41415197836406126,-0.1956025560685748,0,True
2022-08-05,0.41415197836406126,0.4191754601704486,1.2129561293490854,2,True
2022-08-06,0.4191754601704486,0.4191754601704486,0.0,0,False
2022-08-07,0.4191754601704486,0.4185398541482575,-0.15163245050954233,2,True
2022-08-08,0.4185398541482575,0.4185398541482575,0.0,0,False
2022-08-09,0.4185398541482575,0.4182380764374301,-0.07210250298421705,7,True
2022-08-10,0.4182380764374301,0.4183792159105583,0.0337462036767322,2,True
2022-08-11,0.4183792159105583,0.4196824740514342,0.31150164523336965,3,True
2022-08-12,0.4196824740514342,0.418218131875129,-0.34891668507599505,5,True
2022-08-13,0.418218131875129,0.41664485378202765,-0.37618600753807074,0,True
2022-08-14,0.41664485378202765,0.41664485378202765,0.0,0,False
2022-08-15,0.41664485378202765,0.41670261937553765,0.013864468260105234,1,True
2022-08-16,0.41670261937553765,0.41256479575459104,-0.9929919872228021,2,True
2022-08-17,0.41256479575459104,0.41051397112031096,-0.49709152486679953,1,True
2022-08-18,0.41051397112031096,0.40847150100450896,-0.4975397329908149,1,True
2022-08-19,0.40847150100450896,0.3950354042647842,-3.2893596509628864,12,True
2022-08-20,0.3950354042647842,0.39450294894779325,-0.13478673335163283,2,True
2022-08-21,0.39450294894779325,0.39508053591195175,0.14640878241822808,1,True
2022-08-22,0.39508053591195175,0.39494057943096844,-0.03542479779730101,0,True
2022-08-23,0.39494057943096844,0.39494057943096844,0.0,0,False
2022-08-24,0.39494057943096844,0.39494057943096844,0.0,0,False
2022-08-25,0.39494057943096844,0.3934464707530488,-0.37831227170233017,1,True
2022-08-26,0.3934464707530488,0.39478281875708104,0.3396517959544765,1,True
2022-08-27,0.39478281875708104,0.38688594180981245,-2.000309175594528,7,True
2022-08-28,0.38688594180981245,0.38730601058313124,0.10857690288610389,1,True
2022-08-29,0.38730601058313124,0.38733953681009475,0.008656263018758104,2,True
2022-08-30,0.38733953681009475,0.38541567516874137,-0.4966861005713974,1,True
2022-08-31,0.38541567516874137,0.38469980610295346,-0.1857394786744182,2,True
2022-09-01,0.38469980610295346,0.38144985539911996,-0.8448017525030216,2,True
2022-09-02,0.38144985539911996,0.38144985539911996,0.0,0,False
2022-09-03,0.38144985539911996,0.38144985539911996,0.0,0,False
2022-09-04,0.38144985539911996,0.38144985539911996,0.0,0,False
2022-09-05,0.38144985539911996,0.38144985539911996,0.0,0,False
2022-09-06,0.38144985539911996,0.3795522508547786,-0.49747155949393385,1,True
2022-09-07,0.3795522508547786,0.37392351295443743,-1.4829942090093917,5,True
2022-09-08,0.37392351295443743,0.3734732529243027,-0.12041500856073695,2,True
2022-09-09,0.3734732529243027,0.3734732529243027,0.0,0,False
2022-09-10,0.3734732529243027,0.3740808094411622,0.162677383748977,2,True
2022-09-11,0.3740808094411622,0.3781352613633055,1.0838438700451425,0,True
2022-09-12,0.3781352613633055,0.3781352613633055,0.0,0,False
2022-09-13,0.3781352613633055,0.3719196656007466,-1.6437493134466186,7,True
2022-09-14,0.3719196656007466,0.37732410133769856,1.4531191106075037,5,True
2022-09-15,0.37732410133769856,0.3726843045337659,-1.2296582135844392,4,True
2022-09-16,0.3726843045337659,0.3725853087245845,-0.0265629134302392,3,True
2022-09-17,0.3725853087245845,0.3707311582420611,-0.497644549880516,1,True
2022-09-18,0.3707311582420611,0.3707311582420611,0.0,0,False
2022-09-19,0.3707311582420611,0.3762391391946122,1.4857075889355809,11,True
2022-09-20,0.3762391391946122,0.37586267166040754,-0.10006070474500861,0,True
2022-09-21,0.37586267166040754,0.37586267166040754,0.0,0,False
2022-09-22,0.37586267166040754,0.3784037233030022,0.6760585272725717,2,True
2022-09-23,0.3784037233030022,0.375421974802821,-0.7879807508642256,3,True
2022-09-24,0.375421974802821,0.375421974802821,0.0,0,False
2022-09-25,0.375421974802821,0.375421974802821,0.0,0,False
2022-09-26,0.375421974802821,0.375421974802821,0.0,0,False
2022-09-27,0.375421974802821,0.375421974802821,0.0,0,False
2022-09-28,0.375421974802821,0.375421974802821,0.0,0,False
2022-09-29,0.375421974802821,0.375421974802821,0.0,0,False
2022-09-30,0.375421974802821,0.3738418588404603,-0.42089064264035914,1,True
2022-10-01,0.3738418588404603,0.3738418588404603,0.0,0,False
2022-10-02,0.3738418588404603,0.3738418588404603,0.0,0,False
2022-10-03,0.3738418588404603,0.3738418588404603,0.0,0,False
2022-10-04,0.3738418588404603,0.3738418588404603,0.0,0,False
2022-10-05,0.3738418588404603,0.3738418588404603,0.0,0,False
2022-10-06,0.3738418588404603,0.3738418588404603,0.0,0,False
2022-10-07,0.3738418588404603,0.3738418588404603,0.0,0,False
2022-10-08,0.3738418588404603,0.3727781166324084,-0.2845433658368979,1,True
2022-10-09,0.3727781166324084,0.3727781166324084,0.0,0,False
2022-10-10,0.3727781166324084,0.37241555210517574,-0.09726014244290093,1,True
2022-10-11,0.37241555210517574,0.3787373504644548,1.6975119120411053,6,True
2022-10-12,0.3787373504644548,0.3766099977397426,-0.5616960466411358,2,True
2022-10-13,0.3766099977397426,0.37624056409048534,-0.0980944880577872,1,True
2022-10-14,0.37624056409048534,0.37624056409048534,0.0,0,False
2022-10-15,0.37624056409048534,0.37624056409048534,0.0,0,False
2022-10-16,0.37624056409048534,0.37624056409048534,0.0,0,False
2022-10-17,0.37624056409048534,0.37624056409048534,0.0,0,False
2022-10-18,0.37624056409048534,0.37624056409048534,0.0,0,False
2022-10-19,0.37624056409048534,0.37624056409048534,0.0,0,False
2022-10-20,0.37624056409048534,0.37923836031106745,0.7967764528072463,2,True
2022-10-21,0.37923836031106745,0.3787912252099163,-0.1179034475268681,0,True
2022-10-22,0.3787912252099163,0.3787912252099163,0.0,0,False
2022-10-23,0.3787912252099163,0.3787912252099163,0.0,0,False
2022-10-24,0.3787912252099163,0.3787912252099163,0.0,0,False
2022-10-25,0.3787912252099163,0.37747937873158394,-0.34632441065798325,2,True
2022-10-26,0.37747937873158394,0.37747937873158394,0.0,0,False
2022-10-27,0.37747937873158394,0.37747937873158394,0.0,0,False
2022-10-28,0.37747937873158394,0.3760452068207197,-0.37993384318989465,1,True
2022-10-29,0.3760452068207197,0.3760452068207197,0.0,0,False
2022-10-30,0.3760452068207197,0.3715863754068471,-1.1857168587707467,8,True
2022-10-31,0.3715863754068471,0.37320669960924396,0.43605587008479496,4,True
2022-11-01,0.37320669960924396,0.37050775692001703,-0.723176377072754,1,True
2022-11-02,0.37050775692001703,0.37576114000735406,1.4178874771766603,3,True
2022-11-03,0.37576114000735406,0.3799346052329754,1.1106697263957743,7,True
2022-11-04,0.3799346052329754,0.3823259899364159,0.629420081904386,14,True
2022-11-05,0.3823259899364159,0.3737465720122583,-2.2440059399530865,8,True
2022-11-06,0.3737465720122583,0.3718123264951992,-0.5175286308701343,2,True
2022-11-07,0.3718123264951992,0.3680844179896867,-1.0026317687347075,9,True
2022-11-08,0.3680844179896867,0.35830044871332123,-2.6580775491125586,16,True
2022-11-09,0.35830044871332123,0.3222950054091886,-10.048952892308783,35,True
2022-11-10,0.3222950054091886,0.3253578076288441,0.950310171815083,22,True
2022-11-11,0.3253578076288441,0.33255469387016195,2.2119912516523454,18,True
2022-11-12,0.33255469387016195,0.32743693425788517,-1.5389226814747303,12,True
2022-11-13,0.32743693425788517,0.3255592177888636,-0.5734589695195136,3,True
2022-11-14,0.3255592177888636,0.312168343122856,-4.113191681979044,12,True
2022-11-15,0.312168343122856,0.3117571584854997,-0.13171887746302735,3,True
2022-11-16,0.3117571584854997,0.31047074227750704,-0.41263405602038894,2,True
2022-11-17,0.31047074227750704,0.3093375552307902,-0.3649899627913955,3,True
2022-11-18,0.3093375552307902,0.31037376820703955,0.3349780712775807,0,True
2022-11-19,0.31037376820703955,0.3108422316137081,0.1509352447453205,3,True
2022-11-20,0.3108422316137081,0.30959609839820446,-0.40088929005381857,3,True
2022-11-21,0.30959609839820446,0.2991642520365779,-3.3695018818386435,9,True
2022-11-22,0.2991642520365779,0.30574626794893517,2.2001344972033987,5,True
2022-11-23,0.30574626794893517,0.31146507478576835,1.8704420744682038,1,True
2022-11-24,0.31146507478576835,0.3091478116697865,-0.7439881076797161,2,True
2022-11-25,0.3091478116697865,0.3083970195333117,-0.24285862882856835,3,True
2022-11-26,0.3083970195333117,0.3083970195333117,0.0,0,False
2022-11-27,0.3083970195333117,0.3083970195333117,0.0,0,False
2022-11-28,0.3083970195333117,0.3044184754500475,-1.290072157404376,6,True
2022-11-29,0.3044184754500475,0.3044184754500475,0.0,0,False
2022-11-30,0.3044184754500475,0.3044184754500475,0.0,0,False
2022-12-01,0.3044184754500475,0.3046702584942841,0.08270951487563405,1,True
2022-12-02,0.3046702584942841,0.3046992444864981,0.009513889658041563,2,True
2022-12-03,0.3046992444864981,0.3046992444864981,0.0,0,False
2022-12-04,0.3046992444864981,0.3028251115910054,-0.615076318502572,3,True
2022-12-05,0.3028251115910054,0.30575330273917284,0.9669578367471177,2,True
2022-12-06,0.30575330273917284,0.3066617528353441,0.29711865351336186,2,True
2022-12-07,0.3066617528353441,0.3065363197351063,-0.040902753303284634,2,True
2022-12-08,0.3065363197351063,0.3021841337857865,-1.419794546069042,2,True
2022-12-09,0.3021841337857865,0.3021841337857865,0.0,0,False
2022-12-10,0.3021841337857865,0.3021841337857865,0.0,0,False
2022-12-11,0.3021841337857865,0.3021841337857865,0.0,0,False
2022-12-12,0.3021841337857865,0.30147306350497755,-0.23531026328239557,1,True
2022-12-13,0.30147306350497755,0.30192291936116356,0.14921925393795998,1,True
2022-12-14,0.30192291936116356,0.30192291936116356,0.0,0,False
2022-12-15,0.30192291936116356,0.30192291936116356,0.0,0,False
2022-12-16,0.30192291936116356,0.3001829855466889,-0.5762841119038575,5,True
2022-12-17,0.3001829855466889,0.3010395140024768,0.2853354443883793,7,True
2022-12-18,0.3010395140024768,0.3010395140024768,0.0,0,False
2022-12-19,0.3010395140024768,0.29954055238426097,-0.497928527151259,1,True
2022-12-20,0.29954055238426097,0.29954055238426097,0.0,0,False
2022-12-21,0.29954055238426097,0.29954055238426097,0.0,0,False
2022-12-22,0.29954055238426097,0.29954055238426097,0.0,0,False
2022-12-23,0.29954055238426097,0.29954055238426097,0.0,0,False
2022-12-24,0.29954055238426097,0.29954055238426097,0.0,0,False
2022-12-25,0.29954055238426097,0.29954055238426097,0.0,0,False
2022-12-26,0.29954055238426097,0.29954055238426097,0.0,0,False
2022-12-27,0.29954055238426097,0.29954055238426097,0.0,0,False
2022-12-28,0.29954055238426097,0.30070038297640933,0.38720319600014097,4,True
2022-12-29,0.30070038297640933,0.29961128215845534,-0.3621880381972864,0,True
2022-12-30,0.29961128215845534,0.3038285550024756,1.4075814547563903,1,True
2022-12-31,0.3038285550024756,0.3038285550024756,0.0,0,False
2023-01-01,0.3038285550024756,0.3038285550024756,0.0,0,False
2023-01-02,0.3038285550024756,0.30341699352188123,-0.1354584596536701,1,True
2023-01-03,0.30341699352188123,0.30363575211698424,0.07209833324224313,0,True
2023-01-04,0.30363575211698424,0.30363575211698424,0.0,0,False
2023-01-05,0.30363575211698424,0.30363575211698424,0.0,0,False
2023-01-06,0.30363575211698424,0.3031521477678482,-0.15927121419802015,1,True
2023-01-07,0.3031521477678482,0.3029426186675086,-0.06911681209663678,0,True
2023-01-08,0.3029426186675086,0.3029426186675086,0.0,0,False
2023-01-09,0.3029426186675086,0.3028189047075496,-0.040837423437867226,1,True
2023-01-10,0.3028189047075496,0.2983915271404807,-1.462054547533842,6,True
2023-01-11,0.2983915271404807,0.29562051936059647,-0.928648278467914,3,True
2023-01-12,0.29562051936059647,0.29562051936059647,0.0,0,False
2023-01-13,0.29562051936059647,0.29550287773435774,-0.03979481075711,1,True
2023-01-14,0.29550287773435774,0.293157342811507,-0.7937435130358494,5,True
2023-01-15,0.293157342811507,0.2920066567650801,-0.3925148302243886,4,True
2023-01-16,0.2920066567650801,0.292576173877661,0.19503566079286383,2,True
2023-01-17,0.292576173877661,0.2914675803159601,-0.37890766941414133,0,True
2023-01-18,0.2914675803159601,0.2914675803159601,0.0,0,False
2023-01-19,0.2914675803159601,0.28568766912192256,-1.9830374231576409,9,True
2023-01-20,0.28568766912192256,0.28568766912192256,0.0,0,False
2023-01-21,0.28568766912192256,0.285258079891353,-0.15037023890108747,3,True
2023-01-22,0.285258079891353,0.288208021801443,1.0341308863936804,2,True
2023-01-23,0.288208021801443,0.2862924271320124,-0.6646569576575834,2,True
2023-01-24,0.2862924271320124,0.2860616731811393,-0.08060078751811472,4,True
2023-01-25,0.2860616731811393,0.28284276552419646,-1.1252495383764827,11,True
2023-01-26,0.28284276552419646,0.2821375000460449,-0.24934895430134274,4,True
2023-01-27,0.2821375000460449,0.2812590012332416,-0.3113725799157918,3,True
2023-01-28,0.2812590012332416,0.2807612729999306,-0.1769643748746219,0,True
2023-01-29,0.2807612729999306,0.2796190176171957,-0.40684221528485276,1,True
2023-01-30,0.2796190176171957,0.2790487474890661,-0.20394540149279994,5,True
2023-01-31,0.2790487474890661,0.28101508947995874,0.7046589560376626,6,True
2023-02-01,0.28101508947995874,0.2788955455420477,-0.7542455965028116,2,True
2023-02-02,0.2788955455420477,0.2788955455420477,0.0,0,False
2023-02-03,0.2788955455420477,0.2770114686468134,-0.6755492962687848,4,True
2023-02-04,0.2770114686468134,0.2770114686468134,0.0,0,False
2023-02-05,0.2770114686468134,0.27859178702580717,0.5704884302132118,6,True
2023-02-06,0.27859178702580717,0.2729446651605047,-2.027023813440476,3,True
2023-02-07,0.2729446651605047,0.2721102036456629,-0.30572552658286734,0,True
2023-02-08,0.2721102036456629,0.2682002608927243,-1.4368967795232224,5,True
2023-02-09,0.2682002608927243,0.2623212225305136,-2.192033051214004,10,True
2023-02-10,0.2623212225305136,0.2585162507662202,-1.4505009269125346,11,True
2023-02-11,0.2585162507662202,0.25962957874867804,0.4306607337674295,4,True
2023-02-12,0.25962957874867804,0.25834637266761284,-0.4942449497664314,2,True
2023-02-13,0.25834637266761284,0.26157870537460653,1.2511624117720332,3,True
2023-02-14,0.26157870537460653,0.26126268405718356,-0.1208130902591642,1,True
2023-02-15,0.26126268405718356,0.2615702251597404,0.11771336716785985,0,True
2023-02-16,0.2615702251597404,0.2615702251597404,0.0,0,False
2023-02-17,0.2615702251597404,0.2619184111599833,0.13311377471587615,1,True
2023-02-18,0.2619184111599833,0.26134023597592176,-0.2207462932830584,1,True
2023-02-19,0.26134023597592176,0.2618111331839332,0.18018549889684543,2,True
2023-02-20,0.2618111331839332,0.2591908844633383,-1.0008163857394226,6,True
2023-02-21,0.2591908844633383,0.25595293035795813,-1.2492546225475687,9,True
2023-02-22,0.25595293035795813,0.2514967915595602,-1.740999328339754,6,True
2023-02-23,0.2514967915595602,0.25449666062339393,1.1928060971399423,2,True
2023-02-24,0.25449666062339393,0.2529533755969424,-0.6064067884707036,1,True
2023-02-25,0.2529533755969424,0.24987540051688642,-1.2168151829531126,3,True
2023-02-26,0.24987540051688642,0.24898999010029518,-0.3543407693433198,2,True
2023-02-27,0.24898999010029518,0.247749463051991,-0.49822366264784534,1,True
2023-02-28,0.247749463051991,0.24579592471114756,-0.788513652775702,3,True
2023-03-01,0.24579592471114756,0.24478448023632793,-0.4114976584775554,1,True
2023-03-02,0.24478448023632793,0.24455165903827064,-0.09511272848364838,1,True
2023-03-03,0.24455165903827064,0.24366703512610347,-0.3617329424981497,9,True
2023-03-04,0.24366703512610347,0.24336647549812723,-0.12334849801109993,0,True
2023-03-05,0.24336647549812723,0.2453202158426603,0.8027976493204747,4,True
2023-03-06,0.2453202158426603,0.2453202158426603,0.0,0,False
2023-03-07,0.2453202158426603,0.2453202158426603,0.0,0,False
2023-03-08,0.2453202158426603,0.2453202158426603,0.0,0,False
2023-03-09,0.2453202158426603,0.2453202158426603,0.0,0,False
2023-03-10,0.2453202158426603,0.23910180923131302,-2.53481213930431,12,True
2023-03-11,0.23910180923131302,0.23962136528180172,0.21729490552957476,7,True
2023-03-12,0.23962136528180172,0.24019905311822914,0.24108360944694596,0,True
2023-03-13,0.24019905311822914,0.24019905311822914,0.0,0,False
2023-03-14,0.24019905311822914,0.2398896361328175,-0.1288169047274912,1,True
2023-03-15,0.2398896361328175,0.23818588062114335,-0.7102247263115813,7,True
2023-03-16,0.23818588062114335,0.23916140106356282,0.40956266587905965,7,True
2023-03-17,0.23916140106356282,0.2372725910262192,-0.7897637448785577,2,True
2023-03-18,0.2372725910262192,0.2402102721002527,1.238103845592886,3,True
2023-03-19,0.2402102721002527,0.236695648761735,-1.46314448078676,4,True
2023-03-20,0.236695648761735,0.23787748483225432,0.4993062089236,6,True
2023-03-21,0.23787748483225432,0.23740833502515238,-0.19722329224759472,2,True
2023-03-22,0.23740833502515238,0.23740833502515238,0.0,0,False
2023-03-23,0.23740833502515238,0.23986791688636588,1.036013272639691,8,True
2023-03-24,0.23986791688636588,0.2384791995961515,-0.5789508277058486,1,True
2023-03-25,0.2384791995961515,0.23734808706698432,-0.47430238405807845,1,True
2023-03-26,0.23734808706698432,0.23734808706698432,0.0,0,False
2023-03-27,0.23734808706698432,0.23616673207634614,-0.4977309930055518,1,True
2023-03-28,0.23616673207634614,0.24096422539171125,2.0314009823425128,4,True
2023-03-29,0.24096422539171125,0.24117936195311762,0.08928153590295196,1,True
2023-03-30,0.24117936195311762,0.2435318103407197,0.9753937354139541,3,True
2023-03-31,0.2435318103407197,0.2435318103407197,0.0,0,False
2023-04-01,0.2435318103407197,0.24327068936457044,-0.1072225331811616,1,True
2023-04-02,0.24327068936457044,0.24280647944788747,-0.19082032360556722,0,True
2023-04-03,0.24280647944788747,0.24280647944788747,0.0,0,False
2023-04-04,0.24280647944788747,0.24039313401453327,-0.9939378219402717,2,True
2023-04-05,0.24039313401453327,0.23978520082541874,-0.25289124483803826,2,True
2023-04-06,0.23978520082541874,0.23655118653379328,-1.3487130483836873,5,True
2023-04-07,0.23655118653379328,0.23553065104623266,-0.4314226880509975,1,True
2023-04-08,0.23553065104623266,0.23474924337428535,-0.3317647484419872,1,True
2023-04-09,0.23474924337428535,0.23474924337428535,0.0,0,False
2023-04-10,0.23474924337428535,0.23474924337428535,0.0,0,False
2023-04-11,0.23474924337428535,0.23474924337428535,0.0,0,False
2023-04-12,0.23474924337428535,0.23650762142454748,0.7490452471697884,1,True
2023-04-13,0.23650762142454748,0.23656162713624246,0.022834660198123302,0,True
2023-04-14,0.23656162713624246,0.23877309659907667,0.9348386251843532,2,True
2023-04-15,0.23877309659907667,0.23880902418712477,0.015046748800351395,1,True
2023-04-16,0.23880902418712477,0.23824870076233878,-0.23463243346572016,1,True
2023-04-17,0.23824870076233878,0.23825576124036774,0.002963490674390279,3,True
2023-04-18,0.23825576124036774,0.23825576124036774,0.0,0,False
2023-04-19,0.23825576124036774,0.23481201849383004,-1.4453974706044703,10,True
2023-04-20,0.23481201849383004,0.23302667458755438,-0.7603290145570485,0,True
2023-04-21,0.23302667458755438,0.2325247253782692,-0.21540418502457026,1,True
2023-04-22,0.2325247253782692,0.2317392195765825,-0.3378160324278845,1,True
2023-04-23,0.2317392195765825,0.2317392195765825,0.0,0,False
2023-04-24,0.2317392195765825,0.2317392195765825,0.0,0,False
2023-04-25,0.2317392195765825,0.2317392195765825,0.0,0,False
2023-04-26,0.2317392195765825,0.2317392195765825,0.0,0,False
2023-04-27,0.2317392195765825,0.23009089205269015,-0.7112855246962813,12,True
2023-04-28,0.23009089205269015,0.23009089205269015,0.0,0,False
2023-04-29,0.23009089205269015,0.22894508088980076,-0.49798197254457,1,True
2023-04-30,0.22894508088980076,0.22894508088980076,0.0,0,False
2023-05-01,0.22894508088980076,0.22894508088980076,0.0,0,False
2023-05-02,0.22894508088980076,0.22894508088980076,0.0,0,False
2023-05-03,0.22894508088980076,0.22894508088980076,0.0,0,False
2023-05-04,0.22894508088980076,0.22894508088980076,0.0,0,False
2023-05-05,0.22894508088980076,0.22894508088980076,0.0,0,False
2023-05-06,0.22894508088980076,0.22667026490470116,-0.9936077142424171,2,True
2023-05-07,0.22667026490470116,0.22667026490470116,0.0,0,False
2023-05-08,0.22667026490470116,0.23140746830165065,2.089909498690168,6,True
2023-05-09,0.23140746830165065,0.2309450666427937,-0.19982140691076067,6,True
2023-05-10,0.2309450666427937,0.23019908953400964,-0.3230106274311084,2,True
2023-05-11,0.23019908953400964,0.2359719214959263,2.507756209463108,6,True
2023-05-12,0.2359719214959263,0.23497997200338633,-0.4203675955391617,0,True
2023-05-13,0.23497997200338633,0.23466139154720572,-0.13557770624639254,1,True
2023-05-14,0.23466139154720572,0.23466139154720572,0.0,0,False
2023-05-15,0.23466139154720572,0.23466139154720572,0.0,0,False
2023-05-16,0.23466139154720572,0.23466139154720572,0.0,0,False
2023-05-17,0.23466139154720572,0.23466139154720572,0.0,0,False
2023-05-18,0.23466139154720572,0.23429460478862277,-0.15630468913723217,1,True
2023-05-19,0.23429460478862277,0.23429460478862277,0.0,0,False
2023-05-20,0.23429460478862277,0.23429460478862277,0.0,0,False
2023-05-21,0.23429460478862277,0.23429460478862277,0.0,0,False
2023-05-22,0.23429460478862277,0.23369721874625957,-0.2549721718526743,1,True
2023-05-23,0.23369721874625957,0.23369721874625957,0.0,0,False
2023-05-24,0.23369721874625957,0.23253296605039497,-0.4981885116607687,1,True
2023-05-25,0.23253296605039497,0.23193615483791555,-0.2566566034125639,1,True
2023-05-26,0.23193615483791555,0.23282536482186475,0.3833856711863648,1,True
2023-05-27,0.23282536482186475,0.23144319498519933,-0.5936508840962973,2,True
2023-05-28,0.23144319498519933,0.23144319498519933,0.0,0,False
2023-05-29,0.23144319498519933,0.23258224526142487,0.49215111997498173,1,True
2023-05-30,0.23258224526142487,0.2364826931468756,1.6770187599945752,5,True
2023-05-31,0.2364826931468756,0.23801962144256972,0.6499115327393445,2,True
2023-06-01,0.23801962144256972,0.2392017114627821,0.49663553493954904,0,True
2023-06-02,0.2392017114627821,0.24485123320798063,2.361823295765819,2,True
2023-06-03,0.24485123320798063,0.2462861685691919,0.586043754981791,4,True
2023-06-04,0.2462861685691919,0.24369053008695568,-1.0539115928903553,4,True
2023-06-05,0.24369053008695568,0.2425655387269239,-0.4616475493037564,1,True
2023-06-06,0.2425655387269239,0.2331498122501319,-3.881724719104507,12,True
2023-06-07,0.2331498122501319,0.23104056179973156,-0.9046760235592477,2,True
2023-06-08,0.23104056179973156,0.22898486476583776,-0.8897559016826206,4,True
2023-06-09,0.22898486476583776,0.22802079325745805,-0.42101975139954284,1,True
2023-06-10,0.22802079325745805,0.2357930143896142,3.4085580622380096,8,True
2023-06-11,0.2357930143896142,0.23557410182370916,-0.09284098872551771,1,True
2023-06-12,0.23557410182370916,0.23557410182370916,0.0,0,False
2023-06-13,0.23557410182370916,0.23417334408378127,-0.59461448821575,2,True
2023-06-14,0.23417334408378127,0.23417334408378127,0.0,0,False
2023-06-15,0.23417334408378127,0.2344818661211916,0.131749426313843,7,True
2023-06-16,0.2344818661211916,0.23409477647571592,-0.16508297715253084,0,True
2023-06-17,0.23409477647571592,0.23365200694321242,-0.18914114153650852,1,True
2023-06-18,0.23365200694321242,0.23365200694321242,0.0,0,False
2023-06-19,0.23365200694321242,0.23546721803953932,0.7768865844872019,1,True
2023-06-20,0.23546721803953932,0.23614997118365763,0.2899567718185114,1,True
2023-06-21,0.23614997118365763,0.23614997118365763,0.0,0,False
2023-06-22,0.23614997118365763,0.2430103617798432,2.905099061329186,6,True
2023-06-23,0.2430103617798432,0.24327246170122388,0.10785545087914628,0,True
2023-06-24,0.24327246170122388,0.24298349262055613,-0.1187841314413296,1,True
2023-06-25,0.24298349262055613,0.24033868757408838,-1.0884710800490027,8,True
2023-06-26,0.24033868757408838,0.24033868757408838,0.0,0,False
2023-06-27,0.24033868757408838,0.24033868757408838,0.0,0,False
2023-06-28,0.24033868757408838,0.24033868757408838,0.0,0,False
2023-06-29,0.24033868757408838,0.24069675200323415,0.14898326722174726,2,True
2023-06-30,0.24069675200323415,0.2365000779795975,-1.7435524113679213,10,True
2023-07-01,0.2365000779795975,0.23876680251757387,0.9584455774141132,4,True
2023-07-02,0.23876680251757387,0.23876680251757387,0.0,0,False
2023-07-03,0.23876680251757387,0.23876680251757387,0.0,0,False
2023-07-04,0.23876680251757387,0.23830769955228068,-0.19228090356464556,1,True
2023-07-05,0.23830769955228068,0.23715777783144912,-0.48253653700319754,2,True
2023-07-06,0.23715777783144912,0.23816901389966957,0.4263980196926864,4,True
2023-07-07,0.23816901389966957,0.2378910949938869,-0.11668978312172618,0,True
2023-07-08,0.2378910949938869,0.2378910949938869,0.0,0,False
2023-07-09,0.2378910949938869,0.2378910949938869,0.0,0,False
2023-07-10,0.2378910949938869,0.23776048705512948,-0.05490240765875232,1,True
2023-07-11,0.23776048705512948,0.23776048705512948,0.0,0,False
2023-07-12,0.23776048705512948,0.23748035561352673,-0.11782085622065175,1,True
2023-07-13,0.23748035561352673,0.23748035561352673,0.0,0,False
2023-07-14,0.23748035561352673,0.2362958523523654,-0.4987794708750548,1,True
2023-07-15,0.2362958523523654,0.23647941208185272,0.07768216312726839,7,True
2023-07-16,0.23647941208185272,0.2358657280451494,-0.2595084414751869,2,True
2023-07-17,0.2358657280451494,0.23285523698264496,-1.276357988697785,3,True
2023-07-18,0.23285523698264496,0.22942542699988694,-1.4729365880715162,2,True
2023-07-19,0.22942542699988694,0.22852750077461104,-0.39138043111339726,1,True
2023-07-20,0.22852750077461104,0.22778147631245144,-0.3264484403981527,2,True
2023-07-21,0.22778147631245144,0.22778147631245144,0.0,0,False
2023-07-22,0.22778147631245144,0.22778147631245144,0.0,0,False
2023-07-23,0.22778147631245144,0.22778147631245144,0.0,0,False
2023-07-24,0.22778147631245144,0.22493132130474025,-1.2512672469474961,8,True
2023-07-25,0.22493132130474025,0.22438062497592634,-0.24482865508437257,0,True
2023-07-26,0.22438062497592634,0.22438062497592634,0.0,0,False
2023-07-27,0.22438062497592634,0.22438062497592634,0.0,0,False
2023-07-28,0.22438062497592634,0.22438062497592634,0.0,0,False
2023-07-29,0.22438062497592634,0.22438062497592634,0.0,0,False
2023-07-30,0.22438062497592634,0.22438062497592634,0.0,0,False
2023-07-31,0.22438062497592634,0.22326399414882367,-0.49765028830919267,1,True
2023-08-01,0.22326399414882367,0.224872106451004,0.7202739108520984,3,True
2023-08-02,0.224872106451004,0.22466116082268364,-0.09380693392772033,0,True
2023-08-03,0.22466116082268364,0.22466116082268364,0.0,0,False
2023-08-04,0.22466116082268364,0.22466116082268364,0.0,0,False
2023-08-05,0.22466116082268364,0.22466116082268364,0.0,0,False
2023-08-06,0.22466116082268364,0.2250471376282807,0.1718039754551537,1,True
2023-08-07,0.2250471376282807,0.22434392468155093,-0.31247362403307166,3,True
2023-08-08,0.22434392468155093,0.2215981378934643,-1.22391849566873,5,True
2023-08-09,0.2215981378934643,0.2210305425433224,-0.2561372381273186,0,True
2023-08-10,0.2210305425433224,0.21992981947544513,-0.4979959127872746,1,True
2023-08-11,0.21992981947544513,0.21992981947544513,0.0,0,False
2023-08-12,0.21992981947544513,0.21992981947544513,0.0,0,False
2023-08-13,0.21992981947544513,0.22096132036314764,0.46901365633944536,2,True
2023-08-14,0.22096132036314764,0.21950830846853575,-0.6575865369666811,8,True
2023-08-15,0.21950830846853575,0.21763831577843104,-0.851900642463721,2,True
2023-08-16,0.21763831577843104,0.22060292776107468,1.3621737385901334,8,True
2023-08-17,0.22060292776107468,0.2170949364476424,-1.5901834798999648,8,True
2023-08-18,0.2170949364476424,0.22974558916313714,5.827244486904815,7,True
2023-08-19,0.22974558916313714,0.23080290311775856,0.46021077421889434,3,True
2023-08-20,0.23080290311775856,0.2297029721902323,-0.47656719766867583,1,True
2023-08-21,0.2297029721902323,0.2288646137211529,-0.36497502016870076,1,True
2023-08-22,0.2288646137211529,0.22851689510282028,-0.15193201459982042,4,True
2023-08-23,0.22851689510282028,0.2294244915901692,0.3971682211683092,1,True
2023-08-24,0.2294244915901692,0.2294244915901692,0.0,0,False
2023-08-25,0.2294244915901692,0.22846213814381744,-0.4194641294316792,9,True
2023-08-26,0.22846213814381744,0.22897245411420716,0.22337004045216435,2,True
2023-08-27,0.22897245411420716,0.22897245411420716,0.0,0,False
2023-08-28,0.22897245411420716,0.2277700369714781,-0.5251361555173473,2,True
2023-08-29,0.2277700369714781,0.22984238538518023,0.9098424188084264,3,True
2023-08-30,0.22984238538518023,0.22908078230756818,-0.33135884677480965,3,True
2023-08-31,0.22908078230756818,0.22958081100021294,0.2182761415461698,3,True
2023-09-01,0.22958081100021294,0.2300734186760294,0.2145683141680399,4,True
2023-09-02,0.2300734186760294,0.2275186269613387,-1.1104245459525042,4,True
2023-09-03,0.2275186269613387,0.22671646100430073,-0.3525715532620044,4,True
2023-09-04,0.22671646100430073,0.22528045511169742,-0.633392867126692,7,True
2023-09-05,0.22528045511169742,0.22618166805464315,0.4000404484707287,2,True
2023-09-06,0.22618166805464315,0.23400059605351228,3.4569238374261957,5,True
2023-09-07,0.23400059605351228,0.23264438495474074,-0.5795759163200631,3,True
2023-09-08,0.23264438495474074,0.23474956808993258,0.9048931637019253,12,True
2023-09-09,0.23474956808993258,0.2310085764020083,-1.5936096148603363,8,True
2023-09-10,0.2310085764020083,0.22687667150484797,-1.7886370114544414,7,True
2023-09-11,0.22687667150484797,0.2259654965745028,-0.4016168450909685,1,True
2023-09-12,0.2259654965745028,0.2249497737222847,-0.44950351607472294,2,True
2023-09-13,0.2249497737222847,0.22458555431285382,-0.16191143623044413,2,True
2023-09-14,0.22458555431285382,0.22373539738635467,-0.3785447951451304,4,True
2023-09-15,0.22373539738635467,0.2228410678238474,-0.39972645051015165,1,True
2023-09-16,0.2228410678238474,0.22643388043916576,1.6122758028418893,8,True
2023-09-17,0.22643388043916576,0.22704005694398674,0.26770574423107263,5,True
2023-09-18,0.22704005694398674,0.22320092220542992,-1.6909503944953497,4,True
2023-09-19,0.22320092220542992,0.22507216754973197,0.838368106104781,1,True
2023-09-20,0.22507216754973197,0.22630856242564135,0.5493326382242092,3,True
2023-09-21,0.22630856242564135,0.22985361166914375,1.5664671303222244,2,True
2023-09-22,0.22985361166914375,0.23425252582085487,1.913789441796121,1,True
2023-09-23,0.23425252582085487,0.23308429201948294,-0.49870702451478843,1,True
2023-09-24,0.23308429201948294,0.2328698723419424,-0.0919923327662997,1,True
2023-09-25,0.2328698723419424,0.23194271788223475,-0.3981427268299531,1,True
2023-09-26,0.23194271788223475,0.23226692624853854,0.13977949782773003,1,True
2023-09-27,0.23226692624853854,0.23012332095037122,-0.9229059568616971,1,True
2023-09-28,0.23012332095037122,0.23055538457622266,0.1877530812901096,3,True
2023-09-29,0.23055538457622266,0.22878990055809595,-0.7657526721276953,2,True
2023-09-30,0.22878990055809595,0.22878990055809595,0.0,0,False
2023-10-01,0.22878990055809595,0.2285639097008478,-0.09877658790745647,1,True
2023-10-02,0.2285639097008478,0.2281460359045426,-0.1828257999489602,1,True
2023-10-03,0.2281460359045426,0.2291796654411814,0.45305610178179023,2,True
2023-10-04,0.2291796654411814,0.22601508506693826,-1.380829476363521,7,True
2023-10-05,0.22601508506693826,0.2245271066532832,-0.6583535843257438,2,True
2023-10-06,0.2245271066532832,0.2245271066532832,0.0,0,False
2023-10-07,0.2245271066532832,0.2234318735412711,-0.48779549531334787,1,True
2023-10-08,0.2234318735412711,0.22287412831565784,-0.24962652676777664,1,True
2023-10-09,0.22287412831565784,0.22016901860030627,-1.213738775242812,5,True
2023-10-10,0.22016901860030627,0.21862066650724535,-0.7032561179153851,1,True
2023-10-11,0.21862066650724535,0.21862066650724535,0.0,0,False
2023-10-12,0.21862066650724535,0.21862066650724535,0.0,0,False
2023-10-13,0.21862066650724535,0.21862066650724535,0.0,0,False
2023-10-14,0.21862066650724535,0.21862066650724535,0.0,0,False
2023-10-15,0.21862066650724535,0.218635508462304,0.006788907606858352,1,True
2023-10-16,0.218635508462304,0.219027263275534,0.1791816965072579,2,True
2023-10-17,0.219027263275534,0.21838955484847902,-0.2911548167648714,2,True
2023-10-18,0.21838955484847902,0.21676483813358285,-0.743953489910909,4,True
2023-10-19,0.21676483813358285,0.21293036863959078,-1.7689536398099115,5,True
2023-10-20,0.21293036863959078,0.21293036863959078,0.0,0,False
2023-10-21,0.21293036863959078,0.21387845883547682,0.4452583264394683,2,True
2023-10-22,0.21387845883547682,0.21669295263332133,1.3159314000899647,1,True
2023-10-23,0.21669295263332133,0.21669295263332133,0.0,0,False
2023-10-24,0.21669295263332133,0.21488079876462332,-0.8362772516023909,9,True
2023-10-25,0.21488079876462332,0.22061978347659636,2.6707759580973267,9,True
2023-10-26,0.22061978347659636,0.22330492140924987,1.2170884633917467,10,True
2023-10-27,0.22330492140924987,0.2230692731247324,-0.10552758220926384,7,True
2023-10-28,0.2230692731247324,0.22486513246117498,0.805068000306064,2,True
2023-10-29,0.22486513246117498,0.22486513246117498,0.0,0,False
2023-10-30,0.22486513246117498,0.2239641993387722,-0.40065487812270817,2,True
2023-10-31,0.2239641993387722,0.22240577749383156,-0.6958352493575792,7,True
2023-11-01,0.22240577749383156,0.2241767321532914,0.7962718772037913,5,True
2023-11-02,0.2241767321532914,0.22282938589025145,-0.6010196732275652,6,True
2023-11-03,0.22282938589025145,0.2201511848832552,-1.2019065601676648,2,True
2023-11-04,0.2201511848832552,0.2191393261175674,-0.4596199499105058,4,True
2023-11-05,0.2191393261175674,0.2153016043616923,-1.7512702187539753,6,True
2023-11-06,0.2153016043616923,0.21158923440692304,-1.7242648821755746,6,True
2023-11-07,0.21158923440692304,0.2080070144710663,-1.6930067098628987,5,True
2023-11-08,0.2080070144710663,0.2080070144710663,0.0,0,False
2023-11-09,0.2080070144710663,0.20671440216982212,-0.6214272651002162,6,True
2023-11-10,0.20671440216982212,0.20351491589130213,-1.54778101812737,12,True
2023-11-11,0.20351491589130213,0.19993454923957066,-1.7592649836259522,7,True
2023-11-12,0.19993454923957066,0.204288764146591,2.177820153435772,7,True
2023-11-13,0.204288764146591,0.2021031515915319,-1.06986429928706,4,True
2023-11-14,0.2021031515915319,0.20194752345902178,-0.0770043075946858,11,True
2023-11-15,0.20194752345902178,0.20053933322959588,-0.6973050252392143,3,True
2023-11-16,0.20053933322959588,0.20045027292331463,-0.04441039313684003,5,True
2023-11-17,0.20045027292331463,0.20237335729505482,0.9593822665813434,5,True
2023-11-18,0.20237335729505482,0.19974691252256208,-1.2978214166123991,6,True
2023-11-19,0.19974691252256208,0.19694279617585936,-1.4038346381879507,4,True
2023-11-20,0.19694279617585936,0.19679996721323395,-0.07252307035280348,2,True
2023-11-21,0.19679996721323395,0.1915866916088126,-2.6490225980438042,6,True
2023-11-22,0.1915866916088126,0.19202558836682102,0.22908520123339216,6,True
2023-11-23,0.19202558836682102,0.19113811001655062,-0.46216671320650216,3,True
2023-11-24,0.19113811001655062,0.19582361673671592,2.451372319083611,1,True
2023-11-25,0.19582361673671592,0.1952896215706684,-0.27269191272545346,5,True
2023-11-26,0.1952896215706684,0.19662048003895757,0.6814793625925297,1,True
2023-11-27,0.19662048003895757,0.19713808100822114,0.2632487567729491,7,True
2023-11-28,0.19713808100822114,0.19503198055214316,-1.0683377079186207,5,True
2023-11-29,0.19503198055214316,0.19471357073457887,-0.16326031077715797,3,True
2023-11-30,0.19471357073457887,0.19346196523701725,-0.6427931514171314,4,True
2023-12-01,0.19346196523701725,0.19346196523701725,0.0,0,False
2023-12-02,0.19346196523701725,0.19346196523701725,0.0,0,False
2023-12-03,0.19346196523701725,0.19409045855659612,0.3248666055929217,5,True
2023-12-04,0.19409045855659612,0.2008630838577765,3.4894169201035163,8,True
2023-12-05,0.2008630838577765,0.202916978115875,1.022534464099345,9,True
2023-12-06,0.202916978115875,0.19880094646326762,-2.028431376627804,11,True
2023-12-07,0.19880094646326762,0.19532264667323815,-1.7496394518786484,7,True
2023-12-08,0.19532264667323815,0.19476810193888708,-0.2839121544767842,2,True
2023-12-09,0.19476810193888708,0.19476810193888708,0.0,0,False
2023-12-10,0.19476810193888708,0.19407651573530643,-0.35508186232551253,3,True
2023-12-11,0.19407651573530643,0.1952662963820162,0.6130472005858145,8,True
2023-12-12,0.1952662963820162,0.19770119042551235,1.2469607344487876,1,True
2023-12-13,0.19770119042551235,0.19641087491384895,-0.6526594548501463,7,True
2023-12-14,0.19641087491384895,0.1997949780099727,1.7229713464736118,3,True
2023-12-15,0.1997949780099727,0.19690368738837305,-1.4471287769081687,4,True
2023-12-16,0.19690368738837305,0.1981959497442181,0.6562915976764616,5,True
2023-12-17,0.1981959497442181,0.19624459286835674,-0.9845594112188771,6,True
2023-12-18,0.19624459286835674,0.19623056170438283,-0.007149834687836254,9,True
2023-12-19,0.19623056170438283,0.1954576623747502,-0.3938730659075351,4,True
2023-12-20,0.1954576623747502,0.1945829536161783,-0.44751827477340633,2,True
2023-12-21,0.1945829536161783,0.1925843649407081,-1.0271139574808186,3,True
2023-12-22,0.1925843649407081,0.19192741725161874,-0.3411220268538462,2,True
2023-12-23,0.19192741725161874,0.19163000370715216,-0.1549614686247036,3,True
2023-12-24,0.19163000370715216,0.19491025002886198,1.7117602975798452,4,True
2023-12-25,0.19491025002886198,0.19162763383142045,-1.684168070666081,6,True
2023-12-26,0.19162763383142045,0.18927359014211992,-1.2284468801464388,4,True
2023-12-27,0.18927359014211992,0.18707280846774096,-1.1627515876496353,13,True
2023-12-28,0.18707280846774096,0.18473764576417498,-1.2482640971141823,8,True
2023-12-29,0.18473764576417498,0.18588969453767792,0.6236134323014841,4,True
2023-12-30,0.18588969453767792,0.18187665678165746,-2.158827451947354,4,True
2023-12-31,0.18187665678165746,0.17933928772472374,-1.3951042986125595,3,True
