day,start_equity,end_equity,return_pct,entries,active
2021-09-02,1.0,1.0,0.0,0,False
2021-09-03,1.0,1.0,0.0,0,False
2021-09-04,1.0,1.0,0.0,0,False
2021-09-05,1.0,1.0,0.0,0,False
2021-09-06,1.0,1.0,0.0,0,False
2021-09-07,1.0,1.0,0.0,0,False
2021-09-08,1.0,1.0,0.0,0,False
2021-09-09,1.0,1.0,0.0,0,False
2021-09-10,1.0,1.0,0.0,0,False
2021-09-11,1.0,1.0,0.0,0,False
2021-09-12,1.0,1.0,0.0,0,False
2021-09-13,1.0,1.0,0.0,0,False
2021-09-14,1.0,1.0,0.0,0,False
2021-09-15,1.0,1.0,0.0,0,False
2021-09-16,1.0,1.0,0.0,0,False
2021-09-17,1.0,1.0,0.0,0,False
2021-09-18,1.0,1.0,0.0,0,False
2021-09-19,1.0,1.0,0.0,0,False
2021-09-20,1.0,1.0,0.0,0,False
2021-09-21,1.0,1.0,0.0,0,False
2021-09-22,1.0,1.0,0.0,0,False
2021-09-23,1.0,1.0,0.0,0,False
2021-09-24,1.0,1.0,0.0,0,False
2021-09-25,1.0,1.0,0.0,0,False
2021-09-26,1.0,1.0,0.0,0,False
2021-09-27,1.0,1.0,0.0,0,False
2021-09-28,1.0,1.0,0.0,0,False
2021-09-29,1.0,1.0,0.0,0,False
2021-09-30,1.0,1.0,0.0,0,False
2021-10-01,1.0,1.0,0.0,0,False
2021-10-02,1.0,1.0,0.0,0,False
2021-10-03,1.0,1.0,0.0,0,False
2021-10-04,1.0,1.0,0.0,0,False
2021-10-05,1.0,0.9991229226558256,-0.08770773441744151,1,True
2021-10-06,0.9991229226558256,1.0033725966581526,0.4253404567108321,5,True
2021-10-07,1.0033725966581526,0.9914056055286204,-1.1926766955156598,2,True
2021-10-08,0.9914056055286204,0.9905678565864424,-0.08450113026456929,1,True
2021-10-09,0.9905678565864424,0.9913983547343971,0.08384061146669008,4,True
2021-10-10,0.9913983547343971,0.985979954229814,-0.5465412040183137,1,True
2021-10-11,0.985979954229814,0.985979954229814,0.0,0,False
2021-10-12,0.985979954229814,0.985979954229814,0.0,0,False
2021-10-13,0.985979954229814,1.0033611785091094,1.762837490227942,4,True
2021-10-14,1.0033611785091094,1.0181662251607615,1.4755450947036675,1,True
2021-10-15,1.0181662251607615,1.0190498273482689,0.08678368675683057,6,True
2021-10-16,1.0190498273482689,1.0543111568615888,3.460216425832252,4,True
2021-10-17,1.0543111568615888,1.0543111568615888,0.0,0,False
2021-10-18,1.0543111568615888,1.055040853395839,0.0692107381678797,2,True
2021-10-19,1.055040853395839,1.055040853395839,0.0,0,False
2021-10-20,1.055040853395839,1.055040853395839,0.0,0,False
2021-10-21,1.055040853395839,1.055040853395839,0.0,0,False
2021-10-22,1.055040853395839,1.055040853395839,0.0,0,False
2021-10-23,1.055040853395839,1.055040853395839,0.0,0,False
2021-10-24,1.055040853395839,1.0592436207586944,0.3983511490884828,1,True
2021-10-25,1.0592436207586944,1.051021638965553,-0.77621253807999,3,True
2021-10-26,1.051021638965553,1.051021638965553,0.0,0,False
2021-10-27,1.051021638965553,1.0590440402429304,0.763295538355746,7,True
2021-10-28,1.0590440402429304,1.0512692997722806,-0.7341281547523226,9,True
2021-10-29,1.0512692997722806,1.0485770828656853,-0.25609203152593407,3,True
2021-10-30,1.0485770828656853,1.0516743297935127,0.2953761796283816,2,True
2021-10-31,1.0516743297935127,1.0425663071211297,-0.866049727977225,11,True
2021-11-01,1.0425663071211297,1.026911797425569,-1.5015361218403411,9,True
2021-11-02,1.026911797425569,1.0336049797327658,0.6517777207328157,3,True
2021-11-03,1.0336049797327658,1.029383318429579,-0.4084404957373722,2,True
2021-11-04,1.029383318429579,1.021305958971931,-0.784679459345694,6,True
2021-11-05,1.021305958971931,1.0062950787317604,-1.4697730986785729,7,True
2021-11-06,1.0062950787317604,1.003939975943357,-0.23403699751484153,3,True
2021-11-07,1.003939975943357,1.003939975943357,0.0,0,False
2021-11-08,1.003939975943357,1.003939975943357,0.0,0,False
2021-11-09,1.003939975943357,1.0099785640160248,0.6014889552528935,2,True
2021-11-10,1.0099785640160248,1.0429636950666725,3.26592387461051,1,True
2021-11-11,1.0429636950666725,1.0129214699706943,-2.8804670036053137,19,True
2021-11-12,1.0129214699706943,0.9774712301732135,-3.499801401041136,9,True
2021-11-13,0.9774712301732135,0.9774025017786511,-0.007031244750832499,1,True
2021-11-14,0.9774025017786511,0.968541800989949,-0.9065559759236952,2,True
2021-11-15,0.968541800989949,0.968541800989949,0.0,0,False
2021-11-16,0.968541800989949,1.0063909382414362,3.9078475717621686,9,True
2021-11-17,1.0063909382414362,0.9971850156762256,-0.9147461702404658,1,True
2021-11-18,0.9971850156762256,0.985222778702658,-1.1996005541113797,4,True
2021-11-19,0.985222778702658,0.995020653717193,0.9944831997730441,8,True
2021-11-20,0.995020653717193,1.003366590601323,0.8387702157690136,0,True
2021-11-21,1.003366590601323,0.9962757407197357,-0.7067057990577164,3,True
2021-11-22,0.9962757407197357,0.9686992936057168,-2.767953287118774,11,True
2021-11-23,0.9686992936057168,0.9670414687521945,-0.17113926524623402,0,True
2021-11-24,0.9670414687521945,0.9536889592384417,-1.3807587311619685,4,True
2021-11-25,0.9536889592384417,0.9716214307912007,1.8803270583187537,11,True
2021-11-26,0.9716214307912007,0.9354133067942104,-3.7265670403652584,15,True
2021-11-27,0.9354133067942104,0.9388264027905658,0.36487571553291964,9,True
2021-11-28,0.9388264027905658,0.9028815462418938,-3.828701072086349,11,True
2021-11-29,0.9028815462418938,0.8964834986332371,-0.7086253601358394,2,True
2021-11-30,0.8964834986332371,0.887119444986628,-1.0445316239379054,3,True
2021-12-01,0.887119444986628,0.8933501277619962,0.7023499271241906,3,True
2021-12-02,0.8933501277619962,0.8943805621296445,0.11534496225233948,7,True
2021-12-03,0.8943805621296445,0.8852237163334404,-1.0238198574441637,3,True
2021-12-04,0.8852237163334404,0.8212448944061499,-7.227418419412457,23,True
2021-12-05,0.8212448944061499,0.8267460823365405,0.669859620176827,4,True
2021-12-06,0.8267460823365405,0.8124776645131416,-1.7258524870264358,19,True
2021-12-07,0.8124776645131416,0.8127107763232478,0.02869147304447317,1,True
2021-12-08,0.8127107763232478,0.8113881750452326,-0.16273947836630276,4,True
2021-12-09,0.8113881750452326,0.802034219809745,-1.1528335663711364,4,True
2021-12-10,0.802034219809745,0.7916047851951709,-1.3003727717563196,4,True
2021-12-11,0.7916047851951709,0.7855042025150801,-0.7706601569603455,2,True
2021-12-12,0.7855042025150801,0.7855042025150801,0.0,0,False
2021-12-13,0.7855042025150801,0.7805578425222993,-0.6297050960317185,2,True
2021-12-14,0.7805578425222993,0.7766679478785956,-0.49834803159928276,1,True
2021-12-15,0.7766679478785956,0.7780453166272046,0.17734332315002543,1,True
2021-12-16,0.7780453166272046,0.7776960925562216,-0.04488479829128922,1,True
2021-12-17,0.7776960925562216,0.7719554098733824,-0.7381652984741249,5,True
2021-12-18,0.7719554098733824,0.7681962683597674,-0.4869635558654384,2,True
2021-12-19,0.7681962683597674,0.7643808509394928,-0.4966722148261882,1,True
2021-12-20,0.7643808509394928,0.7643808509394928,0.0,0,False
2021-12-21,0.7643808509394928,0.7605749671489132,-0.49790412539795215,1,True
2021-12-22,0.7605749671489132,0.755061650401623,-0.7248880104425925,2,True
2021-12-23,0.755061650401623,0.7559808051564654,0.12173241143336178,0,True
2021-12-24,0.7559808051564654,0.7559808051564654,0.0,0,False
2021-12-25,0.7559808051564654,0.7550492868273218,-0.12321983875646092,2,True
2021-12-26,0.7550492868273218,0.7543736107458391,-0.08948767891985288,0,True
2021-12-27,0.7543736107458391,0.7543736107458391,0.0,0,False
2021-12-28,0.7543736107458391,0.7528075509596936,-0.2075973713604684,1,True
2021-12-29,0.7528075509596936,0.7528075509596936,0.0,0,False
2021-12-30,0.7528075509596936,0.7528075509596936,0.0,0,False
2021-12-31,0.7528075509596936,0.7528075509596936,0.0,0,False
2022-01-01,0.7528075509596936,0.7528075509596936,0.0,0,False
2022-01-02,0.7528075509596936,0.7528075509596936,0.0,0,False
2022-01-03,0.7528075509596936,0.7528075509596936,0.0,0,False
2022-01-04,0.7528075509596936,0.7528075509596936,0.0,0,False
2022-01-05,0.7528075509596936,0.7542807645735243,0.19569591351105142,1,True
2022-01-06,0.7542807645735243,0.7192372561377524,-4.645950166260149,15,True
2022-01-07,0.7192372561377524,0.7077015630974449,-1.6038786842401898,5,True
2022-01-08,0.7077015630974449,0.7077015630974449,0.0,0,False
2022-01-09,0.7077015630974449,0.7066211755202111,-0.15266146544953285,1,True
2022-01-10,0.7066211755202111,0.7066211755202111,0.0,0,False
2022-01-11,0.7066211755202111,0.7066211755202111,0.0,0,False
2022-01-12,0.7066211755202111,0.7066211755202111,0.0,0,False
2022-01-13,0.7066211755202111,0.7066211755202111,0.0,0,False
2022-01-14,0.7066211755202111,0.7066211755202111,0.0,0,False
2022-01-15,0.7066211755202111,0.707086918388408,0.06591125263886166,1,True
2022-01-16,0.707086918388408,0.7065054551833058,-0.08223362502979281,0,True
2022-01-17,0.7065054551833058,0.7109101594845304,0.6234494396199386,1,True
2022-01-18,0.7109101594845304,0.7109101594845304,0.0,0,False
2022-01-19,0.7109101594845304,0.7073684942164125,-0.4981874602391301,1,True
2022-01-20,0.7073684942164125,0.7073684942164125,0.0,0,False
2022-01-21,0.7073684942164125,0.682279274670178,-3.546838705903499,9,True
2022-01-22,0.682279274670178,0.6610446781022267,-3.1123027411636417,25,True
2022-01-23,0.6610446781022267,0.6596205416821073,-0.215437241580696,0,True
2022-01-24,0.6596205416821073,0.652095983383563,-1.1407404444009228,6,True
2022-01-25,0.652095983383563,0.6634137175226712,1.735593291095472,0,True
2022-01-26,0.6634137175226712,0.6643255139150454,0.13744008727751833,1,True
2022-01-27,0.6643255139150454,0.6606876330726109,-0.5476051673817928,14,True
2022-01-28,0.6606876330726109,0.6570854546216008,-0.5452165699330047,0,True
2022-01-29,0.6570854546216008,0.6570854546216008,0.0,0,False
2022-01-30,0.6570854546216008,0.6580922086883054,0.1532150893956974,1,True
2022-01-31,0.6580922086883054,0.655680634311756,-0.3664493128335389,2,True
2022-02-01,0.655680634311756,0.6524108936902326,-0.49867884613604696,1,True
2022-02-02,0.6524108936902326,0.6543772283793267,0.3013951342798471,1,True
2022-02-03,0.6543772283793267,0.6561756891552453,0.2748354768354,4,True
2022-02-04,0.6561756891552453,0.6584833990008288,0.35169084800359407,1,True
2022-02-05,0.6584833990008288,0.6584833990008288,0.0,0,False
2022-02-06,0.6584833990008288,0.6584833990008288,0.0,0,False
2022-02-07,0.6584833990008288,0.6584833990008288,0.0,0,False
2022-02-08,0.6584833990008288,0.6528405208198101,-0.8569507127409781,3,True
2022-02-09,0.6528405208198101,0.6531330709683473,0.044811885783335725,2,True
2022-02-10,0.6531330709683473,0.6645872672989532,1.7537308765614545,5,True
2022-02-11,0.6645872672989532,0.6635998188018144,-0.1485807125303551,0,True
2022-02-12,0.6635998188018144,0.6471842205846098,-2.473719514698536,5,True
2022-02-13,0.6471842205846098,0.6471842205846098,0.0,0,False
2022-02-14,0.6471842205846098,0.6471842205846098,0.0,0,False
2022-02-15,0.6471842205846098,0.6471842205846098,0.0,0,False
2022-02-16,0.6471842205846098,0.6471842205846098,0.0,0,False
2022-02-17,0.6471842205846098,0.6471842205846098,0.0,0,False
2022-02-18,0.6471842205846098,0.6471842205846098,0.0,0,False
2022-02-19,0.6471842205846098,0.6471842205846098,0.0,0,False
2022-02-20,0.6471842205846098,0.6471842205846098,0.0,0,False
2022-02-21,0.6471842205846098,0.6471842205846098,0.0,0,False
2022-02-22,0.6471842205846098,0.64320027886032,-0.6155807879078101,2,True
2022-02-23,0.64320027886032,0.64320027886032,0.0,0,False
2022-02-24,0.64320027886032,0.6232982628948672,-3.094217558598855,11,True
2022-02-25,0.6232982628948672,0.6346221399900965,1.8167669909163964,0,True
2022-02-26,0.6346221399900965,0.6346221399900965,0.0,0,False
2022-02-27,0.6346221399900965,0.6346221399900965,0.0,0,False
2022-02-28,0.6346221399900965,0.6293713802393391,-0.8273836382133415,2,True
2022-03-01,0.6293713802393391,0.6293713802393391,0.0,0,False
2022-03-02,0.6293713802393391,0.6293713802393391,0.0,0,False
2022-03-03,0.6293713802393391,0.6293713802393391,0.0,0,False
2022-03-04,0.6293713802393391,0.6291940091484883,-0.028182261923537233,3,True
2022-03-05,0.6291940091484883,0.6278550026129708,-0.2128129823311009,3,True
2022-03-06,0.6278550026129708,0.6243998582069513,-0.5503092898264783,4,True
2022-03-07,0.6243998582069513,0.6241867240123076,-0.03413424776484986,0,True
2022-03-08,0.6241867240123076,0.6210816456951662,-0.49745984617899364,1,True
2022-03-09,0.6210816456951662,0.6244300504089458,0.5391247249034059,2,True
2022-03-10,0.6244300504089458,0.6208134414893359,-0.5791855976888582,4,True
2022-03-11,0.6208134414893359,0.6196654535240271,-0.1849167380388539,2,True
2022-03-12,0.6196654535240271,0.6196654535240271,0.0,0,False
2022-03-13,0.6196654535240271,0.6196654535240271,0.0,0,False
2022-03-14,0.6196654535240271,0.616777483975021,-0.4660530182185152,1,True
2022-03-15,0.616777483975021,0.617696554141164,0.14901162737326334,1,True
2022-03-16,0.617696554141164,0.6201929769205424,0.4041503490090692,1,True
2022-03-17,0.6201929769205424,0.6171914071060629,-0.4839735253667765,1,True
2022-03-18,0.6171914071060629,0.6168661089028304,-0.05270621066448822,0,True
2022-03-19,0.6168661089028304,0.6168661089028304,0.0,0,False
2022-03-20,0.6168661089028304,0.6126506519658709,-0.6833665970817027,4,True
2022-03-21,0.6126506519658709,0.6181854033509824,0.9034106741503622,4,True
2022-03-22,0.6181854033509824,0.6181854033509824,0.0,0,False
2022-03-23,0.6181854033509824,0.617348262009713,-0.13541913748390533,2,True
2022-03-24,0.617348262009713,0.6160369535330238,-0.21240984341972524,0,True
2022-03-25,0.6160369535330238,0.6160369535330238,0.0,0,False
2022-03-26,0.6160369535330238,0.6174631603362286,0.23151319008143378,1,True
2022-03-27,0.6174631603362286,0.6206718598313301,0.5196584510976043,2,True
2022-03-28,0.6206718598313301,0.6202672831352718,-0.06518366986514312,5,True
2022-03-29,0.6202672831352718,0.6208161531621126,0.08848927579516719,1,True
2022-03-30,0.6208161531621126,0.6184908927471604,-0.37454895513083786,7,True
2022-03-31,0.6184908927471604,0.6162088957880246,-0.3689620956259798,8,True
2022-04-01,0.6162088957880246,0.6015970183844765,-2.3712538886446977,15,True
2022-04-02,0.6015970183844765,0.6032742619497863,0.27879851695638,2,True
2022-04-03,0.6032742619497863,0.5992925927301859,-0.6600097950029582,3,True
2022-04-04,0.5992925927301859,0.5950863408940167,-0.7018694853221596,2,True
2022-04-05,0.5950863408940167,0.5911060925054544,-0.6688522513527362,8,True
2022-04-06,0.5911060925054544,0.5801745716737637,-1.849333134997222,16,True
2022-04-07,0.5801745716737637,0.580783876074152,0.10502087305042096,3,True
2022-04-08,0.580783876074152,0.5792043834433,-0.27195876055111645,0,True
2022-04-09,0.5792043834433,0.5782007857020017,-0.17327177935568816,1,True
2022-04-10,0.5782007857020017,0.5782007857020017,0.0,0,False
2022-04-11,0.5782007857020017,0.5677754817988305,-1.8030594494114482,7,True
2022-04-12,0.5677754817988305,0.5670743205144503,-0.1234927021080301,1,True
2022-04-13,0.5670743205144503,0.5679721088129036,0.15831933592740377,2,True
2022-04-14,0.5679721088129036,0.5679721088129036,0.0,0,False
2022-04-15,0.5679721088129036,0.5699759128070727,0.3527997172884323,1,True
2022-04-16,0.5699759128070727,0.5699759128070727,0.0,0,False
2022-04-17,0.5699759128070727,0.5719657180552868,0.3491033925301368,1,True
2022-04-18,0.5719657180552868,0.5750251040609025,0.5348897510881745,9,True
2022-04-19,0.5750251040609025,0.5753962635108102,0.06454665149164818,2,True
2022-04-20,0.5753962635108102,0.5785608969170587,0.5499919980257229,1,True
2022-04-21,0.5785608969170587,0.5752396134036348,-0.574059451843667,5,True
2022-04-22,0.5752396134036348,0.5702485540143744,-0.8676487628744622,2,True
2022-04-23,0.5702485540143744,0.5644042606982186,-1.024867713388089,2,True
2022-04-24,0.5644042606982186,0.5644042606982186,0.0,0,False
2022-04-25,0.5644042606982186,0.5642746876523561,-0.022957488964059358,3,True
2022-04-26,0.5642746876523561,0.5596320339083566,-0.8227648422996059,2,True
2022-04-27,0.5596320339083566,0.556111847641338,-0.6290180071419904,1,True
2022-04-28,0.556111847641338,0.5574954731408052,0.24880345659521463,1,True
2022-04-29,0.5574954731408052,0.5552927057291528,-0.395118439122466,4,True
2022-04-30,0.5552927057291528,0.557043781804696,0.31534289168158036,5,True
2022-05-01,0.557043781804696,0.5658369963503519,1.578549987070632,9,True
2022-05-02,0.5658369963503519,0.5725580678889096,1.1878105500185754,1,True
2022-05-03,0.5725580678889096,0.5678100729625419,-0.8292599812407042,3,True
2022-05-04,0.5678100729625419,0.5626945745277498,-0.9009171690283702,2,True
2022-05-05,0.5626945745277498,0.5626945745277498,0.0,0,False
2022-05-06,0.5626945745277498,0.5358653873860126,-4.767983975010603,13,True
2022-05-07,0.5358653873860126,0.5317697202659492,-0.7643089508061807,2,True
2022-05-08,0.5317697202659492,0.5276053529869096,-0.7831147807657923,3,True
2022-05-09,0.5276053529869096,0.519679286383744,-1.5022718322120876,5,True
2022-05-10,0.519679286383744,0.5126553045613216,-1.3515993433757534,26,True
2022-05-11,0.5126553045613216,0.4938724151616181,-3.6638437625796105,44,True
2022-05-12,0.4938724151616181,0.46078836915021965,-6.698905424910562,34,True
2022-05-13,0.46078836915021965,0.4799112487873447,4.150035226017357,14,True
2022-05-14,0.4799112487873447,0.45914464807607414,-4.327175235784598,19,True
2022-05-15,0.45914464807607414,0.4663208455894964,1.5629491802838569,4,True
2022-05-16,0.4663208455894964,0.466972778552646,0.13980352139855157,13,True
2022-05-17,0.466972778552646,0.46582269554060507,-0.2462848082077862,4,True
2022-05-18,0.46582269554060507,0.4583896961319818,-1.5956713744908813,2,True
2022-05-19,0.4583896961319818,0.45660950374182097,-0.38835785472113304,9,True
2022-05-20,0.45660950374182097,0.4565760603298973,-0.007324291686794382,1,True
2022-05-21,0.4565760603298973,0.4565760603298973,0.0,0,False
2022-05-22,0.4565760603298973,0.4558886341855976,-0.15056114501557083,1,True
2022-05-23,0.4558886341855976,0.45636277129887326,0.10400283703555502,4,True
2022-05-24,0.45636277129887326,0.44426500221546406,-2.650910601006573,18,True
2022-05-25,0.44426500221546406,0.4432818004415771,-0.22130975183368706,1,True
2022-05-26,0.4432818004415771,0.44253712743628754,-0.167990881770419,14,True
2022-05-27,0.44253712743628754,0.4325197992353421,-2.2636130575027558,6,True
2022-05-28,0.4325197992353421,0.4323800461405168,-0.03231137512603732,1,True
2022-05-29,0.4323800461405168,0.437998294404971,1.299377322011841,4,True
2022-05-30,0.437998294404971,0.437998294404971,0.0,0,False
2022-05-31,0.437998294404971,0.43421366524641847,-0.8640739488938065,12,True
2022-06-01,0.43421366524641847,0.4353841094660771,0.26955490196154397,6,True
2022-06-02,0.4353841094660771,0.42771004953841457,-1.7625953177467624,12,True
2022-06-03,0.42771004953841457,0.42756818736591984,-0.033167837100822606,0,True
2022-06-04,0.42756818736591984,0.42756818736591984,0.0,0,False
2022-06-05,0.42756818736591984,0.42756818736591984,0.0,0,False
2022-06-06,0.42756818736591984,0.429151848557513,0.3703879845106117,1,True
2022-06-07,0.429151848557513,0.4232832913014289,-1.3674780327312508,5,True
2022-06-08,0.4232832913014289,0.42412385929517826,0.19858284298559514,9,True
2022-06-09,0.42412385929517826,0.42483737135721084,0.1682320026084705,8,True
2022-06-10,0.42483737135721084,0.4257088415273217,0.2051302989957815,7,True
2022-06-11,0.4257088415273217,0.40973837799342516,-3.7514991411968457,10,True
2022-06-12,0.40973837799342516,0.395813819300915,-3.398402356328356,19,True
2022-06-13,0.395813819300915,0.38017996170676527,-3.9498008487329317,19,True
2022-06-14,0.38017996170676527,0.3831782337419759,0.7886454672019871,16,True
2022-06-15,0.3831782337419759,0.3797694219388407,-0.8896151980883671,12,True
2022-06-16,0.3797694219388407,0.3738731660373399,-1.552588376230668,10,True
2022-06-17,0.3738731660373399,0.3731269048126107,-0.19960277776519542,2,True
2022-06-18,0.3731269048126107,0.3678102529567792,-1.4248910457158148,8,True
2022-06-19,0.3678102529567792,0.36569629794281144,-0.5747406433001645,4,True
2022-06-20,0.36569629794281144,0.36680090239333607,0.30205513611663015,2,True
2022-06-21,0.36680090239333607,0.36998520585416084,0.8681285787596194,1,True
2022-06-22,0.36998520585416084,0.36865233172924694,-0.36025065430299597,9,True
2022-06-23,0.36865233172924694,0.3654140808335088,-0.8784023908240068,2,True
2022-06-24,0.3654140808335088,0.3624630148076705,-0.8075950491855388,2,True
2022-06-25,0.3624630148076705,0.3641284977230636,0.45949044381170534,4,True
2022-06-26,0.3641284977230636,0.3629695988336632,-0.3182664627039977,0,True
2022-06-27,0.3629695988336632,0.3610352792080307,-0.5329150517972003,5,True
2022-06-28,0.3610352792080307,0.357221679307402,-1.0562956365356424,3,True
2022-06-29,0.357221679307402,0.35217886631479406,-1.411676078110713,5,True
2022-06-30,0.35217886631479406,0.34876459327671727,-0.9694713012747713,4,True
2022-07-01,0.34876459327671727,0.35120913007147514,0.7009131207359465,1,True
2022-07-02,0.35120913007147514,0.3517184936487148,0.14503141679034215,2,True
2022-07-03,0.3517184936487148,0.34973953578415384,-0.5626539122328578,3,True
2022-07-04,0.34973953578415384,0.3505766723043201,0.23935999065398672,0,True
2022-07-05,0.3505766723043201,0.35077381723709755,0.0562344697613959,1,True
2022-07-06,0.35077381723709755,0.35322794063401985,0.6996312941063954,0,True
2022-07-07,0.35322794063401985,0.35322794063401985,0.0,0,False
2022-07-08,0.35322794063401985,0.35322794063401985,0.0,0,False
2022-07-09,0.35322794063401985,0.35322794063401985,0.0,0,False
2022-07-10,0.35322794063401985,0.35322794063401985,0.0,0,False
2022-07-11,0.35322794063401985,0.35146984665685554,-0.4977222283176874,1,True
2022-07-12,0.35146984665685554,0.3508031903163304,-0.18967668119080905,2,True
2022-07-13,0.3508031903163304,0.35578054242725216,1.418844596719171,6,True
2022-07-14,0.35578054242725216,0.36112453930314614,1.5020486616371675,0,True
2022-07-15,0.36112453930314614,0.36112453930314614,0.0,0,False
2022-07-16,0.36112453930314614,0.36112453930314614,0.0,0,False
2022-07-17,0.36112453930314614,0.36112453930314614,0.0,0,False
2022-07-18,0.36112453930314614,0.3611796832503685,0.015270063709538206,1,True
2022-07-19,0.3611796832503685,0.3570011648277442,-1.156908490815567,4,True
2022-07-20,0.3570011648277442,0.355764536677621,-0.34639330959043146,3,True
2022-07-21,0.355764536677621,0.35506829781893723,-0.19570215322350926,8,True
2022-07-22,0.35506829781893723,0.35506829781893723,0.0,0,False
2022-07-23,0.35506829781893723,0.3567629938961091,0.4772873522028931,3,True
2022-07-24,0.3567629938961091,0.35809083253035845,0.3721906859644797,3,True
2022-07-25,0.35809083253035845,0.35816823354607347,0.021614911269329795,1,True
2022-07-26,0.35816823354607347,0.3574368140154066,-0.20421116731246247,1,True
2022-07-27,0.3574368140154066,0.35839657964413074,0.2685133682628349,1,True
2022-07-28,0.35839657964413074,0.35839657964413074,0.0,0,False
2022-07-29,0.35839657964413074,0.35768439245216427,-0.19871484060300926,6,True
2022-07-30,0.35768439245216427,0.3594324224635249,0.48870737673980535,2,True
2022-07-31,0.3594324224635249,0.3542294725916727,-1.4475460605895107,6,True
2022-08-01,0.3542294725916727,0.3535166362330362,-0.20123575642114755,2,True
2022-08-02,0.3535166362330362,0.34555813426694615,-2.25123831537134,8,True
2022-08-03,0.34555813426694615,0.34898628597130626,0.9920622217828745,2,True
2022-08-04,0.34898628597130626,0.3483432114867129,-0.18426927086936384,0,True
2022-08-05,0.3483432114867129,0.3522382078609345,1.1181490684425865,2,True
2022-08-06,0.3522382078609345,0.3522382078609345,0.0,0,False
2022-08-07,0.3522382078609345,0.35154013332864936,-0.19818251305683265,2,True
2022-08-08,0.35154013332864936,0.35154013332864936,0.0,0,False
2022-08-09,0.35154013332864936,0.3506992083511456,-0.23921165687150747,7,True
2022-08-10,0.3506992083511456,0.35067273882655814,-0.007547643096172951,2,True
2022-08-11,0.35067273882655814,0.3515107556681117,0.23897404866934924,3,True
2022-08-12,0.3515107556681117,0.3499409130575668,-0.4465987413560413,5,True
2022-08-13,0.3499409130575668,0.34867249428360897,-0.36246655553223706,0,True
2022-08-14,0.34867249428360897,0.34867249428360897,0.0,0,False
2022-08-15,0.34867249428360897,0.3486614423762689,-0.0031697101208871814,1,True
2022-08-16,0.3486614423762689,0.3451985308478518,-0.9932017445966945,2,True
2022-08-17,0.3451985308478518,0.3434820306730804,-0.49725013908820115,1,True
2022-08-18,0.3434820306730804,0.3417726178941364,-0.4976716760391575,1,True
2022-08-19,0.3417726178941364,0.33024456946982345,-3.3730169770018636,12,True
2022-08-20,0.33024456946982345,0.32968147614746035,-0.1705079733081094,2,True
2022-08-21,0.32968147614746035,0.3301048319319911,0.12841357951860477,1,True
2022-08-22,0.3301048319319911,0.3299911274205588,-0.03444497033466831,0,True
2022-08-23,0.3299911274205588,0.3299911274205588,0.0,0,False
2022-08-24,0.3299911274205588,0.3299911274205588,0.0,0,False
2022-08-25,0.3299911274205588,0.3287239280969977,-0.38401011974668053,1,True
2022-08-26,0.3287239280969977,0.3297303375911595,0.3061564456192656,1,True
2022-08-27,0.3297303375911595,0.32289668773933766,-2.072496544220037,7,True
2022-08-28,0.32289668773933766,0.32319601669372666,0.09270115357473685,1,True
2022-08-29,0.32319601669372666,0.323100873372396,-0.029438271642068248,2,True
2022-08-30,0.323100873372396,0.32149538517188425,-0.496899987844146,1,True
2022-08-31,0.32149538517188425,0.3207893585507156,-0.21960707796511159,2,True
2022-09-01,0.3207893585507156,0.3180678422981213,-0.8483810887274346,2,True
2022-09-02,0.3180678422981213,0.3180678422981213,0.0,0,False
2022-09-03,0.3180678422981213,0.3180678422981213,0.0,0,False
2022-09-04,0.3180678422981213,0.3180678422981213,0.0,0,False
2022-09-05,0.3180678422981213,0.3180678422981213,0.0,0,False
2022-09-06,0.3180678422981213,0.31648516244704633,-0.49759190983901247,1,True
2022-09-07,0.31648516244704633,0.3117258745793504,-1.5037949428331365,5,True
2022-09-08,0.3117258745793504,0.31127279435340005,-0.1453457229245947,2,True
2022-09-09,0.31127279435340005,0.31127279435340005,0.0,0,False
2022-09-10,0.31127279435340005,0.31164342706960374,0.11907006424174416,2,True
2022-09-11,0.31164342706960374,0.3148868985775746,1.0407636504544238,0,True
2022-09-12,0.3148868985775746,0.3148868985775746,0.0,0,False
2022-09-13,0.3148868985775746,0.30948751104794925,-1.7147069484363398,7,True
2022-09-14,0.30948751104794925,0.31357972921471694,1.322256317520254,5,True
2022-09-15,0.31357972921471694,0.30963078418657786,-1.25931132029109,4,True
2022-09-16,0.30963078418657786,0.3093329156145715,-0.0962012135805157,3,True
2022-09-17,0.3093329156145715,0.30779320905590035,-0.49775063724211144,1,True
2022-09-18,0.30779320905590035,0.30779320905590035,0.0,0,False
2022-09-19,0.30779320905590035,0.31146248747537447,1.1921245536017366,11,True
2022-09-20,0.31146248747537447,0.3111724102724177,-0.09313391327091525,0,True
2022-09-21,0.3111724102724177,0.3111724102724177,0.0,0,False
2022-09-22,0.3111724102724177,0.3130477071379017,0.6026552494940773,2,True
2022-09-23,0.3130477071379017,0.3104920849988961,-0.8163682661568972,3,True
2022-09-24,0.3104920849988961,0.3104920849988961,0.0,0,False
2022-09-25,0.3104920849988961,0.3104920849988961,0.0,0,False
2022-09-26,0.3104920849988961,0.3104920849988961,0.0,0,False
2022-09-27,0.3104920849988961,0.3104920849988961,0.0,0,False
2022-09-28,0.3104920849988961,0.3104920849988961,0.0,0,False
2022-09-29,0.3104920849988961,0.3104920849988961,0.0,0,False
2022-09-30,0.3104920849988961,0.3091767133732884,-0.4236409522685114,1,True
2022-10-01,0.3091767133732884,0.3091767133732884,0.0,0,False
2022-10-02,0.3091767133732884,0.3091767133732884,0.0,0,False
2022-10-03,0.3091767133732884,0.3091767133732884,0.0,0,False
2022-10-04,0.3091767133732884,0.3091767133732884,0.0,0,False
2022-10-05,0.3091767133732884,0.3091767133732884,0.0,0,False
2022-10-06,0.3091767133732884,0.3091767133732884,0.0,0,False
2022-10-07,0.3091767133732884,0.3091767133732884,0.0,0,False
2022-10-08,0.3091767133732884,0.30826378918581476,-0.29527585616430096,1,True
2022-10-09,0.30826378918581476,0.30826378918581476,0.0,0,False
2022-10-10,0.30826378918581476,0.30793010537453697,-0.10824619140610281,1,True
2022-10-11,0.30793010537453697,0.312389085119216,1.4480493030246455,6,True
2022-10-12,0.312389085119216,0.3105575482367209,-0.5862998964244026,2,True
2022-10-13,0.3105575482367209,0.31017496719578297,-0.12319167352722316,1,True
2022-10-14,0.31017496719578297,0.31017496719578297,0.0,0,False
2022-10-15,0.31017496719578297,0.31017496719578297,0.0,0,False
2022-10-16,0.31017496719578297,0.31017496719578297,0.0,0,False
2022-10-17,0.31017496719578297,0.31017496719578297,0.0,0,False
2022-10-18,0.31017496719578297,0.31017496719578297,0.0,0,False
2022-10-19,0.31017496719578297,0.31017496719578297,0.0,0,False
2022-10-20,0.31017496719578297,0.31230904900544204,0.6880251584945096,2,True
2022-10-21,0.31230904900544204,0.3119663311168707,-0.10973677825305561,0,True
2022-10-22,0.3119663311168707,0.3119663311168707,0.0,0,False
2022-10-23,0.3119663311168707,0.3119663311168707,0.0,0,False
2022-10-24,0.3119663311168707,0.3119663311168707,0.0,0,False
2022-10-25,0.3119663311168707,0.3108043779902549,-0.3724610673388695,2,True
2022-10-26,0.3108043779902549,0.3108043779902549,0.0,0,False
2022-10-27,0.3108043779902549,0.3108043779902549,0.0,0,False
2022-10-28,0.3108043779902549,0.30960762328682784,-0.38505078698234385,1,True
2022-10-29,0.30960762328682784,0.30960762328682784,0.0,0,False
2022-10-30,0.30960762328682784,0.3056708914609627,-1.2715228985876847,8,True
2022-10-31,0.3056708914609627,0.30674869509660035,0.35260264086196536,4,True
2022-11-01,0.30674869509660035,0.30455267094148863,-0.7159033404918524,1,True
2022-11-02,0.30455267094148863,0.3084503126092568,1.2797923116940835,3,True
2022-11-03,0.3084503126092568,0.31140120749079425,0.956684030103605,7,True
2022-11-04,0.31140120749079425,0.31275006025096347,0.433155918385153,14,True
2022-11-05,0.31275006025096347,0.3055603132373475,-2.298879497528028,8,True
2022-11-06,0.3055603132373475,0.3039078152411939,-0.5408091052943709,2,True
2022-11-07,0.3039078152411939,0.3004538627711528,-1.1365132111854082,9,True
2022-11-08,0.3004538627711528,0.29190278186837715,-2.846054573539891,16,True
2022-11-09,0.29190278186837715,0.2621976375729079,-10.176382734462486,35,True
2022-11-10,0.2621976375729079,0.26388987884790527,0.6454067590623502,22,True
2022-11-11,0.26388987884790527,0.2684759509464234,1.7378734336231716,18,True
2022-11-12,0.2684759509464234,0.26402066573398986,-1.6594727374008356,12,True
2022-11-13,0.26402066573398986,0.26241884581254526,-0.6067024780016528,3,True
2022-11-14,0.26241884581254526,0.25151832348881703,-4.153864136539509,12,True
2022-11-15,0.25151832348881703,0.2510849860201175,-0.17228862799685274,3,True
2022-11-16,0.2510849860201175,0.24999037601749846,-0.4359519937728651,2,True
2022-11-17,0.24999037601749846,0.24894062370536924,-0.4199170899505944,3,True
2022-11-18,0.24894062370536924,0.24972897041060596,0.31668061785277146,0,True
2022-11-19,0.24972897041060596,0.2498988930727159,0.06804283132650912,3,True
2022-11-20,0.2498988930727159,0.24878097210736252,-0.44734930659660055,3,True
2022-11-21,0.24878097210736252,0.2403100742959598,-3.4049620996524865,9,True
2022-11-22,0.2403100742959598,0.24523828996476796,2.050773644528392,5,True
2022-11-23,0.24523828996476796,0.2495303659313626,1.750165509313928,1,True
2022-11-24,0.2495303659313626,0.24764573548661295,-0.7552709818363534,2,True
2022-11-25,0.24764573548661295,0.2469073954152896,-0.2981436647283786,3,True
2022-11-26,0.2469073954152896,0.2469073954152896,0.0,0,False
2022-11-27,0.2469073954152896,0.2469073954152896,0.0,0,False
2022-11-28,0.2469073954152896,0.24346110603841872,-1.3957821599771658,6,True
2022-11-29,0.24346110603841872,0.24346110603841872,0.0,0,False
2022-11-30,0.24346110603841872,0.24346110603841872,0.0,0,False
2022-12-01,0.24346110603841872,0.24360902127368536,0.060755180847360535,1,True
2022-12-02,0.24360902127368536,0.24355118746680607,-0.023740420850149047,2,True
2022-12-03,0.24355118746680607,0.24355118746680607,0.0,0,False
2022-12-04,0.24355118746680607,0.24199212731868866,-0.6401365414528737,3,True
2022-12-05,0.24199212731868866,0.24418782782107218,0.907343774655911,2,True
2022-12-06,0.24418782782107218,0.24471647584708958,0.21649237422463052,2,True
2022-12-07,0.24471647584708958,0.24451971659706548,-0.08040294358727662,2,True
2022-12-08,0.24451971659706548,0.24108895600800348,-1.4030609215515355,2,True
2022-12-09,0.24108895600800348,0.24108895600800348,0.0,0,False
2022-12-10,0.24108895600800348,0.24108895600800348,0.0,0,False
2022-12-11,0.24108895600800348,0.24108895600800348,0.0,0,False
2022-12-12,0.24108895600800348,0.24048481220431595,-0.25058958058098435,1,True
2022-12-13,0.24048481220431595,0.24078840583915873,0.12624233192108925,1,True
2022-12-14,0.24078840583915873,0.24078840583915873,0.0,0,False
2022-12-15,0.24078840583915873,0.24078840583915873,0.0,0,False
2022-12-16,0.24078840583915873,0.23913916126819768,-0.6849352090742777,5,True
2022-12-17,0.23913916126819768,0.2394320869254895,0.12249171392020308,7,True
2022-12-18,0.2394320869254895,0.2394320869254895,0.0,0,False
2022-12-19,0.2394320869254895,0.23823968508100923,-0.49801255119634735,1,True
2022-12-20,0.23823968508100923,0.23823968508100923,0.0,0,False
2022-12-21,0.23823968508100923,0.23823968508100923,0.0,0,False
2022-12-22,0.23823968508100923,0.23823968508100923,0.0,0,False
2022-12-23,0.23823968508100923,0.23823968508100923,0.0,0,False
2022-12-24,0.23823968508100923,0.23823968508100923,0.0,0,False
2022-12-25,0.23823968508100923,0.23823968508100923,0.0,0,False
2022-12-26,0.23823968508100923,0.23823968508100923,0.0,0,False
2022-12-27,0.23823968508100923,0.23823968508100923,0.0,0,False
2022-12-28,0.23823968508100923,0.23879448012885288,0.2328726415395499,4,True
2022-12-29,0.23879448012885288,0.2379853773333959,-0.3388280981287295,0,True
2022-12-30,0.2379853773333959,0.24114519977434037,1.3277380637205516,1,True
2022-12-31,0.24114519977434037,0.24114519977434037,0.0,0,False
2023-01-01,0.24114519977434037,0.24114519977434037,0.0,0,False
2023-01-02,0.24114519977434037,0.24078334802873064,-0.15005554576593694,1,True
2023-01-03,0.24078334802873064,0.24095001924909212,0.0692204098522664,0,True
2023-01-04,0.24095001924909212,0.24095001924909212,0.0,0,False
2023-01-05,0.24095001924909212,0.24095001924909212,0.0,0,False
2023-01-06,0.24095001924909212,0.24052550758340938,-0.1761824576755444,1,True
2023-01-07,0.24052550758340938,0.2403674890736023,-0.06569719419561304,0,True
2023-01-08,0.2403674890736023,0.2403674890736023,0.0,0,False
2023-01-09,0.2403674890736023,0.24022512901745727,-0.059226002939793965,1,True
2023-01-10,0.24022512901745727,0.23658892143953808,-1.5136666146425282,6,True
2023-01-11,0.23658892143953808,0.2343325283935274,-0.953718809943227,3,True
2023-01-12,0.2343325283935274,0.2343325283935274,0.0,0,False
2023-01-13,0.2343325283935274,0.2341932684323374,-0.05942835258284651,1,True
2023-01-14,0.2341932684323374,0.23217396187658404,-0.8622393671988804,5,True
2023-01-15,0.23217396187658404,0.23110611661607874,-0.45993325516533456,4,True
2023-01-16,0.23110611661607874,0.23146171946489424,0.15386994252784003,2,True
2023-01-17,0.23146171946489424,0.23061638128861245,-0.36521727145036875,0,True
2023-01-18,0.23061638128861245,0.23061638128861245,0.0,0,False
2023-01-19,0.23061638128861245,0.22573062148900358,-2.118565807124695,9,True
2023-01-20,0.22573062148900358,0.22573062148900358,0.0,0,False
2023-01-21,0.22573062148900358,0.2252658985731701,-0.20587499948744314,3,True
2023-01-22,0.2252658985731701,0.22742365402363585,0.9578704385053038,2,True
2023-01-23,0.22742365402363585,0.22588657711945903,-0.6758650109531139,2,True
2023-01-24,0.22588657711945903,0.22553997297346912,-0.15344167431720068,4,True
2023-01-25,0.22553997297346912,0.22251580306013813,-1.3408576198094768,11,True
2023-01-26,0.22251580306013813,0.22184592757064514,-0.3010462539202008,4,True
2023-01-27,0.22184592757064514,0.22105524847828936,-0.35640910834570105,3,True
2023-01-28,0.22105524847828936,0.22068087838090877,-0.16935589630090453,0,True
2023-01-29,0.22068087838090877,0.21977536177446166,-0.41032853099494115,1,True
2023-01-30,0.21977536177446166,0.21907207866406164,-0.3200008885080319,5,True
2023-01-31,0.21907207866406164,0.22030409644525126,0.5623801027966113,6,True
2023-02-01,0.22030409644525126,0.2186214996033762,-0.7637610326021282,2,True
2023-02-02,0.2186214996033762,0.2186214996033762,0.0,0,False
2023-02-03,0.2186214996033762,0.21702143611542726,-0.7318875274626602,4,True
2023-02-04,0.21702143611542726,0.21702143611542726,0.0,0,False
2023-02-05,0.21702143611542726,0.21788956117184743,0.4000181143204884,6,True
2023-02-06,0.21788956117184743,0.21359775944822718,-1.969714244472387,3,True
2023-02-07,0.21359775944822718,0.21296937606789063,-0.294190061712174,0,True
2023-02-08,0.21296937606789063,0.2098226200764728,-1.4775626662937302,5,True
2023-02-09,0.2098226200764728,0.20492804036793938,-2.332722614344207,10,True
2023-02-10,0.20492804036793938,0.20171493528112194,-1.5679187099278624,11,True
2023-02-11,0.20171493528112194,0.2024001381865548,0.3396887317629327,4,True
2023-02-12,0.2024001381865548,0.201369560717347,-0.5091782438695347,2,True
2023-02-13,0.201369560717347,0.20360645085429874,1.110838266212233,3,True
2023-02-14,0.20360645085429874,0.20333535449678228,-0.13314723397956918,1,True
2023-02-15,0.20333535449678228,0.2035664739041531,0.1136641524750237,0,True
2023-02-16,0.2035664739041531,0.2035664739041531,0.0,0,False
2023-02-17,0.2035664739041531,0.20377356617000825,0.10173201013081723,1,True
2023-02-18,0.20377356617000825,0.2033026784436836,-0.23108381286892632,1,True
2023-02-19,0.2033026784436836,0.20357642753320837,0.13465099998699603,2,True
2023-02-20,0.20357642753320837,0.20133048736079878,-1.1032417650826631,6,True
2023-02-21,0.20133048736079878,0.19859033734559994,-1.361020902059551,9,True
2023-02-22,0.19859033734559994,0.19504697616176234,-1.784256591332145,6,True
2023-02-23,0.19504697616176234,0.19716724748679607,1.0870567525616437,2,True
2023-02-24,0.19716724748679607,0.19598081008765347,-0.6017416250749474,1,True
2023-02-25,0.19598081008765347,0.1935601200582117,-1.2351668657554327,3,True
2023-02-26,0.1935601200582117,0.1928330722625775,-0.3756185909656984,2,True
2023-02-27,0.1928330722625775,0.19187220464312535,-0.49828984633080164,1,True
2023-02-28,0.19187220464312535,0.19031728193990502,-0.810394974150852,3,True
2023-03-01,0.19031728193990502,0.18952491273540087,-0.41634117323846587,1,True
2023-03-02,0.18952491273540087,0.1892822680035137,-0.12802788213174265,1,True
2023-03-03,0.1892822680035137,0.18805486557027606,-0.6484508275306777,9,True
2023-03-04,0.18805486557027606,0.1878390203680315,-0.11477778125550397,0,True
2023-03-05,0.1878390203680315,0.1890910336264983,0.6665352364028099,4,True
2023-03-06,0.1890910336264983,0.1890910336264983,0.0,0,False
2023-03-07,0.1890910336264983,0.1890910336264983,0.0,0,False
2023-03-08,0.1890910336264983,0.1890910336264983,0.0,0,False
2023-03-09,0.1890910336264983,0.1890910336264983,0.0,0,False
2023-03-10,0.1890910336264983,0.183999867837224,-2.692441673004231,12,True
2023-03-11,0.183999867837224,0.1841303505073385,0.07091454556367172,7,True
2023-03-12,0.1841303505073385,0.18456204203215143,0.2344488693056146,0,True
2023-03-13,0.18456204203215143,0.18456204203215143,0.0,0,False
2023-03-14,0.18456204203215143,0.18429564612659502,-0.14433948748248104,1,True
2023-03-15,0.18429564612659502,0.18284633123509328,-0.7864075587039054,7,True
2023-03-16,0.18284633123509328,0.18338836036590567,0.29643970822443855,7,True
2023-03-17,0.18338836036590567,0.18190737172142385,-0.8075695979433362,2,True
2023-03-18,0.18190737172142385,0.18392127470188419,1.1071035557286057,3,True
2023-03-19,0.18392127470188419,0.1811919674521288,-1.4839540744697954,4,True
2023-03-20,0.1811919674521288,0.18188389482747533,0.3818753033460798,6,True
2023-03-21,0.18188389482747533,0.1814832935226495,-0.22025111415489018,2,True
2023-03-22,0.1814832935226495,0.1814832935226495,0.0,0,False
2023-03-23,0.1814832935226495,0.18291091453710667,0.7866404597065557,8,True
2023-03-24,0.18291091453710667,0.18185980588245426,-0.5746560599253714,1,True
2023-03-25,0.18185980588245426,0.18099500751665543,-0.47553023693306384,1,True
2023-03-26,0.18099500751665543,0.18099500751665543,0.0,0,False
2023-03-27,0.18099500751665543,0.18009395714687593,-0.4978316154364504,1,True
2023-03-28,0.18009395714687593,0.18326744989430702,1.7621317215229748,4,True
2023-03-29,0.18326744989430702,0.18340115084977246,0.0729540109509541,1,True
2023-03-30,0.18340115084977246,0.18505665910284846,0.9026705914359612,3,True
2023-03-31,0.18505665910284846,0.18505665910284846,0.0,0,False
2023-04-01,0.18505665910284846,0.18482894780090423,-0.12304950443187135,1,True
2023-04-02,0.18482894780090423,0.18449041611122044,-0.18315945294914426,0,True
2023-04-03,0.18449041611122044,0.18449041611122044,0.0,0,False
2023-04-04,0.18449041611122044,0.18265644923403412,-0.9940716248808878,2,True
2023-04-05,0.18265644923403412,0.1821512587909885,-0.27657958159381657,2,True
2023-04-06,0.1821512587909885,0.17962324058892842,-1.3878675441715616,5,True
2023-04-07,0.17962324058892842,0.1788310344141694,-0.4410376809602323,1,True
2023-04-08,0.1788310344141694,0.17822581996792994,-0.33842808560721194,1,True
2023-04-09,0.17822581996792994,0.17822581996792994,0.0,0,False
2023-04-10,0.17822581996792994,0.17822581996792994,0.0,0,False
2023-04-11,0.17822581996792994,0.17822581996792994,0.0,0,False
2023-04-12,0.17822581996792994,0.17943381307412132,0.6777879357821037,1,True
2023-04-13,0.17943381307412132,0.1794724738515444,0.021545982198523106,0,True
2023-04-14,0.1794724738515444,0.18096518567169462,0.8317218725056197,2,True
2023-04-15,0.18096518567169462,0.18095635872180366,-0.004877706094796874,1,True
2023-04-16,0.18095635872180366,0.18051821573774113,-0.24212632656701594,1,True
2023-04-17,0.18051821573774113,0.18043143221391386,-0.048074662976582694,3,True
2023-04-18,0.18043143221391386,0.18043143221391386,0.0,0,False
2023-04-19,0.18043143221391386,0.17748174963216784,-1.6347941960849544,10,True
2023-04-20,0.17748174963216784,0.17622616036636032,-0.7074469732294975,0,True
2023-04-21,0.17622616036636032,0.17582953269869767,-0.22506741725411006,1,True
2023-04-22,0.17582953269869767,0.17522344460666678,-0.3447021002265238,1,True
2023-04-23,0.17522344460666678,0.17522344460666678,0.0,0,False
2023-04-24,0.17522344460666678,0.17522344460666678,0.0,0,False
2023-04-25,0.17522344460666678,0.17522344460666678,0.0,0,False
2023-04-26,0.17522344460666678,0.17522344460666678,0.0,0,False
2023-04-27,0.17522344460666678,0.1733477841967759,-1.0704391835814397,12,True
2023-04-28,0.1733477841967759,0.1733477841967759,0.0,0,False
2023-04-29,0.1733477841967759,0.17248440664898815,-0.49806090789582536,1,True
2023-04-30,0.17248440664898815,0.17248440664898815,0.0,0,False
2023-05-01,0.17248440664898815,0.17248440664898815,0.0,0,False
2023-05-02,0.17248440664898815,0.17248440664898815,0.0,0,False
2023-05-03,0.17248440664898815,0.17248440664898815,0.0,0,False
2023-05-04,0.17248440664898815,0.17248440664898815,0.0,0,False
2023-05-05,0.17248440664898815,0.17248440664898815,0.0,0,False
2023-05-06,0.17248440664898815,0.17077028841064706,-0.9937815664863958,2,True
2023-05-07,0.17077028841064706,0.17077028841064706,0.0,0,False
2023-05-08,0.17077028841064706,0.17377170424772143,1.7575749651818517,6,True
2023-05-09,0.17377170424772143,0.1732003269878558,-0.32880914780640813,6,True
2023-05-10,0.1732003269878558,0.17259708423367146,-0.34829192569980627,2,True
2023-05-11,0.17259708423367146,0.17638462440001534,2.1944404119921934,6,True
2023-05-12,0.17638462440001534,0.1756791814403203,-0.3999458354687402,0,True
2023-05-13,0.1756791814403203,0.17541969651138595,-0.14770385813899223,1,True
2023-05-14,0.17541969651138595,0.17541969651138595,0.0,0,False
2023-05-15,0.17541969651138595,0.17541969651138595,0.0,0,False
2023-05-16,0.17541969651138595,0.17541969651138595,0.0,0,False
2023-05-17,0.17541969651138595,0.17541969651138595,0.0,0,False
2023-05-18,0.17541969651138595,0.17511645903757272,-0.17286398269052983,1,True
2023-05-19,0.17511645903757272,0.17511645903757272,0.0,0,False
2023-05-20,0.17511645903757272,0.17511645903757272,0.0,0,False
2023-05-21,0.17511645903757272,0.17511645903757272,0.0,0,False
2023-05-22,0.17511645903757272,0.17465422824894286,-0.2639562215740576,1,True
2023-05-23,0.17465422824894286,0.17465422824894286,0.0,0,False
2023-05-24,0.17465422824894286,0.17378400604450603,-0.4982543011764151,1,True
2023-05-25,0.17378400604450603,0.17332746968357765,-0.2627033242699306,1,True
2023-05-26,0.17332746968357765,0.17391550660909724,0.3392635492764695,1,True
2023-05-27,0.17391550660909724,0.17284836960298064,-0.6135950881683949,2,True
2023-05-28,0.17284836960298064,0.17284836960298064,0.0,0,False
2023-05-29,0.17284836960298064,0.17364143031452411,0.4588187400118793,1,True
2023-05-30,0.17364143031452411,0.17632773059739695,1.547038790228239,5,True
2023-05-31,0.17632773059739695,0.17738110501374288,0.597395777043741,2,True
2023-06-01,0.17738110501374288,0.1782377311978197,0.4829297821830725,0,True
2023-06-02,0.1782377311978197,0.1822427070894994,2.2469854529480804,2,True
2023-06-03,0.1822427070894994,0.18314227078101356,0.4936075115874905,4,True
2023-06-04,0.18314227078101356,0.18114071300533985,-1.0928977603794188,4,True
2023-06-05,0.18114071300533985,0.18030161850683138,-0.46322799805018633,1,True
2023-06-06,0.18030161850683138,0.17312520900956868,-3.98022466836081,12,True
2023-06-07,0.17312520900956868,0.17155316172632795,-0.9080406557971821,2,True
2023-06-08,0.17155316172632795,0.16997383600235458,-0.9206042652206037,4,True
2023-06-09,0.16997383600235458,0.16925336612270306,-0.4238710478014607,1,True
2023-06-10,0.16925336612270306,0.17452249538204845,3.113160689238792,8,True
2023-06-11,0.17452249538204845,0.17432692329925695,-0.11206124595192213,1,True
2023-06-12,0.17432692329925695,0.17432692329925695,0.0,0,False
2023-06-13,0.17432692329925695,0.17326271845872535,-0.6104649932384465,2,True
2023-06-14,0.17326271845872535,0.17326271845872535,0.0,0,False
2023-06-15,0.17326271845872535,0.17311694161309582,-0.08413630290826646,7,True
2023-06-16,0.17311694161309582,0.17284335201714832,-0.158037447634074,0,True
2023-06-17,0.17284335201714832,0.17249591647381582,-0.2010118059374566,1,True
2023-06-18,0.17249591647381582,0.17249591647381582,0.0,0,False
2023-06-19,0.17249591647381582,0.1737552019796004,0.7300378649692574,1,True
2023-06-20,0.1737552019796004,0.1741963652106069,0.2538992939378648,1,True
2023-06-21,0.1741963652106069,0.1741963652106069,0.0,0,False
2023-06-22,0.1741963652106069,0.17896890327685536,2.739746067880544,6,True
2023-06-23,0.17896890327685536,0.17915946720150425,0.10647879109708658,0,True
2023-06-24,0.17915946720150425,0.17892196134223592,-0.13256673676149688,1,True
2023-06-25,0.17892196134223592,0.17674224187243134,-1.2182514954859447,8,True
2023-06-26,0.17674224187243134,0.17674224187243134,0.0,0,False
2023-06-27,0.17674224187243134,0.17674224187243134,0.0,0,False
2023-06-28,0.17674224187243134,0.17674224187243134,0.0,0,False
2023-06-29,0.17674224187243134,0.17690163221716704,0.0901823712583294,2,True
2023-06-30,0.17690163221716704,0.17358631566420102,-1.8741017318009145,10,True
2023-07-01,0.17358631566420102,0.17506182072742588,0.8500123166846896,4,True
2023-07-02,0.17506182072742588,0.17506182072742588,0.0,0,False
2023-07-03,0.17506182072742588,0.17506182072742588,0.0,0,False
2023-07-04,0.17506182072742588,0.1747046073637865,-0.20404983916827435,1,True
2023-07-05,0.1747046073637865,0.17381769149933,-0.5076659842231268,2,True
2023-07-06,0.17381769149933,0.1743977200666458,0.3336993848626957,4,True
2023-07-07,0.1743977200666458,0.17420430961608935,-0.11090193752678612,0,True
2023-07-08,0.17420430961608935,0.17420430961608935,0.0,0,False
2023-07-09,0.17420430961608935,0.17420430961608935,0.0,0,False
2023-07-10,0.17420430961608935,0.1740830326965774,-0.06961763447713709,1,True
2023-07-11,0.1740830326965774,0.1740830326965774,0.0,0,False
2023-07-12,0.1740830326965774,0.17384116804090183,-0.138936375319898,1,True
2023-07-13,0.17384116804090183,0.17384116804090183,0.0,0,False
2023-07-14,0.17384116804090183,0.1729740337988066,-0.4988083385928488,1,True
2023-07-15,0.1729740337988066,0.172821672500126,-0.0880833355934918,7,True
2023-07-16,0.172821672500126,0.17230766282059082,-0.2974220027495811,2,True
2023-07-17,0.17230766282059082,0.17011626954309483,-1.2717909590461374,3,True
2023-07-18,0.17011626954309483,0.16763292639766755,-1.459791677831368,2,True
2023-07-19,0.16763292639766755,0.16696883699306694,-0.39615690000258663,1,True
2023-07-20,0.16696883699306694,0.16638156644285026,-0.35172464562417405,2,True
2023-07-21,0.16638156644285026,0.16638156644285026,0.0,0,False
2023-07-22,0.16638156644285026,0.16638156644285026,0.0,0,False
2023-07-23,0.16638156644285026,0.16638156644285026,0.0,0,False
2023-07-24,0.16638156644285026,0.16411285181090682,-1.3635612889380533,8,True
2023-07-25,0.16411285181090682,0.16373403821194293,-0.23082506627839505,0,True
2023-07-26,0.16373403821194293,0.16373403821194293,0.0,0,False
2023-07-27,0.16373403821194293,0.16373403821194293,0.0,0,False
2023-07-28,0.16373403821194293,0.16373403821194293,0.0,0,False
2023-07-29,0.16373403821194293,0.16373403821194293,0.0,0,False
2023-07-30,0.16373403821194293,0.16373403821194293,0.0,0,False
2023-07-31,0.16373403821194293,0.16291904525663495,-0.49775414092764203,1,True
2023-08-01,0.16291904525663495,0.16396401700760346,0.6414055209582381,3,True
2023-08-02,0.16396401700760346,0.16381486824689015,-0.0909643246337355,0,True
2023-08-03,0.16381486824689015,0.16381486824689015,0.0,0,False
2023-08-04,0.16381486824689015,0.16381486824689015,0.0,0,False
2023-08-05,0.16381486824689015,0.16381486824689015,0.0,0,False
2023-08-06,0.16381486824689015,0.16406556792490035,0.15303841506764115,1,True
2023-08-07,0.16406556792490035,0.1634672586822247,-0.3646769095082325,3,True
2023-08-08,0.1634672586822247,0.16137380424545408,-1.280656722114748,5,True
2023-08-09,0.16137380424545408,0.16097596657559007,-0.24653175385199733,0,True
2023-08-10,0.16097596657559007,0.1601741601417364,-0.49809077150479997,1,True
2023-08-11,0.1601741601417364,0.1601741601417364,0.0,0,False
2023-08-12,0.1601741601417364,0.1601741601417364,0.0,0,False
2023-08-13,0.1601741601417364,0.16083434891223902,0.41216933487799867,2,True
2023-08-14,0.16083434891223902,0.15962664013290503,-0.7509022714998426,8,True
2023-08-15,0.15962664013290503,0.15825891091783842,-0.8568301719110605,2,True
2023-08-16,0.15825891091783842,0.1600664857214503,1.1421630498584134,8,True
2023-08-17,0.1600664857214503,0.1573597782809506,-1.690989483713623,8,True
2023-08-18,0.1573597782809506,0.16587492448271213,5.4112596590969675,7,True
2023-08-19,0.16587492448271213,0.16655568677974872,0.41040699741663467,3,True
2023-08-20,0.16655568677974872,0.16575578347361294,-0.480261780069724,1,True
2023-08-21,0.16575578347361294,0.16513979629968775,-0.3716233370663957,1,True
2023-08-22,0.16513979629968775,0.16475393494869214,-0.2336573979389911,4,True
2023-08-23,0.16475393494869214,0.16536555388233048,0.3712317607642124,1,True
2023-08-24,0.16536555388233048,0.16536555388233048,0.0,0,False
2023-08-25,0.16536555388233048,0.16444945929459734,-0.5539815071674559,9,True
2023-08-26,0.16444945929459734,0.1647669085713955,0.19303759231550366,2,True
2023-08-27,0.1647669085713955,0.1647669085713955,0.0,0,False
2023-08-28,0.1647669085713955,0.16386262531543058,-0.5488257707846,2,True
2023-08-29,0.16386262531543058,0.16515580333781804,0.789184244972363,3,True
2023-08-30,0.16515580333781804,0.16454268295351338,-0.37123756593073765,3,True
2023-08-31,0.16454268295351338,0.16479032789651923,0.15050498664581635,3,True
2023-09-01,0.16479032789651923,0.16503196706019924,0.14663431207670996,4,True
2023-09-02,0.16503196706019924,0.16314395974800175,-1.1440252127085104,4,True
2023-09-03,0.16314395974800175,0.16248373780707687,-0.4046867208229332,4,True
2023-09-04,0.16248373780707687,0.16124173714949686,-0.7643845927859494,7,True
2023-09-05,0.16124173714949686,0.1618401286008958,0.37111449056403956,2,True
2023-09-06,0.1618401286008958,0.16709593697735461,3.2475310183544437,5,True
2023-09-07,0.16709593697735461,0.16606557541128691,-0.6166287371830781,3,True
2023-09-08,0.16606557541128691,0.16727402971161634,0.7276970542127836,12,True
2023-09-09,0.16727402971161634,0.1644425497469502,-1.6927194075181173,8,True
2023-09-10,0.1644425497469502,0.16135865055941398,-1.8753657081344355,7,True
2023-09-11,0.16135865055941398,0.16070420946672656,-0.4055816595010753,1,True
2023-09-12,0.16070420946672656,0.15994467745721844,-0.4726273269558545,2,True
2023-09-13,0.15994467745721844,0.15962918428486372,-0.19725143554033542,2,True
2023-09-14,0.15962918428486372,0.1589196309108155,-0.44450103358417703,4,True
2023-09-15,0.1589196309108155,0.15827490968753485,-0.4056901086326281,1,True
2023-09-16,0.15827490968753485,0.1605079306205519,1.4108496017628314,8,True
2023-09-17,0.1605079306205519,0.16078351488802073,0.17169510964558654,5,True
2023-09-18,0.16078351488802073,0.1580525037227018,-1.6985641638826987,4,True
2023-09-19,0.1580525037227018,0.15930539076812514,0.7927030675967561,1,True
2023-09-20,0.15930539076812514,0.1600457949535853,0.46477032691119025,3,True
2023-09-21,0.1600457949535853,0.1624137661552373,1.4795585240704012,2,True
2023-09-22,0.1624137661552373,0.1653377341791397,1.8003203134318024,1,True
2023-09-23,0.1653377341791397,0.1645131310424009,-0.4987386217869427,1,True
2023-09-24,0.1645131310424009,0.1643233200166519,-0.11537743190850325,1,True
2023-09-25,0.1643233200166519,0.16365736928530256,-0.40526854696086856,1,True
2023-09-26,0.16365736928530256,0.1638399497234448,0.1115626133669112,1,True
2023-09-27,0.1638399497234448,0.1623582687013778,-0.9043466044563742,1,True
2023-09-28,0.1623582687013778,0.1625828696285442,0.13833661134901032,3,True
2023-09-29,0.1625828696285442,0.16132642196403985,-0.7728044580434523,2,True
2023-09-30,0.16132642196403985,0.16132642196403985,0.0,0,False
2023-10-01,0.16132642196403985,0.1611346200682156,-0.11889056577910617,1,True
2023-10-02,0.1611346200682156,0.1608206807559445,-0.19483045427370893,1,True
2023-10-03,0.1608206807559445,0.16143338157607945,0.38098384937492735,2,True
2023-10-04,0.16143338157607945,0.1590311778584267,-1.48804645866919,7,True
2023-10-05,0.1590311778584267,0.15797093820361818,-0.666686664266769,2,True
2023-10-06,0.15797093820361818,0.15797093820361818,0.0,0,False
2023-10-07,0.15797093820361818,0.1571992966331503,-0.48847058784525776,1,True
2023-10-08,0.1571992966331503,0.15678597541044906,-0.26292816288217,1,True
2023-10-09,0.15678597541044906,0.15481924352372523,-1.2544054923121384,5,True
2023-10-10,0.15481924352372523,0.15373161940270724,-0.7025122305621578,1,True
2023-10-11,0.15373161940270724,0.15373161940270724,0.0,0,False
2023-10-12,0.15373161940270724,0.15373161940270724,0.0,0,False
2023-10-13,0.15373161940270724,0.15373161940270724,0.0,0,False
2023-10-14,0.15373161940270724,0.15373161940270724,0.0,0,False
2023-10-15,0.15373161940270724,0.15371292959788616,-0.012157424018366392,1,True
2023-10-16,0.15371292959788616,0.15391633451365147,0.1323277855008076,2,True
2023-10-17,0.15391633451365147,0.1534284436223876,-0.31698447913635075,2,True
2023-10-18,0.1534284436223876,0.15217978142727384,-0.8138400974638915,4,True
2023-10-19,0.15217978142727384,0.14941815333386171,-1.8147141936406985,5,True
2023-10-20,0.14941815333386171,0.14941815333386171,0.0,0,False
2023-10-21,0.14941815333386171,0.14996202804298625,0.3639950681958215,2,True
2023-10-22,0.14996202804298625,0.15181777454026263,1.2374775944910654,1,True
2023-10-23,0.15181777454026263,0.15181777454026263,0.0,0,False
2023-10-24,0.15181777454026263,0.15038598387200416,-0.9430981797712734,9,True
2023-10-25,0.15038598387200416,0.1539387202072045,2.362411870925496,9,True
2023-10-26,0.1539387202072045,0.15554736070028463,1.044987570972955,10,True
2023-10-27,0.15554736070028463,0.1551604050324843,-0.24877032053660653,7,True
2023-10-28,0.1551604050324843,0.15631388686148404,0.7434124890034033,2,True
2023-10-29,0.15631388686148404,0.15631388686148404,0.0,0,False
2023-10-30,0.15631388686148404,0.15565199066823407,-0.42344042908771806,2,True
2023-10-31,0.15565199066823407,0.15442429214321618,-0.7887457910093043,7,True
2023-11-01,0.15442429214321618,0.15546127901960632,0.6715179729808396,5,True
2023-11-02,0.15546127901960632,0.15438085539370217,-0.6949792467408566,6,True
2023-11-03,0.15438085539370217,0.15254178532291146,-1.19125526678856,2,True
2023-11-04,0.15254178532291146,0.15175582867769488,-0.5152402297854408,4,True
2023-11-05,0.15175582867769488,0.14903246107773063,-1.7945719935069215,6,True
2023-11-06,0.14903246107773063,0.1463930465581557,-1.7710333040788395,6,True
2023-11-07,0.1463930465581557,0.1438673421518723,-1.7252898724804067,5,True
2023-11-08,0.1438673421518723,0.1438673421518723,0.0,0,False
2023-11-09,0.1438673421518723,0.14285607652743776,-0.7029153450037406,6,True
2023-11-10,0.14285607652743776,0.14045805096566352,-1.6786304230563487,12,True
2023-11-11,0.14045805096566352,0.13790860729911858,-1.8150925838834153,7,True
2023-11-12,0.13790860729911858,0.14063400980759858,1.97623814920318,7,True
2023-11-13,0.14063400980759858,0.13907936781109848,-1.1054523714619235,4,True
2023-11-14,0.13907936781109848,0.13874408886823042,-0.24107022353124785,11,True
2023-11-15,0.13874408886823042,0.13773850036215318,-0.7247793504430167,3,True
2023-11-16,0.13773850036215318,0.13753632280178024,-0.14678362247401155,5,True
2023-11-17,0.13753632280178024,0.13866343638511788,0.8195024851449961,5,True
2023-11-18,0.13866343638511788,0.13676540281249025,-1.3688060977777305,6,True
2023-11-19,0.13676540281249025,0.13480149681346407,-1.4359669614096515,4,True
2023-11-20,0.13480149681346407,0.13465696125463156,-0.10722103407539985,2,True
2023-11-21,0.13465696125463156,0.13107545329690012,-2.6597272984342224,6,True
2023-11-22,0.13107545329690012,0.13119665320052784,0.0924657520376293,6,True
2023-11-23,0.13119665320052784,0.13049839881496816,-0.5322196630217602,3,True
2023-11-24,0.13049839881496816,0.13351575476542224,2.3121785231497993,1,True
2023-11-25,0.13351575476542224,0.13302742739501633,-0.36574512967691986,5,True
2023-11-26,0.13302742739501633,0.13387066116742846,0.633879635895096,1,True
2023-11-27,0.13387066116742846,0.13404987424520215,0.1338703164762478,7,True
2023-11-28,0.13404987424520215,0.13253421340412988,-1.1306693494541054,5,True
2023-11-29,0.13253421340412988,0.132229602970171,-0.22983532035614207,3,True
2023-11-30,0.132229602970171,0.1313370046998791,-0.6750366409957742,4,True
2023-12-01,0.1313370046998791,0.1313370046998791,0.0,0,False
2023-12-02,0.1313370046998791,0.1313370046998791,0.0,0,False
2023-12-03,0.1313370046998791,0.13164712813851043,0.23612799708656595,5,True
2023-12-04,0.13164712813851043,0.13589913131057862,3.2298487875819903,8,True
2023-12-05,0.13589913131057862,0.13703561010624107,0.8362664166448486,9,True
2023-12-06,0.13703561010624107,0.13412839391522674,-2.1215041760024422,11,True
2023-12-07,0.13412839391522674,0.13168322681345648,-1.823004831710484,7,True
2023-12-08,0.13168322681345648,0.13126614575150994,-0.31673059055379316,2,True
2023-12-09,0.13126614575150994,0.13126614575150994,0.0,0,False
2023-12-10,0.13126614575150994,0.1307365973314219,-0.40341583662438785,3,True
2023-12-11,0.1307365973314219,0.1312820508038334,0.4172155949789369,8,True
2023-12-12,0.1312820508038334,0.1328440263606592,1.189786073009902,1,True
2023-12-13,0.1328440263606592,0.1318130075309564,-0.7761123009804582,7,True
2023-12-14,0.1318130075309564,0.13388281630629933,1.5702613984108105,3,True
2023-12-15,0.13388281630629933,0.13192081814738157,-1.4654592822644807,4,True
2023-12-16,0.13192081814738157,0.13259607855853614,0.511867967950419,5,True
2023-12-17,0.13259607855853614,0.13120494220817663,-1.0491534632718236,6,True
2023-12-18,0.13120494220817663,0.13100147327810593,-0.15507718432424822,9,True
2023-12-19,0.13100147327810593,0.1303925592516082,-0.4648146400652031,4,True
2023-12-20,0.1303925592516082,0.1297798822201947,-0.469871160540114,2,True
2023-12-21,0.1297798822201947,0.12842214491472503,-1.0461847262012713,3,True
2023-12-22,0.12842214491472503,0.12796232995384063,-0.358049588090692,2,True
2023-12-23,0.12796232995384063,0.12770355961033986,-0.20222384477847077,3,True
2023-12-24,0.12770355961033986,0.12974734214172706,1.6004115606670366,4,True
2023-12-25,0.12974734214172706,0.12751805259045723,-1.71817743197753,6,True
2023-12-26,0.12751805259045723,0.12592522348241167,-1.2491008729259456,4,True
2023-12-27,0.12592522348241167,0.12421263597301282,-1.3600035497558949,13,True
2023-12-28,0.12421263597301282,0.12254692522072329,-1.3410155410045754,8,True
2023-12-29,0.12254692522072329,0.12320467382650911,0.5367320351784777,4,True
2023-12-30,0.12320467382650911,0.12055304268490263,-2.152216356126535,4,True
2023-12-31,0.12055304268490263,0.11886695202902371,-1.3986296972080314,3,True
