day,start_equity,end_equity,return_pct,entries,active
2024-01-02,1.0,1.0,0.0,0,False
2024-01-03,1.0,0.9935163439506344,-0.6483656049365627,6,True
2024-01-04,0.9935163439506344,0.9997726322242819,0.6297116611861497,1,True
2024-01-05,0.9997726322242819,0.9986514516674994,-0.1121435535085813,1,True
2024-01-06,0.9986514516674994,0.9986013913468252,-0.005012792059788662,2,True
2024-01-07,0.9986013913468252,0.9967887408016007,-0.18151892846651752,1,True
2024-01-08,0.9967887408016007,1.003426838977386,0.6659483503442143,3,True
2024-01-09,1.003426838977386,1.0071998323031455,0.3760108040965493,0,True
2024-01-10,1.0071998323031455,1.0071998323031455,0.0,0,False
2024-01-11,1.0071998323031455,1.0080218159581553,0.08161078155963786,1,True
2024-01-12,1.0080218159581553,1.0062131270947323,-0.17942953563001574,2,True
2024-01-13,1.0062131270947323,1.010462584067265,0.4223217584928829,4,True
2024-01-14,1.010462584067265,1.015388566611623,0.48749776805492306,0,True
2024-01-15,1.015388566611623,1.015388566611623,0.0,0,False
2024-01-16,1.015388566611623,1.0150664884380574,-0.03171969669112373,1,True
2024-01-17,1.0150664884380574,1.0194157842712146,0.42847398497509737,0,True
2024-01-18,1.0194157842712146,1.0194157842712146,0.0,0,False
2024-01-19,1.0194157842712146,1.0194157842712146,0.0,0,False
2024-01-20,1.0194157842712146,1.0338102457854297,1.412030472385295,6,True
2024-01-21,1.0338102457854297,1.035704370308794,0.1832178130451112,0,True
2024-01-22,1.035704370308794,1.035704370308794,0.0,0,False
2024-01-23,1.035704370308794,1.0168647959240846,-1.819010803159249,8,True
2024-01-24,1.0168647959240846,1.0319225798957392,1.480804924313528,0,True
2024-01-25,1.0319225798957392,1.026772463486914,-0.49907972837900383,1,True
2024-01-26,1.026772463486914,1.026772463486914,0.0,0,False
2024-01-27,1.026772463486914,1.026772463486914,0.0,0,False
2024-01-28,1.026772463486914,1.026772463486914,0.0,0,False
2024-01-29,1.026772463486914,1.026772463486914,0.0,0,False
2024-01-30,1.026772463486914,1.026772463486914,0.0,0,False
2024-01-31,1.026772463486914,1.0216434212012393,-0.49953056476178537,1,True
2024-02-01,1.0216434212012393,1.0216434212012393,0.0,0,False
2024-02-02,1.0216434212012393,1.0214371501922195,-0.02019011768090717,2,True
2024-02-03,1.0214371501922195,1.0298303035322534,0.8217004187143884,1,True
2024-02-04,1.0298303035322534,1.02818280360594,-0.1599778061164625,1,True
2024-02-05,1.02818280360594,1.02818280360594,0.0,0,False
2024-02-06,1.02818280360594,1.0230594319692903,-0.4982938460633135,1,True
2024-02-07,1.0230594319692903,1.0227206114717085,-0.03311835920710715,3,True
2024-02-08,1.0227206114717085,1.0380501454923963,1.498897533572574,0,True
2024-02-09,1.0380501454923963,1.0380501454923963,0.0,0,False
2024-02-10,1.0380501454923963,1.0380501454923963,0.0,0,False
2024-02-11,1.0380501454923963,1.0380501454923963,0.0,0,False
2024-02-12,1.0380501454923963,1.0380501454923963,0.0,0,False
2024-02-13,1.0380501454923963,1.0380501454923963,0.0,0,False
2024-02-14,1.0380501454923963,1.0394074336116677,0.1307536177481694,1,True
2024-02-15,1.0394074336116677,1.0368124459352712,-0.24966029609577722,0,True
2024-02-16,1.0368124459352712,1.0421005976713666,0.5100393766324096,1,True
2024-02-17,1.0421005976713666,1.0381259862580496,-0.38140381285630687,2,True
2024-02-18,1.0381259862580496,1.0385091974005618,0.036913741451893856,0,True
2024-02-19,1.0385091974005618,1.0385091974005618,0.0,0,False
2024-02-20,1.0385091974005618,1.0369833795631052,-0.1469238636764958,7,True
2024-02-21,1.0369833795631052,1.0188473922248693,-1.7489178414678896,4,True
2024-02-22,1.0188473922248693,1.0432444714143734,2.394576398358139,3,True
2024-02-23,1.0432444714143734,1.049888819916005,0.6368927594338158,1,True
2024-02-24,1.049888819916005,1.0621159112167238,1.1646082012471526,3,True
2024-02-25,1.0621159112167238,1.059401973880301,-0.25552176629325407,1,True
2024-02-26,1.059401973880301,1.0648131774744067,0.5107790741871066,0,True
2024-02-27,1.0648131774744067,1.064717284507082,-0.009005614257340255,1,True
2024-02-28,1.064717284507082,1.0646230881759955,-0.00884707447292854,1,True
2024-02-29,1.0646230881759955,1.0848484964440814,1.8997717119528135,5,True
2024-03-01,1.0848484964440814,1.0834153441297307,-0.1321062175085541,1,True
2024-03-02,1.0834153441297307,1.082979447878704,-0.040233531248057286,1,True
2024-03-03,1.082979447878704,1.085738745502384,0.25478762584874026,6,True
2024-03-04,1.085738745502384,1.1024107455348828,1.5355443564634585,0,True
2024-03-05,1.1024107455348828,1.0963253102057842,-0.552011612164216,5,True
2024-03-06,1.0963253102057842,1.0742964356289966,-2.0093374084971805,4,True
2024-03-07,1.0742964356289966,1.0742964356289966,0.0,0,False
2024-03-08,1.0742964356289966,1.0752156651564007,0.08556572440510113,2,True
2024-03-09,1.0752156651564007,1.0726907656634144,-0.23482726068904114,3,True
2024-03-10,1.0726907656634144,1.078682191676159,0.5585417721983621,2,True
2024-03-11,1.078682191676159,1.0711248980811294,-0.7006042793092249,0,True
2024-03-12,1.0711248980811294,1.0671696989027186,-0.3692565811415971,1,True
2024-03-13,1.0671696989027186,1.0723228408248424,0.4828793328204739,2,True
2024-03-14,1.0723228408248424,1.0699948964493322,-0.21709361088676493,1,True
2024-03-15,1.0699948964493322,1.0554803150796777,-1.356509401850392,10,True
2024-03-16,1.0554803150796777,1.065539897798415,0.9530810357157637,1,True
2024-03-17,1.065539897798415,1.0500353003846548,-1.4550930890335767,4,True
2024-03-18,1.0500353003846548,1.0513388286580816,0.12414137628986577,0,True
2024-03-19,1.0513388286580816,1.0358373112488652,-1.474454950836579,8,True
2024-03-20,1.0358373112488652,1.0332993565020676,-0.24501480292670186,0,True
2024-03-21,1.0332993565020676,1.0378793440973975,0.4432391800604618,2,True
2024-03-22,1.0378793440973975,1.0378793440973975,0.0,0,False
2024-03-23,1.0378793440973975,1.0396946771958209,0.1749079128270159,1,True
2024-03-24,1.0396946771958209,1.0372917500876917,-0.23111853516555314,2,True
2024-03-25,1.0372917500876917,1.0457750279879294,0.8178294968142374,2,True
2024-03-26,1.0457750279879294,1.0496488000415032,0.37042116611130105,2,True
2024-03-27,1.0496488000415032,1.0489705452201419,-0.06461731022171513,2,True
2024-03-28,1.0489705452201419,1.044606384660174,-0.4160422406381259,0,True
2024-03-29,1.044606384660174,1.0334426835064268,-1.0686993031714054,4,True
2024-03-30,1.0334426835064268,1.033329471355263,-0.010954855355849169,0,True
2024-03-31,1.033329471355263,1.033329471355263,0.0,0,False
2024-04-01,1.033329471355263,1.0322118750702345,-0.10815488341416879,4,True
2024-04-02,1.0322118750702345,1.0048247978044877,-2.653241832146458,5,True
2024-04-03,1.0048247978044877,0.9875087134961114,-1.7232938862786318,1,True
2024-04-04,0.9875087134961114,0.9870401485133161,-0.047449199828963895,1,True
2024-04-05,0.9870401485133161,0.9727038975693348,-1.4524486127108993,3,True
2024-04-06,0.9727038975693348,0.9714439554711088,-0.1295298704337866,1,True
2024-04-07,0.9714439554711088,0.984231137348653,1.3163067005077966,1,True
2024-04-08,0.984231137348653,0.984231137348653,0.0,0,False
2024-04-09,0.984231137348653,0.9793216296724676,-0.4988165370799713,1,True
2024-04-10,0.9793216296724676,0.97351361050988,-0.5930655452315636,4,True
2024-04-11,0.97351361050988,0.9788442562462027,0.5475676640546157,1,True
2024-04-12,0.9788442562462027,0.973109607848777,-0.5858591252726697,2,True
2024-04-13,0.973109607848777,0.9468836476992032,-2.695067435162901,7,True
2024-04-14,0.9468836476992032,0.90202938985054,-4.737040074316711,13,True
2024-04-15,0.90202938985054,0.9111948410732145,1.0160923053951887,0,True
2024-04-16,0.9111948410732145,0.9111948410732145,0.0,0,False
2024-04-17,0.9111948410732145,0.9111948410732145,0.0,0,False
2024-04-18,0.9111948410732145,0.9111948410732145,0.0,0,False
2024-04-19,0.9111948410732145,0.9163524375066869,0.5660256402898245,4,True
2024-04-20,0.9163524375066869,0.9135024177904779,-0.3110178572737432,0,True
2024-04-21,0.9135024177904779,0.9135024177904779,0.0,0,False
2024-04-22,0.9135024177904779,0.9135024177904779,0.0,0,False
2024-04-23,0.9135024177904779,0.9153961382645174,0.20730327989935127,1,True
2024-04-24,0.9153961382645174,0.9126054009674659,-0.30486662335525994,1,True
2024-04-25,0.9126054009674659,0.9099022519893366,-0.2962012908606093,0,True
2024-04-26,0.9099022519893366,0.9099022519893366,0.0,0,False
2024-04-27,0.9099022519893366,0.9174741097409221,0.8321616673693244,3,True
2024-04-28,0.9174741097409221,0.919989017039433,0.27411207267975524,1,True
2024-04-29,0.919989017039433,0.9227960707437105,0.3051181755746146,2,True
2024-04-30,0.9227960707437105,0.9200874799066076,-0.29351997943815045,2,True
2024-05-01,0.9200874799066076,0.9150856198059011,-0.5436287537804785,3,True
2024-05-02,0.9150856198059011,0.9183568439920476,0.35747738958464836,1,True
2024-05-03,0.9183568439920476,0.9162902330916263,-0.2250335383180646,1,True
2024-05-04,0.9162902330916263,0.9170022005035198,0.07770108052895797,0,True
2024-05-05,0.9170022005035198,0.9141152237135404,-0.3148276839896602,1,True
2024-05-06,0.9141152237135404,0.9154392800910313,0.14484567624986067,0,True
2024-05-07,0.9154392800910313,0.9204239057878293,0.544506424970348,2,True
2024-05-08,0.9204239057878293,0.9228717241852677,0.2659446785384434,2,True
2024-05-09,0.9228717241852677,0.9203983770610337,-0.2680055157630479,1,True
2024-05-10,0.9203983770610337,0.9232353369330366,0.30823173342198196,0,True
2024-05-11,0.9232353369330366,0.9164197307004861,-0.738230650398608,3,True
2024-05-12,0.9164197307004861,0.9160467885970099,-0.04069555586621032,0,True
2024-05-13,0.9160467885970099,0.9174015204998222,0.1478889418833118,3,True
2024-05-14,0.9174015204998222,0.9178357677140421,0.04733447727265361,3,True
2024-05-15,0.9178357677140421,0.923227368377921,0.5874254254992994,1,True
2024-05-16,0.923227368377921,0.9241089389588816,0.09548791675333401,0,True
2024-05-17,0.9241089389588816,0.9241089389588816,0.0,0,False
2024-05-18,0.9241089389588816,0.9294856755467368,0.5818293018475362,2,True
2024-05-19,0.9294856755467368,0.9288189915484223,-0.0717261186324758,0,True
2024-05-20,0.9288189915484223,0.9262769447960922,-0.2736859146357684,1,True
2024-05-21,0.9262769447960922,0.9211162103864624,-0.5571481011832691,2,True
2024-05-22,0.9211162103864624,0.9245007109738843,0.36743470034057424,1,True
2024-05-23,0.9245007109738843,0.9199882827977536,-0.4880935322783331,1,True
2024-05-24,0.9199882827977536,0.9252659895028776,0.5736710786222288,2,True
2024-05-25,0.9252659895028776,0.9249705446233306,-0.03193080507646329,0,True
2024-05-26,0.9249705446233306,0.9266147185180592,0.17775418950212174,2,True
2024-05-27,0.9266147185180592,0.9393156287987445,1.3706786679363203,2,True
2024-05-28,0.9393156287987445,0.9470169144696469,0.8198826288828176,1,True
2024-05-29,0.9470169144696469,0.9470169144696469,0.0,0,False
2024-05-30,0.9470169144696469,0.9431097010327738,-0.41258116694369296,3,True
2024-05-31,0.9431097010327738,0.9402341408822165,-0.30490197984480716,0,True
2024-06-01,0.9402341408822165,0.9383243865445979,-0.203114762013068,2,True
2024-06-02,0.9383243865445979,0.9475503637931798,0.983239632357491,0,True
2024-06-03,0.9475503637931798,0.9486099569168914,0.11182446487276732,1,True
2024-06-04,0.9486099569168914,0.956867586498354,0.8704978817954734,3,True
2024-06-05,0.956867586498354,0.9595373087837102,0.279006450111452,0,True
2024-06-06,0.9595373087837102,0.9607233590152614,0.12360647373415024,1,True
2024-06-07,0.9607233590152614,0.9600441590644155,-0.07069672497003188,0,True
2024-06-08,0.9600441590644155,0.9761281553829335,1.6753392192075944,5,True
2024-06-09,0.9761281553829335,0.9763992107198246,0.027768417025608727,0,True
2024-06-10,0.9763992107198246,0.9763992107198246,0.0,0,False
2024-06-11,0.9763992107198246,0.9766138899516041,0.021986829712949962,1,True
2024-06-12,0.9766138899516041,0.9865331030178204,1.0156739698539141,1,True
2024-06-13,0.9865331030178204,0.981067597680121,-0.5540113475138719,1,True
2024-06-14,0.981067597680121,0.9722900912927908,-0.8946892556726871,4,True
2024-06-15,0.9722900912927908,0.9819299288461594,0.9914569365353954,4,True
2024-06-16,0.9819299288461594,0.9822498013596749,0.03257590018581613,0,True
2024-06-17,0.9822498013596749,0.9724768687156874,-0.9949538936489866,2,True
2024-06-18,0.9724768687156874,0.9773008665558411,0.4960527078165411,5,True
2024-06-19,0.9773008665558411,0.989740506211538,1.2728567098825971,0,True
2024-06-20,0.989740506211538,0.9991063578040911,0.9462936531114741,1,True
2024-06-21,0.9991063578040911,0.9976510006585281,-0.14566588774008737,1,True
2024-06-22,0.9976510006585281,0.9983254702051391,0.06760576054809508,0,True
2024-06-23,0.9983254702051391,0.997241998163723,-0.10852893908369632,2,True
2024-06-24,0.997241998163723,0.9925554044608798,-0.469955508439579,0,True
2024-06-25,0.9925554044608798,0.9925554044608798,0.0,0,False
2024-06-26,0.9925554044608798,0.9925554044608798,0.0,0,False
2024-06-27,0.9925554044608798,0.987609744984319,-0.4982754065247508,1,True
2024-06-28,0.987609744984319,0.987423396775828,-0.018868607710420537,1,True
2024-06-29,0.987423396775828,0.9755366099499758,-1.2038186318721444,3,True
2024-06-30,0.9755366099499758,0.9713688622319654,-0.42722617229343784,0,True
2024-07-01,0.9713688622319654,0.9651374646147244,-0.6415068322164208,2,True
2024-07-02,0.9651374646147244,0.9693521631528351,0.4366941179506645,0,True
2024-07-03,0.9693521631528351,0.9645097868974957,-0.49954768136994954,1,True
2024-07-04,0.9645097868974957,0.9516037970160899,-1.3380880170143272,4,True
2024-07-05,0.9516037970160899,0.9239436289770426,-2.9066895409392335,12,True
2024-07-06,0.9239436289770426,0.9314558743058639,0.8130631667581767,0,True
2024-07-07,0.9314558743058639,0.9314558743058639,0.0,0,False
2024-07-08,0.9314558743058639,0.9328199489074283,0.14644543442070557,2,True
2024-07-09,0.9328199489074283,0.9339943867223212,0.12590187594814228,1,True
2024-07-10,0.9339943867223212,0.9375421940596629,0.37985317554125597,1,True
2024-07-11,0.9375421940596629,0.9272599952086433,-1.0967185174350913,2,True
2024-07-12,0.9272599952086433,0.9272599952086433,0.0,0,False
2024-07-13,0.9272599952086433,0.9272599952086433,0.0,0,False
2024-07-14,0.9272599952086433,0.9280763817952733,0.08804289960189227,1,True
2024-07-15,0.9280763817952733,0.9301255056524456,0.2207925874816885,0,True
2024-07-16,0.9301255056524456,0.9301255056524456,0.0,0,False
2024-07-17,0.9301255056524456,0.9301255056524456,0.0,0,False
2024-07-18,0.9301255056524456,0.9301255056524456,0.0,0,False
2024-07-19,0.9301255056524456,0.9271465128729746,-0.3202785819082954,2,True
2024-07-20,0.9271465128729746,0.9280484331388251,0.097279152035612,0,True
2024-07-21,0.9280484331388251,0.927840324484574,-0.022424331190051827,1,True
2024-07-22,0.927840324484574,0.9277496576771322,-0.009771811490533189,1,True
2024-07-23,0.9277496576771322,0.9245690168793027,-0.3428339500327171,3,True
2024-07-24,0.9245690168793027,0.921023330772494,-0.3834960984066327,1,True
2024-07-25,0.921023330772494,0.9201396290299583,-0.09594781293916776,0,True
2024-07-26,0.9201396290299583,0.9201396290299583,0.0,0,False
2024-07-27,0.9201396290299583,0.9201396290299583,0.0,0,False
2024-07-28,0.9201396290299583,0.9175969145622563,-0.27634006703770586,1,True
2024-07-29,0.9175969145622563,0.9175969145622563,0.0,0,False
2024-07-30,0.9175969145622563,0.9150761152351459,-0.2747175025444637,2,True
2024-07-31,0.9150761152351459,0.9075584280289041,-0.8215368187497685,3,True
2024-08-01,0.9075584280289041,0.9047342486544576,-0.3111843036464501,0,True
2024-08-02,0.9047342486544576,0.8977853718803133,-0.7680572261389296,4,True
2024-08-03,0.8977853718803133,0.8992640633191518,0.16470433637625348,5,True
2024-08-04,0.8992640633191518,0.8754128070801004,-2.6523083943794212,2,True
2024-08-05,0.8754128070801004,0.858550108789777,-1.9262567504087724,8,True
2024-08-06,0.858550108789777,0.8647110652715236,0.7176001049526537,0,True
2024-08-07,0.8647110652715236,0.8647110652715236,0.0,0,False
2024-08-08,0.8647110652715236,0.8647110652715236,0.0,0,False
2024-08-09,0.8647110652715236,0.8647110652715236,0.0,0,False
2024-08-10,0.8647110652715236,0.8647110652715236,0.0,0,False
2024-08-11,0.8647110652715236,0.8612744417681888,-0.3974302679075503,1,True
2024-08-12,0.8612744417681888,0.8613622764553521,0.010198222878066154,1,True
2024-08-13,0.8613622764553521,0.8560870644595113,-0.6124266339535,0,True
2024-08-14,0.8560870644595113,0.8560870644595113,0.0,0,False
2024-08-15,0.8560870644595113,0.8560870644595113,0.0,0,False
2024-08-16,0.8560870644595113,0.8560870644595113,0.0,0,False
2024-08-17,0.8560870644595113,0.8640717752196071,0.9326984475739986,1,True
2024-08-18,0.8640717752196071,0.8640717752196071,0.0,0,False
2024-08-19,0.8640717752196071,0.8636501627999781,-0.048793680307612775,1,True
2024-08-20,0.8636501627999781,0.8559981555027862,-0.8860077409565736,2,True
2024-08-21,0.8559981555027862,0.8591042410629347,0.362861244522672,0,True
2024-08-22,0.8591042410629347,0.8591042410629347,0.0,0,False
2024-08-23,0.8591042410629347,0.8591042410629347,0.0,0,False
2024-08-24,0.8591042410629347,0.8577105938544518,-0.16222096712718015,1,True
2024-08-25,0.8577105938544518,0.8554214983518459,-0.26688436857460474,2,True
2024-08-26,0.8554214983518459,0.856542667347149,0.13106626352779038,2,True
2024-08-27,0.856542667347149,0.8502084071748186,-0.7395148442457256,0,True
2024-08-28,0.8502084071748186,0.8524087834713283,0.258804344669028,4,True
2024-08-29,0.8524087834713283,0.842491550561693,-1.1634362646110508,2,True
2024-08-30,0.842491550561693,0.8433703081762884,0.10430462050445843,0,True
2024-08-31,0.8433703081762884,0.8433703081762884,0.0,0,False
2024-09-01,0.8433703081762884,0.8408914487157012,-0.2939230177485763,1,True
2024-09-02,0.8408914487157012,0.8415569451249869,0.07914177392362998,0,True
2024-09-03,0.8415569451249869,0.8415569451249869,0.0,0,False
2024-09-04,0.8415569451249869,0.8415569451249869,0.0,0,False
2024-09-05,0.8415569451249869,0.8415569451249869,0.0,0,False
2024-09-06,0.8415569451249869,0.841460949576777,-0.011406898697230439,1,True
2024-09-07,0.841460949576777,0.8426694263484694,0.14361650083705157,0,True
2024-09-08,0.8426694263484694,0.8426694263484694,0.0,0,False
2024-09-09,0.8426694263484694,0.8426694263484694,0.0,0,False
2024-09-10,0.8426694263484694,0.8426694263484694,0.0,0,False
2024-09-11,0.8426694263484694,0.8384659421878223,-0.4988295563139178,1,True
2024-09-12,0.8384659421878223,0.8384659421878223,0.0,0,False
2024-09-13,0.8384659421878223,0.8383714634856736,-0.011268042909673426,1,True
2024-09-14,0.8383714634856736,0.8398981715676542,0.18210401337290794,0,True
2024-09-15,0.8398981715676542,0.8417744555638964,0.22339422322352753,1,True
2024-09-16,0.8417744555638964,0.8419879890139835,0.025367062242831473,0,True
2024-09-17,0.8419879890139835,0.8419879890139835,0.0,0,False
2024-09-18,0.8419879890139835,0.8419879890139835,0.0,0,False
2024-09-19,0.8419879890139835,0.8419879890139835,0.0,0,False
2024-09-20,0.8419879890139835,0.8419879890139835,0.0,0,False
2024-09-21,0.8419879890139835,0.8419879890139835,0.0,0,False
2024-09-22,0.8419879890139835,0.8420585027035287,0.008374666915100804,1,True
2024-09-23,0.8420585027035287,0.8411162682218918,-0.11189655809088483,0,True
2024-09-24,0.8411162682218918,0.8411162682218918,0.0,0,False
2024-09-25,0.8411162682218918,0.8411162682218918,0.0,0,False
2024-09-26,0.8411162682218918,0.8411162682218918,0.0,0,False
2024-09-27,0.8411162682218918,0.8411162682218918,0.0,0,False
2024-09-28,0.8411162682218918,0.8411162682218918,0.0,0,False
2024-09-29,0.8411162682218918,0.8411162682218918,0.0,0,False
2024-09-30,0.8411162682218918,0.8394340446105636,-0.19999893889632858,1,True
2024-10-01,0.8394340446105636,0.8406198165762166,0.14125850306716536,0,True
2024-10-02,0.8406198165762166,0.8223141585975129,-2.177638168614837,7,True
2024-10-03,0.8223141585975129,0.8119461933809013,-1.2608277637216503,1,True
2024-10-04,0.8119461933809013,0.8119461933809013,0.0,0,False
2024-10-05,0.8119461933809013,0.8119461933809013,0.0,0,False
2024-10-06,0.8119461933809013,0.8119461933809013,0.0,0,False
2024-10-07,0.8119461933809013,0.8119461933809013,0.0,0,False
2024-10-08,0.8119461933809013,0.8119461933809013,0.0,0,False
2024-10-09,0.8119461933809013,0.8119461933809013,0.0,0,False
2024-10-10,0.8119461933809013,0.8119461933809013,0.0,0,False
2024-10-11,0.8119461933809013,0.8119461933809013,0.0,0,False
2024-10-12,0.8119461933809013,0.8119461933809013,0.0,0,False
2024-10-13,0.8119461933809013,0.8119461933809013,0.0,0,False
2024-10-14,0.8119461933809013,0.8119461933809013,0.0,0,False
2024-10-15,0.8119461933809013,0.8121392142366887,0.023772616629136323,1,True
2024-10-16,0.8121392142366887,0.8122213003263188,0.010107391465785653,3,True
2024-10-17,0.8122213003263188,0.8100304059560381,-0.2697410631068653,2,True
2024-10-18,0.8100304059560381,0.8159808226619448,0.7345917711426786,1,True
2024-10-19,0.8159808226619448,0.815261309487285,-0.08817770647018275,1,True
2024-10-20,0.815261309487285,0.8168418100232686,0.19386428836878355,2,True
2024-10-21,0.8168418100232686,0.8137629738794788,-0.3769195095072453,0,True
2024-10-22,0.8137629738794788,0.8137629738794788,0.0,0,False
2024-10-23,0.8137629738794788,0.8137629738794788,0.0,0,False
2024-10-24,0.8137629738794788,0.8133774629927862,-0.04737385443511766,1,True
2024-10-25,0.8133774629927862,0.8130755927052852,-0.03711318560393195,0,True
2024-10-26,0.8130755927052852,0.7960266876761181,-2.0968413247336004,9,True
2024-10-27,0.7960266876761181,0.8025833461608227,0.823673199179531,0,True
2024-10-28,0.8025833461608227,0.8025833461608227,0.0,0,False
2024-10-29,0.8025833461608227,0.8124201138754683,1.2256381548034767,2,True
2024-10-30,0.8124201138754683,0.8138330655121626,0.17391883984188006,0,True
2024-10-31,0.8138330655121626,0.8138330655121626,0.0,0,False
2024-11-01,0.8138330655121626,0.8131191663338858,-0.08772059142466704,2,True
2024-11-02,0.8131191663338858,0.810003802020845,-0.3831374836590129,0,True
2024-11-03,0.810003802020845,0.8044953156839951,-0.6800568494995884,2,True
2024-11-04,0.8044953156839951,0.8151205823698091,1.3207369239658373,3,True
2024-11-05,0.8151205823698091,0.816750870140734,0.2000057177043768,1,True
2024-11-06,0.816750870140734,0.8184439464808468,0.20729409689164147,1,True
2024-11-07,0.8184439464808468,0.8193326309949216,0.10858220870175739,1,True
2024-11-08,0.8193326309949216,0.8149116505990653,-0.5395830983184191,2,True
2024-11-09,0.8149116505990653,0.8160943313914272,0.14512994034290294,2,True
2024-11-10,0.8160943313914272,0.8208214687516251,0.5792390877336739,1,True
2024-11-11,0.8208214687516251,0.8207316193614638,-0.01094627681924587,2,True
2024-11-12,0.8207316193614638,0.8178690888128033,-0.34877790511927964,4,True
2024-11-13,0.8178690888128033,0.8139607482656196,-0.4778687201465126,0,True
2024-11-14,0.8139607482656196,0.8088520057599339,-0.6276399097341456,4,True
2024-11-15,0.8088520057599339,0.8190642385475203,1.2625588754016537,2,True
2024-11-16,0.8190642385475203,0.8229021047014873,0.4685671737753916,0,True
2024-11-17,0.8229021047014873,0.8170987950055676,-0.7052247968213465,4,True
2024-11-18,0.8170987950055676,0.8226966195750152,0.6850854026053677,1,True
2024-11-19,0.8226966195750152,0.8201089021037533,-0.3145409145595579,1,True
2024-11-20,0.8201089021037533,0.8215910984227681,0.1807316461524433,1,True
2024-11-21,0.8215910984227681,0.8332869736192748,1.423564011216727,3,True
2024-11-22,0.8332869736192748,0.8320025952133058,-0.15413398344517049,0,True
2024-11-23,0.8320025952133058,0.8320025952133058,0.0,0,False
2024-11-24,0.8320025952133058,0.826102275928122,-0.7091707789290025,6,True
2024-11-25,0.826102275928122,0.8293581417414309,0.39412381592229817,0,True
2024-11-26,0.8293581417414309,0.8251250775664071,-0.5104024379787853,2,True
2024-11-27,0.8251250775664071,0.8281702589592373,0.3690569436832103,0,True
2024-11-28,0.8281702589592373,0.8256989471262179,-0.2984062523719633,2,True
2024-11-29,0.8256989471262179,0.8360823940281716,1.2575342306166748,2,True
2024-11-30,0.8360823940281716,0.8354822792207119,-0.07177699372048485,0,True
2024-12-01,0.8354822792207119,0.8360994530503775,0.07387036745305497,1,True
2024-12-02,0.8360994530503775,0.8446064682926363,1.0174645146844963,6,True
2024-12-03,0.8446064682926363,0.8610100941930379,1.9421620028036601,5,True
2024-12-04,0.8610100941930379,0.8975278769220586,4.241272312056488,1,True
2024-12-05,0.8975278769220586,0.9102755616163791,1.4203107248364155,5,True
2024-12-06,0.9102755616163791,0.9083156017824853,-0.21531500092274447,1,True
2024-12-07,0.9083156017824853,0.9096553422601802,0.14749724380664908,1,True
2024-12-08,0.9096553422601802,0.9089228620891293,-0.08052282408751443,0,True
2024-12-09,0.9089228620891293,0.9089228620891293,0.0,0,False
2024-12-10,0.9089228620891293,0.8867173241317421,-2.4430607792556236,7,True
2024-12-11,0.8867173241317421,0.9003328226680122,1.5354948150587022,3,True
2024-12-12,0.9003328226680122,0.9038251674200019,0.3878948611070854,0,True
2024-12-13,0.9038251674200019,0.9038251674200019,0.0,0,False
2024-12-14,0.9038251674200019,0.9038251674200019,0.0,0,False
2024-12-15,0.9038251674200019,0.8986556593225129,-0.571958857070276,2,True
2024-12-16,0.8986556593225129,0.8988544987442199,0.02212631942437593,0,True
2024-12-17,0.8988544987442199,0.8988544987442199,0.0,0,False
2024-12-18,0.8988544987442199,0.8945180346720859,-0.48244338524114916,2,True
2024-12-19,0.8945180346720859,0.8787932235243382,-1.7579087886710032,5,True
2024-12-20,0.8787932235243382,0.8441702790506205,-3.939828340376228,10,True
2024-12-21,0.8441702790506205,0.8489174937899597,0.5623527453108235,1,True
2024-12-22,0.8489174937899597,0.851107954622111,0.25802988490342127,0,True
2024-12-23,0.851107954622111,0.849445700383481,-0.19530474713610468,1,True
2024-12-24,0.849445700383481,0.8575963388665393,0.959524367405562,0,True
2024-12-25,0.8575963388665393,0.8575963388665393,0.0,0,False
2024-12-26,0.8575963388665393,0.8575963388665393,0.0,0,False
2024-12-27,0.8575963388665393,0.8575963388665393,0.0,0,False
2024-12-28,0.8575963388665393,0.8533177617552513,-0.49890337882538827,1,True
2024-12-29,0.8533177617552513,0.857811612926544,0.5266327941011006,3,True
2024-12-30,0.857811612926544,0.858440850358842,0.0733538020255109,0,True
2024-12-31,0.858440850358842,0.858440850358842,0.0,0,False
