day,start_equity,end_equity,return_pct,entries,active
2024-01-02,1.0,1.0,0.0,0,False
2024-01-03,1.0,0.9935163439506344,-0.6483656049365627,6,True
2024-01-04,0.9935163439506344,0.9997726322242819,0.6297116611861497,1,True
2024-01-05,0.9997726322242819,0.9986514516674994,-0.1121435535085813,1,True
2024-01-06,0.9986514516674994,0.9986013913468252,-0.005012792059788662,2,True
2024-01-07,0.9986013913468252,0.9967887408016007,-0.18151892846651752,1,True
2024-01-08,0.9967887408016007,1.0016909419613182,0.49179941135524263,3,True
2024-01-09,1.0016909419613182,1.0172628962926498,1.5545667509822447,0,True
2024-01-10,1.0172628962926498,1.0172628962926498,0.0,0,False
2024-01-11,1.0172628962926498,1.0180930924928304,0.08161078155963786,1,True
2024-01-12,1.0180930924928304,1.016266332784689,-0.17942953563003794,2,True
2024-01-13,1.016266332784689,1.0205582466322762,0.4223217584928607,4,True
2024-01-14,1.0205582466322762,1.025533445306309,0.48749776805492306,0,True
2024-01-15,1.025533445306309,1.025533445306309,0.0,0,False
2024-01-16,1.025533445306309,1.025208149207992,-0.03171969669109043,1,True
2024-01-17,1.025208149207992,1.0296008994191927,0.42847398497507516,0,True
2024-01-18,1.0296008994191927,1.0296008994191927,0.0,0,False
2024-01-19,1.0296008994191927,1.0296008994191927,0.0,0,False
2024-01-20,1.0296008994191927,1.0441391778629447,1.412030472385295,6,True
2024-01-21,1.0441391778629447,1.0464079121931578,0.2172827510271702,0,True
2024-01-22,1.0464079121931578,1.0464079121931578,0.0,0,False
2024-01-23,1.0464079121931578,1.0273736392252513,-1.8190108031592267,8,True
2024-01-24,1.0273736392252513,1.0413409760693884,1.359518709733476,0,True
2024-01-25,1.0413409760693884,1.036143854354522,-0.4990797283789927,1,True
2024-01-26,1.036143854354522,1.036143854354522,0.0,0,False
2024-01-27,1.036143854354522,1.036143854354522,0.0,0,False
2024-01-28,1.036143854354522,1.036143854354522,0.0,0,False
2024-01-29,1.036143854354522,1.036143854354522,0.0,0,False
2024-01-30,1.036143854354522,1.036143854354522,0.0,0,False
2024-01-31,1.036143854354522,1.0309679991071206,-0.49953056476176316,1,True
2024-02-01,1.0309679991071206,1.0309679991071206,0.0,0,False
2024-02-02,1.0309679991071206,1.0307598454548483,-0.02019011768090717,2,True
2024-02-03,1.0307598454548483,1.0392296034208908,0.8217004187144106,1,True
2024-02-04,1.0392296034208908,1.0375670667008254,-0.1599778061164403,1,True
2024-02-05,1.0375670667008254,1.0375670667008254,0.0,0,False
2024-02-06,1.0375670667008254,1.0323969338586756,-0.4982938460633135,1,True
2024-02-07,1.0323969338586756,1.0320550209336767,-0.03311835920714046,3,True
2024-02-08,1.0320550209336767,1.0441673645826859,1.1736141391038846,0,True
2024-02-09,1.0441673645826859,1.0441673645826859,0.0,0,False
2024-02-10,1.0441673645826859,1.0441673645826859,0.0,0,False
2024-02-11,1.0441673645826859,1.0441673645826859,0.0,0,False
2024-02-12,1.0441673645826859,1.0441673645826859,0.0,0,False
2024-02-13,1.0441673645826859,1.0441673645826859,0.0,0,False
2024-02-14,1.0441673645826859,1.0455326511872234,0.1307536177481694,1,True
2024-02-15,1.0455326511872234,1.042922371274491,-0.24966029609579943,0,True
2024-02-16,1.042922371274491,1.0482416860356991,0.5100393766323874,1,True
2024-02-17,1.0482416860356991,1.0442436522772096,-0.38140381285631797,2,True
2024-02-18,1.0442436522772096,1.0446291216791388,0.03691374145187165,0,True
2024-02-19,1.0446291216791388,1.0446291216791388,0.0,0,False
2024-02-20,1.0446291216791388,1.0466908149279655,0.19736126497342799,7,True
2024-02-21,1.0466908149279655,1.0324601670214373,-1.3595846742485818,5,True
2024-02-22,1.0324601670214373,1.0566650384691736,2.344387921285662,2,True
2024-02-23,1.0566650384691736,1.063441389577186,0.6412960457014227,1,True
2024-02-24,1.063441389577186,1.0707965398859036,0.6916366412672792,2,True
2024-02-25,1.0707965398859036,1.0685855801012998,-0.20647804715911988,1,True
2024-02-26,1.0685855801012998,1.0740478911872808,0.5111720752832172,0,True
2024-02-27,1.0740478911872808,1.0739511665772614,-0.009005614257340255,1,True
2024-02-28,1.0739511665772614,1.073856153317751,-0.008847074472961847,1,True
2024-02-29,1.073856153317751,1.0951049588972317,1.978738540895919,5,True
2024-03-01,1.0951049588972317,1.0907379769328056,-0.39877291477372623,1,True
2024-03-02,1.0907379769328056,1.090299134528022,-0.040233531248057286,1,True
2024-03-03,1.090299134528022,1.0930770818075355,0.25478762584876247,6,True
2024-03-04,1.0930770818075355,1.1150355205650082,2.0088646192418347,0,True
2024-03-05,1.1150355205650082,1.1088803950117339,-0.5520116121641938,5,True
2024-03-06,1.1088803950117339,1.0838312706910265,-2.258956370172127,4,True
2024-03-07,1.0838312706910265,1.0851743827827516,0.12392261858884535,0,True
2024-03-08,1.0851743827827516,1.0861029201044379,0.08556572440507892,2,True
2024-03-09,1.0861029201044379,1.0835524543688926,-0.23482726068907445,3,True
2024-03-10,1.0835524543688926,1.096573598910526,1.2017087395383763,2,True
2024-03-11,1.096573598910526,1.0888980809086433,-0.6999546596333062,0,True
2024-03-12,1.0888980809086433,1.0848772530829633,-0.3692565811416193,1,True
2024-03-13,1.0848772530829633,1.089406247079285,0.4174660297698418,2,True
2024-03-14,1.089406247079285,1.098918102235491,0.8731228760352261,1,True
2024-03-15,1.098918102235491,1.0839853986952825,-1.3588549965490082,10,True
2024-03-16,1.0839853986952825,1.0945642499996937,0.9759219374305461,1,True
2024-03-17,1.0945642499996937,1.0786373698391043,-1.4550886492587178,4,True
2024-03-18,1.0786373698391043,1.0799764050849732,0.12414137348761844,0,True
2024-03-19,1.0799764050849732,1.064052639512331,-1.4744549508365568,8,True
2024-03-20,1.064052639512331,1.0614455530345936,-0.24501480292669076,0,True
2024-03-21,1.0614455530345936,1.0646368997145854,0.3006604220883391,2,True
2024-03-22,1.0646368997145854,1.065491159206928,0.0802395157045277,0,True
2024-03-23,1.065491159206928,1.067354787554853,0.1749079128269937,1,True
2024-03-24,1.067354787554853,1.0648879328048368,-0.23111853516555314,2,True
2024-03-25,1.0648879328048368,1.0735969004273298,0.817829496814193,2,True
2024-03-26,1.0735969004273298,1.0883477709703104,1.3739673183770673,2,True
2024-03-27,1.0883477709703104,1.0876445099148513,-0.06461731022172623,2,True
2024-03-28,1.0876445099148513,1.0831194493256242,-0.4160422406381037,0,True
2024-03-29,1.0831194493256242,1.0715441593181674,-1.0686993031713943,4,True
2024-03-30,1.0715441593181674,1.0714267732054399,-0.010954855355860271,0,True
2024-03-31,1.0714267732054399,1.0714267732054399,0.0,0,False
2024-04-01,1.0714267732054399,1.0702679728280111,-0.108154883414191,4,True
2024-04-02,1.0702679728280111,1.0418711752568726,-2.653241832146447,5,True
2024-04-03,1.0418711752568726,1.0239166729907714,-1.7232938862786429,1,True
2024-04-04,1.0239166729907714,1.0234308327225219,-0.047449199828963895,1,True
2024-04-05,1.0234308327225219,1.008566025790588,-1.4524486127108993,3,True
2024-04-06,1.008566025790588,1.0072596315241422,-0.1295298704337866,1,True
2024-04-07,1.0072596315241422,1.0228912412912505,1.5518947923541138,1,True
2024-04-08,1.0228912412912505,1.0147469592176197,-0.7962021517898488,0,True
2024-04-09,1.0147469592176197,1.009685233575526,-0.4988165370799824,1,True
2024-04-10,1.009685233575526,1.0036971383398992,-0.5930655452315192,4,True
2024-04-11,1.0036971383398992,1.013194632093854,0.9462509547116582,1,True
2024-04-12,1.013194632093854,1.0072587388849596,-0.5858591252726475,2,True
2024-04-13,1.0072587388849596,0.9801124366254387,-2.69506743516289,7,True
2024-04-14,0.9801124366254387,0.9336841177291296,-4.737040074316711,13,True
2024-04-15,0.9336841177291296,0.9428785828525216,0.9847511539292642,0,True
2024-04-16,0.9428785828525216,0.9428785828525216,0.0,0,False
2024-04-17,0.9428785828525216,0.9428785828525216,0.0,0,False
2024-04-18,0.9428785828525216,0.9428785828525216,0.0,0,False
2024-04-19,0.9428785828525216,0.9482155173882679,0.5660256402898023,4,True
2024-04-20,0.9482155173882679,0.9452663978037499,-0.3110178572737321,0,True
2024-04-21,0.9452663978037499,0.9452663978037499,0.0,0,False
2024-04-22,0.9452663978037499,0.9452663978037499,0.0,0,False
2024-04-23,0.9452663978037499,0.9472259660501835,0.20730327989935127,1,True
2024-04-24,0.9472259660501835,0.9443381902319421,-0.30486662335525994,1,True
2024-04-25,0.9443381902319421,0.9415410483223853,-0.2962012908606204,0,True
2024-04-26,0.9415410483223853,0.9415410483223853,0.0,0,False
2024-04-27,0.9415410483223853,0.9493761920090715,0.8321616673693244,3,True
2024-04-28,0.9493761920090715,0.9519785467665155,0.27411207267973303,1,True
2024-04-29,0.9519785467665155,0.9548832063402712,0.3051181755746146,2,True
2024-04-30,0.9548832063402712,0.9506207237812769,-0.4463878441564484,2,True
2024-05-01,0.9506207237812769,0.945450116805066,-0.5439190254178272,3,True
2024-05-02,0.945450116805066,0.9488298872024455,0.35747738958462616,1,True
2024-05-03,0.9488298872024455,0.9466947017346546,-0.2250335383180535,1,True
2024-05-04,0.9466947017346546,0.9474302937472129,0.07770108052895797,0,True
2024-05-05,0.9474302937472129,0.9444475208959923,-0.314827683989638,1,True
2024-05-06,0.9444475208959923,0.9458155122944591,0.14484567624986067,0,True
2024-05-07,0.9458155122944591,0.9509655385272687,0.544506424970348,2,True
2024-05-08,0.9509655385272687,0.9534945807717163,0.2659446785384212,2,True
2024-05-09,0.9534945807717163,0.9509391627027464,-0.2680055157630479,1,True
2024-05-10,0.9509391627027464,0.9538702589677335,0.30823173342198196,0,True
2024-05-11,0.9538702589677335,0.9468284963509972,-0.7382306503985969,3,True
2024-05-12,0.9468284963509972,0.9464431792313075,-0.04069555586621032,0,True
2024-05-13,0.9464431792313075,0.9478428640345995,0.1478889418833118,3,True
2024-05-14,0.9478428640345995,0.9391405320841953,-0.9181196884641474,3,True
2024-05-15,0.9391405320841953,0.9446556219671554,0.5872486272869626,1,True
2024-05-16,0.9446556219671554,0.9540139857575449,0.9906640655884313,0,True
2024-05-17,0.9540139857575449,0.9540139857575449,0.0,0,False
2024-05-18,0.9540139857575449,0.9595647186704062,0.5818293018475584,2,True
2024-05-19,0.9595647186704062,0.9588764601419372,-0.0717261186324869,0,True
2024-05-20,0.9588764601419372,0.9562521503317706,-0.2736859146357684,1,True
2024-05-21,0.9562521503317706,0.9509244096336729,-0.5571481011832802,2,True
2024-05-22,0.9509244096336729,0.9544184358886757,0.36743470034057424,1,True
2024-05-23,0.9544184358886757,0.9497599812322309,-0.4880935322783442,1,True
2024-05-24,0.9497599812322309,0.9552084795608883,0.573671078622251,2,True
2024-05-25,0.9552084795608883,0.9549034738032058,-0.03193080507646329,0,True
2024-05-26,0.9549034738032058,0.9566008547335924,0.17775418950212174,2,True
2024-05-27,0.9566008547335924,0.9702302708644992,1.424775658882571,2,True
2024-05-28,0.9702302708644992,0.9767194801824253,0.6688318755653677,1,True
2024-05-29,0.9767194801824253,0.9761317354975364,-0.06017538267785172,0,True
2024-05-30,0.9761317354975364,0.9721043997923129,-0.41258116694369296,3,True
2024-05-31,0.9721043997923129,0.9691404342311877,-0.30490197984480716,0,True
2024-06-01,0.9691404342311877,0.9671719669446267,-0.2031147620130569,2,True
2024-06-02,0.9671719669446267,0.9761013765493789,0.9232494230535737,0,True
2024-06-03,0.9761013765493789,0.977192896690321,0.11182446487276732,1,True
2024-06-04,0.977192896690321,0.9886924258927282,1.1767921401552695,3,True
2024-06-05,0.9886924258927282,0.9914411957599021,0.27802072668776656,0,True
2024-06-06,0.9914411957599021,0.9926666812611287,0.12360647373415024,1,True
2024-06-07,0.9926666812611287,0.9919648984276084,-0.07069672497003188,0,True
2024-06-08,0.9919648984276084,1.008583675411739,1.6753392192076166,5,True
2024-06-09,1.008583675411739,1.0088637431327796,0.027768417025608727,0,True
2024-06-10,1.0088637431327796,1.0088637431327796,0.0,0,False
2024-06-11,1.0088637431327796,1.0090855602860178,0.021986829712949962,1,True
2024-06-12,1.0090855602860178,1.0193345796553974,1.0156739698539141,1,True
2024-06-13,1.0193345796553974,1.0136873504149735,-0.5540113475138941,1,True
2024-06-14,1.0136873504149735,1.0046179986046975,-0.8946892556726982,4,True
2024-06-15,1.0046179986046975,1.014197668747346,0.9535634595392084,4,True
2024-06-16,1.014197668747346,1.013786227402929,-0.04056816112830708,0,True
2024-06-17,1.013786227402929,1.0036995218601064,-0.9949538936489866,2,True
2024-06-18,1.0036995218601064,1.0086784005166352,0.4960527078165411,5,True
2024-06-19,1.0086784005166352,1.0215174312187478,1.2728567098826193,0,True
2024-06-20,1.0215174312187478,1.025548097561395,0.39457636448145816,1,True
2024-06-21,1.025548097561395,1.0239884883326595,-0.15207567859997217,1,True
2024-06-22,1.0239884883326595,1.0246807635381219,0.06760576054809508,0,True
2024-06-23,1.0246807635381219,1.0235686883764592,-0.10852893908369632,2,True
2024-06-24,1.0235686883764592,1.0187583709427712,-0.4699555084395901,0,True
2024-06-25,1.0187583709427712,1.0187583709427712,0.0,0,False
2024-06-26,1.0187583709427712,1.0187583709427712,0.0,0,False
2024-06-27,1.0187583709427712,1.0136821485284513,-0.4982754065247397,1,True
2024-06-28,1.0136821485284513,1.0134908808204148,-0.01886860771043164,1,True
2024-06-29,1.0134908808204148,1.0012902887647734,-1.2038186318721555,3,True
2024-06-30,1.0012902887647734,0.9970125145905379,-0.42722617229342674,0,True
2024-07-01,0.9970125145905379,0.9906166111913868,-0.6415068322164208,2,True
2024-07-02,0.9906166111913868,0.9949425756639019,0.4366941179506645,0,True
2024-07-03,0.9949425756639019,0.9899723630962104,-0.49954768136994954,1,True
2024-07-04,0.9899723630962104,0.9767256615338664,-1.3380880170143272,4,True
2024-07-05,0.9767256615338664,0.9470737000623829,-3.035853632115859,12,True
2024-07-06,0.9470737000623829,0.9552102295260051,0.8591231562112167,0,True
2024-07-07,0.9552102295260051,0.9552102295260051,0.0,0,False
2024-07-08,0.9552102295260051,0.9566090912962656,0.14644543442072777,2,True
2024-07-09,0.9566090912962656,0.957813480087698,0.12590187594812008,1,True
2024-07-10,0.957813480087698,0.9614517650075731,0.37985317554123377,1,True
2024-07-11,0.9614517650075731,0.9509073454645286,-1.0967185174350913,2,True
2024-07-12,0.9509073454645286,0.9509073454645286,0.0,0,False
2024-07-13,0.9509073454645286,0.9509073454645286,0.0,0,False
2024-07-14,0.9509073454645286,0.9517445518640028,0.08804289960187006,1,True
2024-07-15,0.9517445518640028,0.9538459332862793,0.2207925874816885,0,True
2024-07-16,0.9538459332862793,0.9538459332862793,0.0,0,False
2024-07-17,0.9538459332862793,0.9538459332862793,0.0,0,False
2024-07-18,0.9538459332862793,0.9538459332862793,0.0,0,False
2024-07-19,0.9538459332862793,0.9507909690575602,-0.3202785819082843,2,True
2024-07-20,0.9507909690575602,0.9517158904498906,0.097279152035612,0,True
2024-07-21,0.9517158904498906,0.9515024745266276,-0.02242433119006293,1,True
2024-07-22,0.9515024745266276,0.9514094954984892,-0.009771811490522087,1,True
2024-07-23,0.9514094954984892,0.9481477407440854,-0.3428339500327171,3,True
2024-07-24,0.9481477407440854,0.9445116311512012,-0.3834960984066327,1,True
2024-07-25,0.9445116311512012,0.9436053928981555,-0.09594781293917887,0,True
2024-07-26,0.9436053928981555,0.9436053928981555,0.0,0,False
2024-07-27,0.9436053928981555,0.9436053928981555,0.0,0,False
2024-07-28,0.9436053928981555,0.9409978331228492,-0.27634006703771696,1,True
2024-07-29,0.9409978331228492,0.9409978331228492,0.0,0,False
2024-07-30,0.9409978331228492,0.9384127473766966,-0.2747175025444748,2,True
2024-07-31,0.9384127473766966,0.9307033411451555,-0.8215368187497907,3,True
2024-08-01,0.9307033411451555,0.9278071384339986,-0.3111843036464612,0,True
2024-08-02,0.9278071384339986,0.9206810486626235,-0.7680572261389296,4,True
2024-08-03,0.9206810486626235,0.9221974502739648,0.16470433637620907,5,True
2024-08-04,0.9221974502739648,0.8977379298875954,-2.6523083943794323,2,True
2024-08-05,0.8977379298875954,0.8804451924121555,-1.9262567504087835,8,True
2024-08-06,0.8804451924121555,0.8869146469001208,0.7347935503220882,0,True
2024-08-07,0.8869146469001208,0.8869146469001208,0.0,0,False
2024-08-08,0.8869146469001208,0.8869146469001208,0.0,0,False
2024-08-09,0.8869146469001208,0.8869146469001208,0.0,0,False
2024-08-10,0.8869146469001208,0.8869146469001208,0.0,0,False
2024-08-11,0.8869146469001208,0.8833897796428344,-0.3974302679075392,1,True
2024-08-12,0.8833897796428344,0.8834798697014444,0.010198222878066154,1,True
2024-08-13,0.8834798697014444,0.8780692036737751,-0.6124266339535112,0,True
2024-08-14,0.8780692036737751,0.8780692036737751,0.0,0,False
2024-08-15,0.8780692036737751,0.8780692036737751,0.0,0,False
2024-08-16,0.8780692036737751,0.8780692036737751,0.0,0,False
2024-08-17,0.8780692036737751,0.8978671904403811,2.254718270925893,1,True
2024-08-18,0.8978671904403811,0.8970040886700611,-0.09612799972084085,0,True
2024-08-19,0.8970040886700611,0.8965664073626891,-0.04879368030762388,1,True
2024-08-20,0.8965664073626891,0.8886227595906395,-0.8860077409565625,2,True
2024-08-21,0.8886227595906395,0.8918472271952017,0.3628612445226498,0,True
2024-08-22,0.8918472271952017,0.8918472271952017,0.0,0,False
2024-08-23,0.8918472271952017,0.8918472271952017,0.0,0,False
2024-08-24,0.8918472271952017,0.8904004639979487,-0.16222096712718015,1,True
2024-08-25,0.8904004639979487,0.8880241243418223,-0.26688436857461584,2,True
2024-08-26,0.8880241243418223,0.8891880243808223,0.13106626352776818,2,True
2024-08-27,0.8891880243808223,0.882612346947271,-0.7395148442457145,0,True
2024-08-28,0.882612346947271,0.8848965860477558,0.258804344669028,4,True
2024-08-29,0.8848965860477558,0.8746013782613711,-1.1634362646110508,2,True
2024-08-30,0.8746013782613711,0.8755136279098932,0.10430462050443623,0,True
2024-08-31,0.8755136279098932,0.8755136279098932,0.0,0,False
2024-09-01,0.8755136279098932,0.8729402918339404,-0.2939230177485763,1,True
2024-09-02,0.8729402918339404,0.8736311522661919,0.07914177392362998,0,True
2024-09-03,0.8736311522661919,0.8736311522661919,0.0,0,False
2024-09-04,0.8736311522661919,0.8736311522661919,0.0,0,False
2024-09-05,0.8736311522661919,0.8736311522661919,0.0,0,False
2024-09-06,0.8736311522661919,0.8735314980456654,-0.011406898697230439,1,True
2024-09-07,0.8735314980456654,0.8747860334168681,0.14361650083705157,0,True
2024-09-08,0.8747860334168681,0.8747860334168681,0.0,0,False
2024-09-09,0.8747860334168681,0.8747860334168681,0.0,0,False
2024-09-10,0.8747860334168681,0.8747860334168681,0.0,0,False
2024-09-11,0.8747860334168681,0.8704223421276787,-0.4988295563139178,1,True
2024-09-12,0.8704223421276787,0.8704223421276787,0.0,0,False
2024-09-13,0.8704223421276787,0.8703242625646722,-0.011268042909684528,1,True
2024-09-14,0.8703242625646722,0.8719091579761608,0.18210401337293014,0,True
2024-09-15,0.8719091579761608,0.8738569526668364,0.22339422322352753,1,True
2024-09-16,0.8738569526668364,0.8740786245039326,0.02536706224280927,0,True
2024-09-17,0.8740786245039326,0.8740786245039326,0.0,0,False
2024-09-18,0.8740786245039326,0.8740786245039326,0.0,0,False
2024-09-19,0.8740786245039326,0.8740786245039326,0.0,0,False
2024-09-20,0.8740786245039326,0.8740786245039326,0.0,0,False
2024-09-21,0.8740786245039326,0.8740786245039326,0.0,0,False
2024-09-22,0.8740786245039326,0.874151825677311,0.008374666915100804,1,True
2024-09-23,0.874151825677311,0.8731736798718894,-0.11189655809088483,0,True
2024-09-24,0.8731736798718894,0.8731736798718894,0.0,0,False
2024-09-25,0.8731736798718894,0.8731736798718894,0.0,0,False
2024-09-26,0.8731736798718894,0.8731736798718894,0.0,0,False
2024-09-27,0.8731736798718894,0.8731736798718894,0.0,0,False
2024-09-28,0.8731736798718894,0.8731736798718894,0.0,0,False
2024-09-29,0.8731736798718894,0.8731736798718894,0.0,0,False
2024-09-30,0.8731736798718894,0.8714273417774238,-0.19999893889631748,1,True
2024-10-01,0.8714273417774238,0.8726583069957365,0.14125850306716536,0,True
2024-10-02,0.8726583069957365,0.8536549666210096,-2.177638168614804,7,True
2024-10-03,0.8536549666210096,0.842891847795463,-1.2608277637216614,1,True
2024-10-04,0.842891847795463,0.842891847795463,0.0,0,False
2024-10-05,0.842891847795463,0.842891847795463,0.0,0,False
2024-10-06,0.842891847795463,0.842891847795463,0.0,0,False
2024-10-07,0.842891847795463,0.842891847795463,0.0,0,False
2024-10-08,0.842891847795463,0.842891847795463,0.0,0,False
2024-10-09,0.842891847795463,0.842891847795463,0.0,0,False
2024-10-10,0.842891847795463,0.842891847795463,0.0,0,False
2024-10-11,0.842891847795463,0.842891847795463,0.0,0,False
2024-10-12,0.842891847795463,0.842891847795463,0.0,0,False
2024-10-13,0.842891847795463,0.842891847795463,0.0,0,False
2024-10-14,0.842891847795463,0.842891847795463,0.0,0,False
2024-10-15,0.842891847795463,0.8430922252430376,0.023772616629136323,1,True
2024-10-16,0.8430922252430376,0.8431774398746605,0.010107391465785653,3,True
2024-10-17,0.8431774398746605,0.8409030440844655,-0.2697410631068542,2,True
2024-10-18,0.8409030440844655,0.8470802486495981,0.7345917711426564,1,True
2024-10-19,0.8470802486495981,0.8463333127143768,-0.08817770647019385,1,True
2024-10-20,0.8463333127143768,0.8479740507682985,0.19386428836878355,2,True
2024-10-21,0.8479740507682985,0.8447778711353939,-0.3769195095072342,0,True
2024-10-22,0.8447778711353939,0.8447778711353939,0.0,0,False
2024-10-23,0.8447778711353939,0.8447778711353939,0.0,0,False
2024-10-24,0.8447778711353939,0.844377667296422,-0.04737385443512876,1,True
2024-10-25,0.844377667296422,0.8440642918455602,-0.03711318560393195,0,True
2024-10-26,0.8440642918455602,0.8263656029668225,-2.0968413247336004,9,True
2024-10-27,0.8263656029668225,0.8331721549656985,0.823673199179531,0,True
2024-10-28,0.8331721549656985,0.8331721549656985,0.0,0,False
2024-10-29,0.8331721549656985,0.8452961580537954,1.4551618192996552,2,True
2024-10-30,0.8452961580537954,0.8475153740096508,0.2625370924392856,0,True
2024-10-31,0.8475153740096508,0.8475153740096508,0.0,0,False
2024-11-01,0.8475153740096508,0.8467719285111546,-0.08772059142466704,2,True
2024-11-02,0.8467719285111546,0.843527627851926,-0.3831374836590129,0,True
2024-11-03,0.843527627851926,0.8377911604412975,-0.6800568494995995,2,True
2024-11-04,0.8377911604412975,0.8465000015655922,1.0395002400965137,3,True
2024-11-05,0.8465000015655922,0.8481868489907404,0.19927317448651394,1,True
2024-11-06,0.8481868489907404,0.8499450905173682,0.20729412731639307,1,True
2024-11-07,0.8499450905173682,0.8508679796693434,0.10858220869460755,1,True
2024-11-08,0.8508679796693434,0.846276839862044,-0.5395830983184302,2,True
2024-11-09,0.846276839862044,0.8469555479744628,0.0801993012746749,2,True
2024-11-10,0.8469555479744628,0.8526356292170654,0.6706469136646742,1,True
2024-11-11,0.8526356292170654,0.8525423055215969,-0.010945319697008848,2,True
2024-11-12,0.8525423055215969,0.8499304726659123,-0.3063581524070824,4,True
2024-11-13,0.8499304726659123,0.8458689207940485,-0.4778687201465015,0,True
2024-11-14,0.8458689207940485,0.8405599098631077,-0.6276399097341345,4,True
2024-11-15,0.8405599098631077,0.8511724736081524,1.2625588754016315,2,True
2024-11-16,0.8511724736081524,0.8551607884116921,0.4685671737753694,0,True
2024-11-17,0.8551607884116921,0.8491299824791201,-0.7052247968213243,4,True
2024-11-18,0.8491299824791201,0.8549472480382301,0.6850854026053677,1,True
2024-11-19,0.8549472480382301,0.8522580891452488,-0.314540914559569,1,True
2024-11-20,0.8522580891452488,0.8537983892192282,0.1807316461524211,1,True
2024-11-21,0.8537983892192282,0.865648718148027,1.3879540039464677,3,True
2024-11-22,0.865648718148027,0.8616628951621519,-0.46044346884754894,0,True
2024-11-23,0.8616628951621519,0.8616628951621519,0.0,0,False
2024-11-24,0.8616628951621519,0.8555485143655334,-0.70960242467768,6,True
2024-11-25,0.8555485143655334,0.8589173550179139,0.3937638363943341,0,True
2024-11-26,0.8589173550179139,0.8545334198976796,-0.5104024379787742,2,True
2024-11-27,0.8545334198976796,0.8576871348199054,0.3690569436831881,0,True
2024-11-28,0.8576871348199054,0.8551277427838131,-0.29840625237194107,2,True
2024-11-29,0.8551277427838131,0.863184551081719,0.9421759925221762,2,True
2024-11-30,0.863184551081719,0.8670003740996726,0.44206340500090313,0,True
2024-12-01,0.8670003740996726,0.8676408304618394,0.07387036745305497,1,True
2024-12-02,0.8676408304618394,0.8712133276690636,0.41174839654820605,6,True
2024-12-03,0.8712133276690636,0.8859422687982961,1.6906239449572924,5,True
2024-12-04,0.8859422687982961,0.9301148678371305,4.98594554008025,1,True
2024-12-05,0.9301148678371305,0.9387419414645156,0.9275277630435452,5,True
2024-12-06,0.9387419414645156,0.938953810387486,0.02256945318113157,1,True
2024-12-07,0.938953810387486,0.9403441653164505,0.14807490140442692,1,True
2024-12-08,0.9403441653164505,0.9395869736383954,-0.08052282408752554,0,True
2024-12-09,0.9395869736383954,0.9395869736383954,0.0,0,False
2024-12-10,0.9395869736383954,0.9166322927984409,-2.4430607792556125,7,True
2024-12-11,0.9166322927984409,0.930536115673532,1.5168375568182624,3,True
2024-12-12,0.930536115673532,0.9366768001051256,0.6599082322719774,0,True
2024-12-13,0.9366768001051256,0.9366768001051256,0.0,0,False
2024-12-14,0.9366768001051256,0.9366768001051256,0.0,0,False
2024-12-15,0.9366768001051256,0.9313193941848019,-0.571958857070265,2,True
2024-12-16,0.9313193941848019,0.9315254608888204,0.02212631942437593,0,True
2024-12-17,0.9315254608888204,0.9315254608888204,0.0,0,False
2024-12-18,0.9315254608888204,0.9270313779209253,-0.48244338524113806,2,True
2024-12-19,0.9270313779209253,0.9107350118547156,-1.757908788670981,5,True
2024-12-20,0.9107350118547156,0.8748536157519347,-3.939828340376239,10,True
2024-12-21,0.8748536157519347,0.8797733790775668,0.5623527453108457,1,True
2024-12-22,0.8797733790775668,0.8820434573150117,0.25802988490342127,0,True
2024-12-23,0.8820434573150117,0.880320784571072,-0.19530474713610468,1,True
2024-12-24,0.880320784571072,0.8887676770103673,0.959524367405562,0,True
2024-12-25,0.8887676770103673,0.8887676770103673,0.0,0,False
2024-12-26,0.8887676770103673,0.8887676770103673,0.0,0,False
2024-12-27,0.8887676770103673,0.8887676770103673,0.0,0,False
2024-12-28,0.8887676770103673,0.8843335850398546,-0.49890337882539937,1,True
2024-12-29,0.8843335850398546,0.913400443791557,3.2868658663905093,3,True
2024-12-30,0.913400443791557,0.9103514413029061,-0.33380786153272,0,True
2024-12-31,0.9103514413029061,0.9103514413029061,0.0,0,False
