day,start_equity,end_equity,return_pct,entries,active
2021-09-02,1.0,1.0,0.0,0,False
2021-09-03,1.0,1.0,0.0,0,False
2021-09-04,1.0,1.0,0.0,0,False
2021-09-05,1.0,1.0,0.0,0,False
2021-09-06,1.0,1.0,0.0,0,False
2021-09-07,1.0,1.0,0.0,0,False
2021-09-08,1.0,1.0,0.0,0,False
2021-09-09,1.0,1.0,0.0,0,False
2021-09-10,1.0,1.0,0.0,0,False
2021-09-11,1.0,1.0,0.0,0,False
2021-09-12,1.0,1.0,0.0,0,False
2021-09-13,1.0,1.0,0.0,0,False
2021-09-14,1.0,1.0,0.0,0,False
2021-09-15,1.0,1.0,0.0,0,False
2021-09-16,1.0,1.0,0.0,0,False
2021-09-17,1.0,1.0,0.0,0,False
2021-09-18,1.0,1.0,0.0,0,False
2021-09-19,1.0,1.0,0.0,0,False
2021-09-20,1.0,1.0,0.0,0,False
2021-09-21,1.0,1.0,0.0,0,False
2021-09-22,1.0,1.0,0.0,0,False
2021-09-23,1.0,1.0,0.0,0,False
2021-09-24,1.0,1.0,0.0,0,False
2021-09-25,1.0,1.0,0.0,0,False
2021-09-26,1.0,1.0,0.0,0,False
2021-09-27,1.0,1.0,0.0,0,False
2021-09-28,1.0,1.0,0.0,0,False
2021-09-29,1.0,1.0,0.0,0,False
2021-09-30,1.0,1.0,0.0,0,False
2021-10-01,1.0,1.0,0.0,0,False
2021-10-02,1.0,1.0,0.0,0,False
2021-10-03,1.0,1.0,0.0,0,False
2021-10-04,1.0,1.0,0.0,0,False
2021-10-05,1.0,1.0,0.0,0,False
2021-10-06,1.0,0.9928853780774104,-0.7114621922589603,2,True
2021-10-07,0.9928853780774104,0.9928853780774104,0.0,0,False
2021-10-08,0.9928853780774104,0.9928853780774104,0.0,0,False
2021-10-09,0.9928853780774104,0.9928853780774104,0.0,0,False
2021-10-10,0.9928853780774104,0.9928853780774104,0.0,0,False
2021-10-11,0.9928853780774104,0.9928853780774104,0.0,0,False
2021-10-12,0.9928853780774104,0.9928853780774104,0.0,0,False
2021-10-13,0.9928853780774104,1.0012883342392693,0.8463168405330013,1,True
2021-10-14,1.0012883342392693,1.0075099887546672,0.6213649258307585,0,True
2021-10-15,1.0075099887546672,1.0084102881358021,0.08935885412388878,2,True
2021-10-16,1.0084102881358021,1.003609267915519,-0.4760979014958755,2,True
2021-10-17,1.003609267915519,1.003609267915519,0.0,0,False
2021-10-18,1.003609267915519,1.003609267915519,0.0,0,False
2021-10-19,1.003609267915519,1.003609267915519,0.0,0,False
2021-10-20,1.003609267915519,1.003609267915519,0.0,0,False
2021-10-21,1.003609267915519,1.003609267915519,0.0,0,False
2021-10-22,1.003609267915519,1.003609267915519,0.0,0,False
2021-10-23,1.003609267915519,1.003609267915519,0.0,0,False
2021-10-24,1.003609267915519,1.003609267915519,0.0,0,False
2021-10-25,1.003609267915519,1.0056067431556381,0.19902917439849066,1,True
2021-10-26,1.0056067431556381,1.0056067431556381,0.0,0,False
2021-10-27,1.0056067431556381,1.0286025985259024,2.2867642372904395,4,True
2021-10-28,1.0286025985259024,1.0215264916958644,-0.6879339834624965,0,True
2021-10-29,1.0215264916958644,1.0215264916958644,0.0,0,False
2021-10-30,1.0215264916958644,1.0198560056940795,-0.16352840727720253,1,True
2021-10-31,1.0198560056940795,1.0193433839815398,-0.05026412647253231,4,True
2021-11-01,1.0193433839815398,1.0083200642828005,-1.0814137681143698,2,True
2021-11-02,1.0083200642828005,1.0083200642828005,0.0,0,False
2021-11-03,1.0083200642828005,1.0083200642828005,0.0,0,False
2021-11-04,1.0083200642828005,1.004087115255665,-0.4198021220718662,1,True
2021-11-05,1.004087115255665,1.004087115255665,0.0,0,False
2021-11-06,1.004087115255665,1.004087115255665,0.0,0,False
2021-11-07,1.004087115255665,1.004087115255665,0.0,0,False
2021-11-08,1.004087115255665,1.004087115255665,0.0,0,False
2021-11-09,1.004087115255665,1.004087115255665,0.0,0,False
2021-11-10,1.004087115255665,1.004087115255665,0.0,0,False
2021-11-11,1.004087115255665,1.0230794991603303,1.891507580976115,6,True
2021-11-12,1.0230794991603303,1.019525361647595,-0.347396025006097,1,True
2021-11-13,1.019525361647595,1.019525361647595,0.0,0,False
2021-11-14,1.019525361647595,1.019525361647595,0.0,0,False
2021-11-15,1.019525361647595,1.019525361647595,0.0,0,False
2021-11-16,1.019525361647595,1.0708160942993965,5.030844212537633,4,True
2021-11-17,1.0708160942993965,1.077718031436923,0.6445492530668728,0,True
2021-11-18,1.077718031436923,1.073879797089031,-0.3561445791877893,1,True
2021-11-19,1.073879797089031,1.073879797089031,0.0,0,False
2021-11-20,1.073879797089031,1.073879797089031,0.0,0,False
2021-11-21,1.073879797089031,1.073879797089031,0.0,0,False
2021-11-22,1.073879797089031,1.073879797089031,0.0,0,False
2021-11-23,1.073879797089031,1.073879797089031,0.0,0,False
2021-11-24,1.073879797089031,1.073879797089031,0.0,0,False
2021-11-25,1.073879797089031,1.0685170310483856,-0.4993823382451468,1,True
2021-11-26,1.0685170310483856,1.0685539005446838,0.0034505295869680097,6,True
2021-11-27,1.0685539005446838,1.0676585410063941,-0.08379170557828441,0,True
2021-11-28,1.0676585410063941,1.0623290222832789,-0.4991782033693659,1,True
2021-11-29,1.0623290222832789,1.0623290222832789,0.0,0,False
2021-11-30,1.0623290222832789,1.0623290222832789,0.0,0,False
2021-12-01,1.0623290222832789,1.0675090688655848,0.4876122626465085,1,True
2021-12-02,1.0675090688655848,1.0690250313269856,0.14200932859631532,2,True
2021-12-03,1.0690250313269856,1.0656280936663445,-0.31776034808319586,1,True
2021-12-04,1.0656280936663445,1.0391760968207144,-2.482291617765131,5,True
2021-12-05,1.0391760968207144,1.0391760968207144,0.0,0,False
2021-12-06,1.0391760968207144,1.0391760968207144,0.0,0,False
2021-12-07,1.0391760968207144,1.0391760968207144,0.0,0,False
2021-12-08,1.0391760968207144,1.0391760968207144,0.0,0,False
2021-12-09,1.0391760968207144,1.0391760968207144,0.0,0,False
2021-12-10,1.0391760968207144,1.0391760968207144,0.0,0,False
2021-12-11,1.0391760968207144,1.0391760968207144,0.0,0,False
2021-12-12,1.0391760968207144,1.0391760968207144,0.0,0,False
2021-12-13,1.0391760968207144,1.0391760968207144,0.0,0,False
2021-12-14,1.0391760968207144,1.0391760968207144,0.0,0,False
2021-12-15,1.0391760968207144,1.0391760968207144,0.0,0,False
2021-12-16,1.0391760968207144,1.0391760968207144,0.0,0,False
2021-12-17,1.0391760968207144,1.0364219404237613,-0.26503269324412715,1,True
2021-12-18,1.0364219404237613,1.0364219404237613,0.0,0,False
2021-12-19,1.0364219404237613,1.0364219404237613,0.0,0,False
2021-12-20,1.0364219404237613,1.0364219404237613,0.0,0,False
2021-12-21,1.0364219404237613,1.0364219404237613,0.0,0,False
2021-12-22,1.0364219404237613,1.0364219404237613,0.0,0,False
2021-12-23,1.0364219404237613,1.0364219404237613,0.0,0,False
2021-12-24,1.0364219404237613,1.0364219404237613,0.0,0,False
2021-12-25,1.0364219404237613,1.0364219404237613,0.0,0,False
2021-12-26,1.0364219404237613,1.0364219404237613,0.0,0,False
2021-12-27,1.0364219404237613,1.0364219404237613,0.0,0,False
2021-12-28,1.0364219404237613,1.0364219404237613,0.0,0,False
2021-12-29,1.0364219404237613,1.0364219404237613,0.0,0,False
2021-12-30,1.0364219404237613,1.0364219404237613,0.0,0,False
2021-12-31,1.0364219404237613,1.0364219404237613,0.0,0,False
2022-01-01,1.0364219404237613,1.0364219404237613,0.0,0,False
2022-01-02,1.0364219404237613,1.0364219404237613,0.0,0,False
2022-01-03,1.0364219404237613,1.0364219404237613,0.0,0,False
2022-01-04,1.0364219404237613,1.0364219404237613,0.0,0,False
2022-01-05,1.0364219404237613,1.0364219404237613,0.0,0,False
2022-01-06,1.0364219404237613,1.0312543345081722,-0.4986005905544877,1,True
2022-01-07,1.0312543345081722,1.0312543345081722,0.0,0,False
2022-01-08,1.0312543345081722,1.0312543345081722,0.0,0,False
2022-01-09,1.0312543345081722,1.0312543345081722,0.0,0,False
2022-01-10,1.0312543345081722,1.0312543345081722,0.0,0,False
2022-01-11,1.0312543345081722,1.0312543345081722,0.0,0,False
2022-01-12,1.0312543345081722,1.0312543345081722,0.0,0,False
2022-01-13,1.0312543345081722,1.0312543345081722,0.0,0,False
2022-01-14,1.0312543345081722,1.0312543345081722,0.0,0,False
2022-01-15,1.0312543345081722,1.0312543345081722,0.0,0,False
2022-01-16,1.0312543345081722,1.0312543345081722,0.0,0,False
2022-01-17,1.0312543345081722,1.0312543345081722,0.0,0,False
2022-01-18,1.0312543345081722,1.0312543345081722,0.0,0,False
2022-01-19,1.0312543345081722,1.0312543345081722,0.0,0,False
2022-01-20,1.0312543345081722,1.0312543345081722,0.0,0,False
2022-01-21,1.0312543345081722,1.0312543345081722,0.0,0,False
2022-01-22,1.0312543345081722,1.0527904561551948,2.0883424123781857,3,True
2022-01-23,1.0527904561551948,1.0512510798592782,-0.14621867883741757,0,True
2022-01-24,1.0512510798592782,1.0512510798592782,0.0,0,False
2022-01-25,1.0512510798592782,1.0512510798592782,0.0,0,False
2022-01-26,1.0512510798592782,1.0512510798592782,0.0,0,False
2022-01-27,1.0512510798592782,1.0512510798592782,0.0,0,False
2022-01-28,1.0512510798592782,1.0512510798592782,0.0,0,False
2022-01-29,1.0512510798592782,1.0512510798592782,0.0,0,False
2022-01-30,1.0512510798592782,1.0512510798592782,0.0,0,False
2022-01-31,1.0512510798592782,1.052838789705567,0.1510305080020924,1,True
2022-02-01,1.052838789705567,1.052838789705567,0.0,0,False
2022-02-02,1.052838789705567,1.052838789705567,0.0,0,False
2022-02-03,1.052838789705567,1.052838789705567,0.0,0,False
2022-02-04,1.052838789705567,1.052838789705567,0.0,0,False
2022-02-05,1.052838789705567,1.052838789705567,0.0,0,False
2022-02-06,1.052838789705567,1.052838789705567,0.0,0,False
2022-02-07,1.052838789705567,1.052838789705567,0.0,0,False
2022-02-08,1.052838789705567,1.052838789705567,0.0,0,False
2022-02-09,1.052838789705567,1.052838789705567,0.0,0,False
2022-02-10,1.052838789705567,1.0546081791458846,0.16805891439584109,2,True
2022-02-11,1.0546081791458846,1.0542672250416776,-0.0323299317176895,0,True
2022-02-12,1.0542672250416776,1.0542672250416776,0.0,0,False
2022-02-13,1.0542672250416776,1.0542672250416776,0.0,0,False
2022-02-14,1.0542672250416776,1.0542672250416776,0.0,0,False
2022-02-15,1.0542672250416776,1.0542672250416776,0.0,0,False
2022-02-16,1.0542672250416776,1.0542672250416776,0.0,0,False
2022-02-17,1.0542672250416776,1.0542672250416776,0.0,0,False
2022-02-18,1.0542672250416776,1.0542672250416776,0.0,0,False
2022-02-19,1.0542672250416776,1.0542672250416776,0.0,0,False
2022-02-20,1.0542672250416776,1.0542672250416776,0.0,0,False
2022-02-21,1.0542672250416776,1.0542672250416776,0.0,0,False
2022-02-22,1.0542672250416776,1.0542672250416776,0.0,0,False
2022-02-23,1.0542672250416776,1.0542672250416776,0.0,0,False
2022-02-24,1.0542672250416776,1.0542672250416776,0.0,0,False
2022-02-25,1.0542672250416776,1.0542672250416776,0.0,0,False
2022-02-26,1.0542672250416776,1.0542672250416776,0.0,0,False
2022-02-27,1.0542672250416776,1.0542672250416776,0.0,0,False
2022-02-28,1.0542672250416776,1.0542672250416776,0.0,0,False
2022-03-01,1.0542672250416776,1.0542672250416776,0.0,0,False
2022-03-02,1.0542672250416776,1.0542672250416776,0.0,0,False
2022-03-03,1.0542672250416776,1.0542672250416776,0.0,0,False
2022-03-04,1.0542672250416776,1.0542672250416776,0.0,0,False
2022-03-05,1.0542672250416776,1.0542672250416776,0.0,0,False
2022-03-06,1.0542672250416776,1.0542672250416776,0.0,0,False
2022-03-07,1.0542672250416776,1.0542672250416776,0.0,0,False
2022-03-08,1.0542672250416776,1.0542672250416776,0.0,0,False
2022-03-09,1.0542672250416776,1.0542672250416776,0.0,0,False
2022-03-10,1.0542672250416776,1.0542672250416776,0.0,0,False
2022-03-11,1.0542672250416776,1.0542672250416776,0.0,0,False
2022-03-12,1.0542672250416776,1.0542672250416776,0.0,0,False
2022-03-13,1.0542672250416776,1.0542672250416776,0.0,0,False
2022-03-14,1.0542672250416776,1.0542672250416776,0.0,0,False
2022-03-15,1.0542672250416776,1.0542672250416776,0.0,0,False
2022-03-16,1.0542672250416776,1.0542672250416776,0.0,0,False
2022-03-17,1.0542672250416776,1.0542672250416776,0.0,0,False
2022-03-18,1.0542672250416776,1.0542672250416776,0.0,0,False
2022-03-19,1.0542672250416776,1.0542672250416776,0.0,0,False
2022-03-20,1.0542672250416776,1.0542672250416776,0.0,0,False
2022-03-21,1.0542672250416776,1.0542672250416776,0.0,0,False
2022-03-22,1.0542672250416776,1.0542672250416776,0.0,0,False
2022-03-23,1.0542672250416776,1.0542672250416776,0.0,0,False
2022-03-24,1.0542672250416776,1.0542672250416776,0.0,0,False
2022-03-25,1.0542672250416776,1.0542672250416776,0.0,0,False
2022-03-26,1.0542672250416776,1.057182920427088,0.2765613229885888,1,True
2022-03-27,1.057182920427088,1.057182920427088,0.0,0,False
2022-03-28,1.057182920427088,1.0548581188948571,-0.2199053245479643,1,True
2022-03-29,1.0548581188948571,1.0548581188948571,0.0,0,False
2022-03-30,1.0548581188948571,1.0523459060632596,-0.2381564673578529,1,True
2022-03-31,1.0523459060632596,1.0523459060632596,0.0,0,False
2022-04-01,1.0523459060632596,1.0522677386424262,-0.007427920836966528,1,True
2022-04-02,1.0522677386424262,1.0522677386424262,0.0,0,False
2022-04-03,1.0522677386424262,1.0517652939756783,-0.047748747613995945,1,True
2022-04-04,1.0517652939756783,1.0465155002516693,-0.49914118236064065,1,True
2022-04-05,1.0465155002516693,1.0465155002516693,0.0,0,False
2022-04-06,1.0465155002516693,1.0509056370675136,0.41950041015050843,1,True
2022-04-07,1.0509056370675136,1.045661591810063,-0.4990024862825848,1,True
2022-04-08,1.045661591810063,1.045661591810063,0.0,0,False
2022-04-09,1.045661591810063,1.045661591810063,0.0,0,False
2022-04-10,1.045661591810063,1.045661591810063,0.0,0,False
2022-04-11,1.045661591810063,1.045661591810063,0.0,0,False
2022-04-12,1.045661591810063,1.045661591810063,0.0,0,False
2022-04-13,1.045661591810063,1.045661591810063,0.0,0,False
2022-04-14,1.045661591810063,1.045661591810063,0.0,0,False
2022-04-15,1.045661591810063,1.045661591810063,0.0,0,False
2022-04-16,1.045661591810063,1.045661591810063,0.0,0,False
2022-04-17,1.045661591810063,1.045661591810063,0.0,0,False
2022-04-18,1.045661591810063,1.0502297126569986,0.4368641712304111,1,True
2022-04-19,1.0502297126569986,1.0474454652373122,-0.2651084221034328,0,True
2022-04-20,1.0474454652373122,1.0474454652373122,0.0,0,False
2022-04-21,1.0474454652373122,1.0474454652373122,0.0,0,False
2022-04-22,1.0474454652373122,1.0474454652373122,0.0,0,False
2022-04-23,1.0474454652373122,1.0474454652373122,0.0,0,False
2022-04-24,1.0474454652373122,1.0474454652373122,0.0,0,False
2022-04-25,1.0474454652373122,1.0474454652373122,0.0,0,False
2022-04-26,1.0474454652373122,1.0474454652373122,0.0,0,False
2022-04-27,1.0474454652373122,1.0422166759727818,-0.4991944151809147,1,True
2022-04-28,1.0422166759727818,1.0422166759727818,0.0,0,False
2022-04-29,1.0422166759727818,1.0370117145585223,-0.49941260145366373,1,True
2022-04-30,1.0370117145585223,1.0370117145585223,0.0,0,False
2022-05-01,1.0370117145585223,1.0535841109323216,1.5980915298391407,5,True
2022-05-02,1.0535841109323216,1.0535841109323216,0.0,0,False
2022-05-03,1.0535841109323216,1.0535841109323216,0.0,0,False
2022-05-04,1.0535841109323216,1.0483231405495002,-0.4993403306135624,1,True
2022-05-05,1.0483231405495002,1.0483231405495002,0.0,0,False
2022-05-06,1.0483231405495002,1.0383085469787086,-0.9552964332679159,2,True
2022-05-07,1.0383085469787086,1.0383085469787086,0.0,0,False
2022-05-08,1.0383085469787086,1.0383085469787086,0.0,0,False
2022-05-09,1.0383085469787086,1.0383085469787086,0.0,0,False
2022-05-10,1.0383085469787086,1.0283235772791242,-0.9616572769856169,7,True
2022-05-11,1.0283235772791242,1.0027793216489946,-2.4840678746001266,5,True
2022-05-12,1.0027793216489946,1.027230084940741,2.438299510558206,8,True
2022-05-13,1.027230084940741,1.027612458570989,0.03722375696093572,0,True
2022-05-14,1.027612458570989,1.0254014844686206,-0.21515641270474228,2,True
2022-05-15,1.0254014844686206,1.0202844477023145,-0.49902763393772087,1,True
2022-05-16,1.0202844477023145,1.0151936933326848,-0.49895442208239826,1,True
2022-05-17,1.0151936933326848,1.0151936933326848,0.0,0,False
2022-05-18,1.0151936933326848,1.0151936933326848,0.0,0,False
2022-05-19,1.0151936933326848,1.010126531225326,-0.4991325439310246,1,True
2022-05-20,1.010126531225326,1.005087918907713,-0.4988100165531639,1,True
2022-05-21,1.005087918907713,1.005087918907713,0.0,0,False
2022-05-22,1.005087918907713,1.005087918907713,0.0,0,False
2022-05-23,1.005087918907713,1.0000717171739835,-0.49908089027485003,1,True
2022-05-24,1.0000717171739835,0.9974267511983649,-0.2644776299736584,2,True
2022-05-25,0.9974267511983649,0.9916546392482625,-0.5787003349536635,1,True
2022-05-26,0.9916546392482625,0.9915021528649759,-0.015376964645896773,1,True
2022-05-27,0.9915021528649759,0.9865505896999442,-0.49940014257396914,1,True
2022-05-28,0.9865505896999442,0.9865505896999442,0.0,0,False
2022-05-29,0.9865505896999442,0.9865505896999442,0.0,0,False
2022-05-30,0.9865505896999442,0.9865505896999442,0.0,0,False
2022-05-31,0.9865505896999442,0.9850203883789328,-0.1551062192843955,3,True
2022-06-01,0.9850203883789328,0.9850203883789328,0.0,0,False
2022-06-02,0.9850203883789328,0.9801028166188613,-0.4992355303593654,1,True
2022-06-03,0.9801028166188613,0.9801028166188613,0.0,0,False
2022-06-04,0.9801028166188613,0.9801028166188613,0.0,0,False
2022-06-05,0.9801028166188613,0.9801028166188613,0.0,0,False
2022-06-06,0.9801028166188613,0.9801028166188613,0.0,0,False
2022-06-07,0.9801028166188613,0.9807648727229168,0.06754965834496751,1,True
2022-06-08,0.9807648727229168,0.9793801758095972,-0.14118541067597024,1,True
2022-06-09,0.9793801758095972,0.9793801758095972,0.0,0,False
2022-06-10,0.9793801758095972,0.9802819858705722,0.0920796727613471,2,True
2022-06-11,0.9802819858705722,0.9779963713166843,-0.23315888558924636,1,True
2022-06-12,0.9779963713166843,0.9798401456753264,0.18852568503500144,4,True
2022-06-13,0.9798401456753264,0.9767565700499043,-0.31470190714596447,3,True
2022-06-14,0.9767565700499043,0.9783775058757238,0.16595084952810701,1,True
2022-06-15,0.9783775058757238,0.9783775058757238,0.0,0,False
2022-06-16,0.9783775058757238,0.9957850401995645,1.779224708182503,4,True
2022-06-17,0.9957850401995645,0.9945892795425397,-0.12008220737932396,1,True
2022-06-18,0.9945892795425397,0.9846811214693876,-0.9962059994965355,4,True
2022-06-19,0.9846811214693876,0.9846811214693876,0.0,0,False
2022-06-20,0.9846811214693876,0.9846811214693876,0.0,0,False
2022-06-21,0.9846811214693876,0.9846811214693876,0.0,0,False
2022-06-22,0.9846811214693876,0.9846811214693876,0.0,0,False
2022-06-23,0.9846811214693876,0.9846811214693876,0.0,0,False
2022-06-24,0.9846811214693876,0.9846811214693876,0.0,0,False
2022-06-25,0.9846811214693876,0.9846811214693876,0.0,0,False
2022-06-26,0.9846811214693876,0.9846811214693876,0.0,0,False
2022-06-27,0.9846811214693876,0.9846811214693876,0.0,0,False
2022-06-28,0.9846811214693876,0.9859134210529756,0.12514707114006374,1,True
2022-06-29,0.9859134210529756,0.9831605436254036,-0.2792210115804994,0,True
2022-06-30,0.9831605436254036,0.9831605436254036,0.0,0,False
2022-07-01,0.9831605436254036,0.9831605436254036,0.0,0,False
2022-07-02,0.9831605436254036,0.9831605436254036,0.0,0,False
2022-07-03,0.9831605436254036,0.9815982651940816,-0.15890369497143508,1,True
2022-07-04,0.9815982651940816,0.9815982651940816,0.0,0,False
2022-07-05,0.9815982651940816,0.9815982651940816,0.0,0,False
2022-07-06,0.9815982651940816,0.9815982651940816,0.0,0,False
2022-07-07,0.9815982651940816,0.9815982651940816,0.0,0,False
2022-07-08,0.9815982651940816,0.9815982651940816,0.0,0,False
2022-07-09,0.9815982651940816,0.9815982651940816,0.0,0,False
2022-07-10,0.9815982651940816,0.9815982651940816,0.0,0,False
2022-07-11,0.9815982651940816,0.9815982651940816,0.0,0,False
2022-07-12,0.9815982651940816,0.9815982651940816,0.0,0,False
2022-07-13,0.9815982651940816,0.9903574605475396,0.8923401419954846,4,True
2022-07-14,0.9903574605475396,1.0030288940594467,1.2794807952374532,0,True
2022-07-15,1.0030288940594467,1.0030288940594467,0.0,0,False
2022-07-16,1.0030288940594467,1.0030288940594467,0.0,0,False
2022-07-17,1.0030288940594467,1.0030288940594467,0.0,0,False
2022-07-18,1.0030288940594467,1.0030288940594467,0.0,0,False
2022-07-19,1.0030288940594467,1.001276657604414,-0.174694514326601,2,True
2022-07-20,1.001276657604414,1.001276657604414,0.0,0,False
2022-07-21,1.001276657604414,1.00271808926066,0.14395937878892706,3,True
2022-07-22,1.00271808926066,1.00271808926066,0.0,0,False
2022-07-23,1.00271808926066,1.00271808926066,0.0,0,False
2022-07-24,1.00271808926066,1.0071654803651382,0.4435335466778545,1,True
2022-07-25,1.0071654803651382,1.0072082635257849,0.004247877978413861,1,True
2022-07-26,1.0072082635257849,1.0072082635257849,0.0,0,False
2022-07-27,1.0072082635257849,1.0072082635257849,0.0,0,False
2022-07-28,1.0072082635257849,1.0072082635257849,0.0,0,False
2022-07-29,1.0072082635257849,1.0046931098540033,-0.2497153531065277,1,True
2022-07-30,1.0046931098540033,1.0046931098540033,0.0,0,False
2022-07-31,1.0046931098540033,1.0028063572793926,-0.1877939199647627,1,True
2022-08-01,1.0028063572793926,1.0028063572793926,0.0,0,False
2022-08-02,1.0028063572793926,1.0028063572793926,0.0,0,False
2022-08-03,1.0028063572793926,1.001696389814123,-0.11068612172354664,1,True
2022-08-04,1.001696389814123,1.001696389814123,0.0,0,False
2022-08-05,1.001696389814123,1.001696389814123,0.0,0,False
2022-08-06,1.001696389814123,1.001696389814123,0.0,0,False
2022-08-07,1.001696389814123,1.001696389814123,0.0,0,False
2022-08-08,1.001696389814123,1.001696389814123,0.0,0,False
2022-08-09,1.001696389814123,1.003936227940797,0.22360449228431278,1,True
2022-08-10,1.003936227940797,1.003936227940797,0.0,0,False
2022-08-11,1.003936227940797,1.003936227940797,0.0,0,False
2022-08-12,1.003936227940797,1.0025882843104161,-0.1342658620005932,1,True
2022-08-13,1.0025882843104161,1.0025882843104161,0.0,0,False
2022-08-14,1.0025882843104161,1.0025882843104161,0.0,0,False
2022-08-15,1.0025882843104161,1.0025882843104161,0.0,0,False
2022-08-16,1.0025882843104161,1.001646517029609,-0.0939336012144798,1,True
2022-08-17,1.001646517029609,1.001646517029609,0.0,0,False
2022-08-18,1.001646517029609,1.001646517029609,0.0,0,False
2022-08-19,1.001646517029609,0.9920707037721379,-0.9560072435401801,8,True
2022-08-20,0.9920707037721379,0.9932398370744178,0.11784778018688602,0,True
2022-08-21,0.9932398370744178,0.9932398370744178,0.0,0,False
2022-08-22,0.9932398370744178,0.9932398370744178,0.0,0,False
2022-08-23,0.9932398370744178,0.9932398370744178,0.0,0,False
2022-08-24,0.9932398370744178,0.9932398370744178,0.0,0,False
2022-08-25,0.9932398370744178,0.9932398370744178,0.0,0,False
2022-08-26,0.9932398370744178,0.9932398370744178,0.0,0,False
2022-08-27,0.9932398370744178,0.9907605109468701,-0.2496200852002195,1,True
2022-08-28,0.9907605109468701,0.9912990993407396,0.05436110825154383,1,True
2022-08-29,0.9912990993407396,0.9914313235425338,0.013338476942248434,0,True
2022-08-30,0.9914313235425338,0.9914313235425338,0.0,0,False
2022-08-31,0.9914313235425338,0.9914313235425338,0.0,0,False
2022-09-01,0.9914313235425338,0.9914313235425338,0.0,0,False
2022-09-02,0.9914313235425338,0.9914313235425338,0.0,0,False
2022-09-03,0.9914313235425338,0.9914313235425338,0.0,0,False
2022-09-04,0.9914313235425338,0.9914313235425338,0.0,0,False
2022-09-05,0.9914313235425338,0.9914313235425338,0.0,0,False
2022-09-06,0.9914313235425338,0.9914313235425338,0.0,0,False
2022-09-07,0.9914313235425338,0.9841010683871583,-0.7393608595281709,4,True
2022-09-08,0.9841010683871583,0.9841010683871583,0.0,0,False
2022-09-09,0.9841010683871583,0.9841010683871583,0.0,0,False
2022-09-10,0.9841010683871583,0.9841010683871583,0.0,0,False
2022-09-11,0.9841010683871583,0.9841010683871583,0.0,0,False
2022-09-12,0.9841010683871583,0.9841010683871583,0.0,0,False
2022-09-13,0.9841010683871583,0.9793913514119414,-0.478580618039115,4,True
2022-09-14,0.9793913514119414,0.9746316593662382,-0.48598469231339037,1,True
2022-09-15,0.9746316593662382,0.9737936399728653,-0.08598319019493816,1,True
2022-09-16,0.9737936399728653,0.9737936399728653,0.0,0,False
2022-09-17,0.9737936399728653,0.9737936399728653,0.0,0,False
2022-09-18,0.9737936399728653,0.9737936399728653,0.0,0,False
2022-09-19,0.9737936399728653,0.9754286951315104,0.1679057134415851,5,True
2022-09-20,0.9754286951315104,0.9754286951315104,0.0,0,False
2022-09-21,0.9754286951315104,0.9754286951315104,0.0,0,False
2022-09-22,0.9754286951315104,0.9754286951315104,0.0,0,False
2022-09-23,0.9754286951315104,0.9754286951315104,0.0,0,False
2022-09-24,0.9754286951315104,0.9754286951315104,0.0,0,False
2022-09-25,0.9754286951315104,0.9754286951315104,0.0,0,False
2022-09-26,0.9754286951315104,0.9754286951315104,0.0,0,False
2022-09-27,0.9754286951315104,0.9754286951315104,0.0,0,False
2022-09-28,0.9754286951315104,0.9754286951315104,0.0,0,False
2022-09-29,0.9754286951315104,0.9754286951315104,0.0,0,False
2022-09-30,0.9754286951315104,0.9754286951315104,0.0,0,False
2022-10-01,0.9754286951315104,0.9754286951315104,0.0,0,False
2022-10-02,0.9754286951315104,0.9754286951315104,0.0,0,False
2022-10-03,0.9754286951315104,0.9754286951315104,0.0,0,False
2022-10-04,0.9754286951315104,0.9754286951315104,0.0,0,False
2022-10-05,0.9754286951315104,0.9754286951315104,0.0,0,False
2022-10-06,0.9754286951315104,0.9754286951315104,0.0,0,False
2022-10-07,0.9754286951315104,0.9754286951315104,0.0,0,False
2022-10-08,0.9754286951315104,0.9754286951315104,0.0,0,False
2022-10-09,0.9754286951315104,0.9754286951315104,0.0,0,False
2022-10-10,0.9754286951315104,0.9729935352455474,-0.2496502202690154,1,True
2022-10-11,0.9729935352455474,0.9863555880028697,1.3732930665310228,4,True
2022-10-12,0.9863555880028697,0.9863555880028697,0.0,0,False
2022-10-13,0.9863555880028697,0.9863555880028697,0.0,0,False
2022-10-14,0.9863555880028697,0.9863555880028697,0.0,0,False
2022-10-15,0.9863555880028697,0.9863555880028697,0.0,0,False
2022-10-16,0.9863555880028697,0.9863555880028697,0.0,0,False
2022-10-17,0.9863555880028697,0.9863555880028697,0.0,0,False
2022-10-18,0.9863555880028697,0.9863555880028697,0.0,0,False
2022-10-19,0.9863555880028697,0.9863555880028697,0.0,0,False
2022-10-20,0.9863555880028697,0.9893743997569109,0.3060571451877214,1,True
2022-10-21,0.9893743997569109,0.9893743997569109,0.0,0,False
2022-10-22,0.9893743997569109,0.9893743997569109,0.0,0,False
2022-10-23,0.9893743997569109,0.9893743997569109,0.0,0,False
2022-10-24,0.9893743997569109,0.9893743997569109,0.0,0,False
2022-10-25,0.9893743997569109,0.9893743997569109,0.0,0,False
2022-10-26,0.9893743997569109,0.9893743997569109,0.0,0,False
2022-10-27,0.9893743997569109,0.9893743997569109,0.0,0,False
2022-10-28,0.9893743997569109,0.9893743997569109,0.0,0,False
2022-10-29,0.9893743997569109,0.9893743997569109,0.0,0,False
2022-10-30,0.9893743997569109,0.9893743997569109,0.0,0,False
2022-10-31,0.9893743997569109,0.9893743997569109,0.0,0,False
2022-11-01,0.9893743997569109,0.9893743997569109,0.0,0,False
2022-11-02,0.9893743997569109,0.9945117434953366,0.5192517352063941,1,True
2022-11-03,0.9945117434953366,0.999044086522804,0.4557354960473381,3,True
2022-11-04,0.999044086522804,0.9919657078020331,-0.7085151512589705,5,True
2022-11-05,0.9919657078020331,0.9925230195699208,0.05618256392376786,1,True
2022-11-06,0.9925230195699208,0.9925230195699208,0.0,0,False
2022-11-07,0.9925230195699208,0.9918533667960304,-0.06746974736975275,2,True
2022-11-08,0.9918533667960304,0.9887611092803691,-0.3117655914855799,5,True
2022-11-09,0.9887611092803691,0.9686406624111011,-2.034914872806015,12,True
2022-11-10,0.9686406624111011,0.9844823200305236,1.6354524679967453,5,True
2022-11-11,0.9844823200305236,0.9913055695098095,0.6930799406407173,5,True
2022-11-12,0.9913055695098095,0.9823723834132974,-0.901153627224105,2,True
2022-11-13,0.9823723834132974,0.9819027585644485,-0.04780517620183167,1,True
2022-11-14,0.9819027585644485,0.9812108866906417,-0.07046236175345388,2,True
2022-11-15,0.9812108866906417,0.9812108866906417,0.0,0,False
2022-11-16,0.9812108866906417,0.9812108866906417,0.0,0,False
2022-11-17,0.9812108866906417,0.9812108866906417,0.0,0,False
2022-11-18,0.9812108866906417,0.9812108866906417,0.0,0,False
2022-11-19,0.9812108866906417,0.9827721704360315,0.15911806183230848,2,True
2022-11-20,0.9827721704360315,0.9816153426464267,-0.11771067846696459,1,True
2022-11-21,0.9816153426464267,0.9790150027227618,-0.2649041646654027,1,True
2022-11-22,0.9790150027227618,0.9790150027227618,0.0,0,False
2022-11-23,0.9790150027227618,0.9790150027227618,0.0,0,False
2022-11-24,0.9790150027227618,0.9790150027227618,0.0,0,False
2022-11-25,0.9790150027227618,0.9772775885829103,-0.17746552759860812,1,True
2022-11-26,0.9772775885829103,0.9772775885829103,0.0,0,False
2022-11-27,0.9772775885829103,0.9772775885829103,0.0,0,False
2022-11-28,0.9772775885829103,0.9742735473778787,-0.30738873377701426,2,True
2022-11-29,0.9742735473778787,0.9742735473778787,0.0,0,False
2022-11-30,0.9742735473778787,0.9742735473778787,0.0,0,False
2022-12-01,0.9742735473778787,0.9742271482329152,-0.00476243505619367,1,True
2022-12-02,0.9742271482329152,0.9738181266917706,-0.041984206854273065,1,True
2022-12-03,0.9738181266917706,0.9738181266917706,0.0,0,False
2022-12-04,0.9738181266917706,0.9708227716182766,-0.3075887572220215,3,True
2022-12-05,0.9708227716182766,0.9719384701968558,0.11492299224908908,1,True
2022-12-06,0.9719384701968558,0.9714329825867648,-0.05200819039383742,0,True
2022-12-07,0.9714329825867648,0.9714329825867648,0.0,0,False
2022-12-08,0.9714329825867648,0.9690110143661537,-0.24931912587132787,1,True
2022-12-09,0.9690110143661537,0.9690110143661537,0.0,0,False
2022-12-10,0.9690110143661537,0.9690110143661537,0.0,0,False
2022-12-11,0.9690110143661537,0.9690110143661537,0.0,0,False
2022-12-12,0.9690110143661537,0.9690110143661537,0.0,0,False
2022-12-13,0.9690110143661537,0.9690110143661537,0.0,0,False
2022-12-14,0.9690110143661537,0.9690110143661537,0.0,0,False
2022-12-15,0.9690110143661537,0.9690110143661537,0.0,0,False
2022-12-16,0.9690110143661537,0.9690110143661537,0.0,0,False
2022-12-17,0.9690110143661537,0.9718724087261978,0.29529017912308664,4,True
2022-12-18,0.9718724087261978,0.9718724087261978,0.0,0,False
2022-12-19,0.9718724087261978,0.9718724087261978,0.0,0,False
2022-12-20,0.9718724087261978,0.9718724087261978,0.0,0,False
2022-12-21,0.9718724087261978,0.9718724087261978,0.0,0,False
2022-12-22,0.9718724087261978,0.9718724087261978,0.0,0,False
2022-12-23,0.9718724087261978,0.9718724087261978,0.0,0,False
2022-12-24,0.9718724087261978,0.9718724087261978,0.0,0,False
2022-12-25,0.9718724087261978,0.9718724087261978,0.0,0,False
2022-12-26,0.9718724087261978,0.9718724087261978,0.0,0,False
2022-12-27,0.9718724087261978,0.9718724087261978,0.0,0,False
2022-12-28,0.9718724087261978,0.9737643805218845,0.19467285815495394,1,True
2022-12-29,0.9737643805218845,0.9730334402553362,-0.07506336041543937,0,True
2022-12-30,0.9730334402553362,0.9730334402553362,0.0,0,False
2022-12-31,0.9730334402553362,0.9730334402553362,0.0,0,False
2023-01-01,0.9730334402553362,0.9730334402553362,0.0,0,False
2023-01-02,0.9730334402553362,0.9732949058223792,0.026871179984766513,1,True
2023-01-03,0.9732949058223792,0.9733587933099169,0.006564042116674607,0,True
2023-01-04,0.9733587933099169,0.9733587933099169,0.0,0,False
2023-01-05,0.9733587933099169,0.9733587933099169,0.0,0,False
2023-01-06,0.9733587933099169,0.9733587933099169,0.0,0,False
2023-01-07,0.9733587933099169,0.9733587933099169,0.0,0,False
2023-01-08,0.9733587933099169,0.9733587933099169,0.0,0,False
2023-01-09,0.9733587933099169,0.9733587933099169,0.0,0,False
2023-01-10,0.9733587933099169,0.9726349769486548,-0.07436274950584076,2,True
2023-01-11,0.9726349769486548,0.9730507745208686,0.04274960103927139,0,True
2023-01-12,0.9730507745208686,0.9730507745208686,0.0,0,False
2023-01-13,0.9730507745208686,0.9730507745208686,0.0,0,False
2023-01-14,0.9730507745208686,0.9703281392668682,-0.27980402721955455,3,True
2023-01-15,0.9703281392668682,0.9707353287187229,0.04196409805885537,1,True
2023-01-16,0.9707353287187229,0.9707353287187229,0.0,0,False
2023-01-17,0.9707353287187229,0.9707353287187229,0.0,0,False
2023-01-18,0.9707353287187229,0.9707353287187229,0.0,0,False
2023-01-19,0.9707353287187229,0.9683126963387881,-0.24956672619842468,1,True
2023-01-20,0.9683126963387881,0.9683126963387881,0.0,0,False
2023-01-21,0.9683126963387881,0.9692378305881463,0.09554085708636251,1,True
2023-01-22,0.9692378305881463,0.9682017863564634,-0.10689267370571631,0,True
2023-01-23,0.9682017863564634,0.9682017863564634,0.0,0,False
2023-01-24,0.9682017863564634,0.970190274444222,0.20537951032313373,1,True
2023-01-25,0.970190274444222,0.9702307538799683,0.00417231926690409,5,True
2023-01-26,0.9702307538799683,0.9716904376187688,0.1504470697268001,1,True
2023-01-27,0.9716904376187688,0.9716904376187688,0.0,0,False
2023-01-28,0.9716904376187688,0.9716904376187688,0.0,0,False
2023-01-29,0.9716904376187688,0.9716904376187688,0.0,0,False
2023-01-30,0.9716904376187688,0.9718072220646486,0.012018688396886468,2,True
2023-01-31,0.9718072220646486,0.9717260913791286,-0.008348434100713398,2,True
2023-02-01,0.9717260913791286,0.9717260913791286,0.0,0,False
2023-02-02,0.9717260913791286,0.9717260913791286,0.0,0,False
2023-02-03,0.9717260913791286,0.9717260913791286,0.0,0,False
2023-02-04,0.9717260913791286,0.9717260913791286,0.0,0,False
2023-02-05,0.9717260913791286,0.973902630163147,0.22398686248399358,5,True
2023-02-06,0.973902630163147,0.9779026744620496,0.41072322581492404,1,True
2023-02-07,0.9779026744620496,0.9779026744620496,0.0,0,False
2023-02-08,0.9779026744620496,0.9779026744620496,0.0,0,False
2023-02-09,0.9779026744620496,0.9779026744620496,0.0,0,False
2023-02-10,0.9779026744620496,0.979218849420999,0.13459161052744584,1,True
2023-02-11,0.979218849420999,0.9778036580963865,-0.14452247579275213,0,True
2023-02-12,0.9778036580963865,0.9753621942232084,-0.2496885599642007,1,True
2023-02-13,0.9753621942232084,0.9753621942232084,0.0,0,False
2023-02-14,0.9753621942232084,0.9753621942232084,0.0,0,False
2023-02-15,0.9753621942232084,0.9753621942232084,0.0,0,False
2023-02-16,0.9753621942232084,0.9753621942232084,0.0,0,False
2023-02-17,0.9753621942232084,0.9753621942232084,0.0,0,False
2023-02-18,0.9753621942232084,0.9753621942232084,0.0,0,False
2023-02-19,0.9753621942232084,0.9753621942232084,0.0,0,False
2023-02-20,0.9753621942232084,0.9753621942232084,0.0,0,False
2023-02-21,0.9753621942232084,0.9690891586391648,-0.6431493471037664,3,True
2023-02-22,0.9690891586391648,0.9674299485472796,-0.1712133581408648,2,True
2023-02-23,0.9674299485472796,0.9754063637756748,0.8244953797815313,1,True
2023-02-24,0.9754063637756748,0.9754063637756748,0.0,0,False
2023-02-25,0.9754063637756748,0.9754063637756748,0.0,0,False
2023-02-26,0.9754063637756748,0.976328929938993,0.0945827500803853,1,True
2023-02-27,0.976328929938993,0.9738919467967432,-0.2496067736518004,1,True
2023-02-28,0.9738919467967432,0.9738919467967432,0.0,0,False
2023-03-01,0.9738919467967432,0.9738919467967432,0.0,0,False
2023-03-02,0.9738919467967432,0.9738919467967432,0.0,0,False
2023-03-03,0.9738919467967432,0.9728206610004269,-0.11000047796266843,6,True
2023-03-04,0.9728206610004269,0.9728206610004269,0.0,0,False
2023-03-05,0.9728206610004269,0.9728206610004269,0.0,0,False
2023-03-06,0.9728206610004269,0.9728206610004269,0.0,0,False
2023-03-07,0.9728206610004269,0.9728206610004269,0.0,0,False
2023-03-08,0.9728206610004269,0.9728206610004269,0.0,0,False
2023-03-09,0.9728206610004269,0.9728206610004269,0.0,0,False
2023-03-10,0.9728206610004269,0.9723365868111196,-0.04975985900725899,1,True
2023-03-11,0.9723365868111196,0.9798366417552775,0.7713434880358916,3,True
2023-03-12,0.9798366417552775,0.980817138167603,0.10006733475174112,0,True
2023-03-13,0.980817138167603,0.980817138167603,0.0,0,False
2023-03-14,0.980817138167603,0.980817138167603,0.0,0,False
2023-03-15,0.980817138167603,0.980817138167603,0.0,0,False
2023-03-16,0.980817138167603,0.9840426301632361,0.32885763004295576,5,True
2023-03-17,0.9840426301632361,0.9811408529893821,-0.29488327892589483,2,True
2023-03-18,0.9811408529893821,0.9811408529893821,0.0,0,False
2023-03-19,0.9811408529893821,0.9811408529893821,0.0,0,False
2023-03-20,0.9811408529893821,0.9811408529893821,0.0,0,False
2023-03-21,0.9811408529893821,0.9762502002870278,-0.49846591215250147,2,True
2023-03-22,0.9762502002870278,0.9762502002870278,0.0,0,False
2023-03-23,0.9762502002870278,0.9769776592962116,0.07451563226004154,3,True
2023-03-24,0.9769776592962116,0.9769776592962116,0.0,0,False
2023-03-25,0.9769776592962116,0.974654919263181,-0.23774750742036055,1,True
2023-03-26,0.974654919263181,0.974654919263181,0.0,0,False
2023-03-27,0.974654919263181,0.974654919263181,0.0,0,False
2023-03-28,0.974654919263181,0.974654919263181,0.0,0,False
2023-03-29,0.974654919263181,0.974654919263181,0.0,0,False
2023-03-30,0.974654919263181,0.974654919263181,0.0,0,False
2023-03-31,0.974654919263181,0.974654919263181,0.0,0,False
2023-04-01,0.974654919263181,0.974654919263181,0.0,0,False
2023-04-02,0.974654919263181,0.974654919263181,0.0,0,False
2023-04-03,0.974654919263181,0.974654919263181,0.0,0,False
2023-04-04,0.974654919263181,0.9722219051301926,-0.2496282617470147,1,True
2023-04-05,0.9722219051301926,0.9722219051301926,0.0,0,False
2023-04-06,0.9722219051301926,0.9697963097522401,-0.2494898916752586,1,True
2023-04-07,0.9697963097522401,0.9689286038797468,-0.08947300208999032,1,True
2023-04-08,0.9689286038797468,0.9689286038797468,0.0,0,False
2023-04-09,0.9689286038797468,0.9689286038797468,0.0,0,False
2023-04-10,0.9689286038797468,0.9689286038797468,0.0,0,False
2023-04-11,0.9689286038797468,0.9689286038797468,0.0,0,False
2023-04-12,0.9689286038797468,0.9689286038797468,0.0,0,False
2023-04-13,0.9689286038797468,0.9689286038797468,0.0,0,False
2023-04-14,0.9689286038797468,0.9689286038797468,0.0,0,False
2023-04-15,0.9689286038797468,0.9689286038797468,0.0,0,False
2023-04-16,0.9689286038797468,0.9689286038797468,0.0,0,False
2023-04-17,0.9689286038797468,0.9665101064062932,-0.2496053335374282,1,True
2023-04-18,0.9665101064062932,0.9665101064062932,0.0,0,False
2023-04-19,0.9665101064062932,0.9606062950766956,-0.610838033711758,3,True
2023-04-20,0.9606062950766956,0.9606062950766956,0.0,0,False
2023-04-21,0.9606062950766956,0.9606062950766956,0.0,0,False
2023-04-22,0.9606062950766956,0.9606062950766956,0.0,0,False
2023-04-23,0.9606062950766956,0.9606062950766956,0.0,0,False
2023-04-24,0.9606062950766956,0.9606062950766956,0.0,0,False
2023-04-25,0.9606062950766956,0.9606062950766956,0.0,0,False
2023-04-26,0.9606062950766956,0.9606062950766956,0.0,0,False
2023-04-27,0.9606062950766956,0.9606062950766956,0.0,0,False
2023-04-28,0.9606062950766956,0.9606062950766956,0.0,0,False
2023-04-29,0.9606062950766956,0.9606062950766956,0.0,0,False
2023-04-30,0.9606062950766956,0.9606062950766956,0.0,0,False
2023-05-01,0.9606062950766956,0.9606062950766956,0.0,0,False
2023-05-02,0.9606062950766956,0.9606062950766956,0.0,0,False
2023-05-03,0.9606062950766956,0.9606062950766956,0.0,0,False
2023-05-04,0.9606062950766956,0.9606062950766956,0.0,0,False
2023-05-05,0.9606062950766956,0.9606062950766956,0.0,0,False
2023-05-06,0.9606062950766956,0.9606062950766956,0.0,0,False
2023-05-07,0.9606062950766956,0.9606062950766956,0.0,0,False
2023-05-08,0.9606062950766956,0.9548207584984908,-0.6022796860541968,5,True
2023-05-09,0.9548207584984908,0.9539037429907603,-0.09604059186695268,2,True
2023-05-10,0.9539037429907603,0.9547350118206814,0.08714389014921053,1,True
2023-05-11,0.9547350118206814,0.9547350118206814,0.0,0,False
2023-05-12,0.9547350118206814,0.9547350118206814,0.0,0,False
2023-05-13,0.9547350118206814,0.9547350118206814,0.0,0,False
2023-05-14,0.9547350118206814,0.9547350118206814,0.0,0,False
2023-05-15,0.9547350118206814,0.9547350118206814,0.0,0,False
2023-05-16,0.9547350118206814,0.9547350118206814,0.0,0,False
2023-05-17,0.9547350118206814,0.9547350118206814,0.0,0,False
2023-05-18,0.9547350118206814,0.9547350118206814,0.0,0,False
2023-05-19,0.9547350118206814,0.9547350118206814,0.0,0,False
2023-05-20,0.9547350118206814,0.9547350118206814,0.0,0,False
2023-05-21,0.9547350118206814,0.9547350118206814,0.0,0,False
2023-05-22,0.9547350118206814,0.9547350118206814,0.0,0,False
2023-05-23,0.9547350118206814,0.9547350118206814,0.0,0,False
2023-05-24,0.9547350118206814,0.9547350118206814,0.0,0,False
2023-05-25,0.9547350118206814,0.9547350118206814,0.0,0,False
2023-05-26,0.9547350118206814,0.9561162513706879,0.1446725565633633,1,True
2023-05-27,0.9561162513706879,0.9561213203567651,0.0005301642002075724,1,True
2023-05-28,0.9561213203567651,0.9561213203567651,0.0,0,False
2023-05-29,0.9561213203567651,0.9561213203567651,0.0,0,False
2023-05-30,0.9561213203567651,0.9618193629441089,0.5959539303252326,1,True
2023-05-31,0.9618193629441089,0.9663559269321554,0.4716648637806742,0,True
2023-06-01,0.9663559269321554,0.9663559269321554,0.0,0,False
2023-06-02,0.9663559269321554,0.974684035054529,0.8618054580378454,3,True
2023-06-03,0.974684035054529,0.9720532639031745,-0.2699101510580726,1,True
2023-06-04,0.9720532639031745,0.9720532639031745,0.0,0,False
2023-06-05,0.9720532639031745,0.9720532639031745,0.0,0,False
2023-06-06,0.9720532639031745,0.9623764347514416,-0.9955040028235218,4,True
2023-06-07,0.9623764347514416,0.9623764347514416,0.0,0,False
2023-06-08,0.9623764347514416,0.9605518350580237,-0.1895931391845851,1,True
2023-06-09,0.9605518350580237,0.9605518350580237,0.0,0,False
2023-06-10,0.9605518350580237,0.9737984785354178,1.3790659695730012,5,True
2023-06-11,0.9737984785354178,0.9732055568392551,-0.06088751515143098,0,True
2023-06-12,0.9732055568392551,0.9732055568392551,0.0,0,False
2023-06-13,0.9732055568392551,0.9707755270162114,-0.2496933773103338,1,True
2023-06-14,0.9707755270162114,0.9707755270162114,0.0,0,False
2023-06-15,0.9707755270162114,0.9707755270162114,0.0,0,False
2023-06-16,0.9707755270162114,0.9707755270162114,0.0,0,False
2023-06-17,0.9707755270162114,0.9707755270162114,0.0,0,False
2023-06-18,0.9707755270162114,0.9707755270162114,0.0,0,False
2023-06-19,0.9707755270162114,0.9745536193443491,0.38918289789917626,1,True
2023-06-20,0.9745536193443491,0.97514626146596,0.06081164851756693,0,True
2023-06-21,0.97514626146596,0.97514626146596,0.0,0,False
2023-06-22,0.97514626146596,0.9927311551221916,1.8033083190818866,2,True
2023-06-23,0.9927311551221916,0.9927311551221916,0.0,0,False
2023-06-24,0.9927311551221916,0.9927311551221916,0.0,0,False
2023-06-25,0.9927311551221916,0.9910261313112977,-0.1717508110928634,1,True
2023-06-26,0.9910261313112977,0.9910261313112977,0.0,0,False
2023-06-27,0.9910261313112977,0.9910261313112977,0.0,0,False
2023-06-28,0.9910261313112977,0.9910261313112977,0.0,0,False
2023-06-29,0.9910261313112977,0.9910261313112977,0.0,0,False
2023-06-30,0.9910261313112977,0.9811484991600588,-0.9967075376881462,4,True
2023-07-01,0.9811484991600588,0.9787000112393295,-0.24955324528604939,1,True
2023-07-02,0.9787000112393295,0.9787000112393295,0.0,0,False
2023-07-03,0.9787000112393295,0.9787000112393295,0.0,0,False
2023-07-04,0.9787000112393295,0.9787000112393295,0.0,0,False
2023-07-05,0.9787000112393295,0.9762560788987849,-0.2497120989556234,1,True
2023-07-06,0.9762560788987849,0.9762560788987849,0.0,0,False
2023-07-07,0.9762560788987849,0.9762560788987849,0.0,0,False
2023-07-08,0.9762560788987849,0.9762560788987849,0.0,0,False
2023-07-09,0.9762560788987849,0.9762560788987849,0.0,0,False
2023-07-10,0.9762560788987849,0.9762560788987849,0.0,0,False
2023-07-11,0.9762560788987849,0.9762560788987849,0.0,0,False
2023-07-12,0.9762560788987849,0.9762560788987849,0.0,0,False
2023-07-13,0.9762560788987849,0.9762560788987849,0.0,0,False
2023-07-14,0.9762560788987849,0.9762560788987849,0.0,0,False
2023-07-15,0.9762560788987849,0.9762560788987849,0.0,0,False
2023-07-16,0.9762560788987849,0.9762560788987849,0.0,0,False
2023-07-17,0.9762560788987849,0.9762560788987849,0.0,0,False
2023-07-18,0.9762560788987849,0.9762560788987849,0.0,0,False
2023-07-19,0.9762560788987849,0.9762560788987849,0.0,0,False
2023-07-20,0.9762560788987849,0.9762560788987849,0.0,0,False
2023-07-21,0.9762560788987849,0.9762560788987849,0.0,0,False
2023-07-22,0.9762560788987849,0.9762560788987849,0.0,0,False
2023-07-23,0.9762560788987849,0.9762560788987849,0.0,0,False
2023-07-24,0.9762560788987849,0.9742075569988533,-0.20983448341159727,2,True
2023-07-25,0.9742075569988533,0.9739759230554802,-0.023776652286155997,0,True
2023-07-26,0.9739759230554802,0.9739759230554802,0.0,0,False
2023-07-27,0.9739759230554802,0.9739759230554802,0.0,0,False
2023-07-28,0.9739759230554802,0.9739759230554802,0.0,0,False
2023-07-29,0.9739759230554802,0.9739759230554802,0.0,0,False
2023-07-30,0.9739759230554802,0.9739759230554802,0.0,0,False
2023-07-31,0.9739759230554802,0.9739759230554802,0.0,0,False
2023-08-01,0.9739759230554802,0.9739759230554802,0.0,0,False
2023-08-02,0.9739759230554802,0.9739759230554802,0.0,0,False
2023-08-03,0.9739759230554802,0.9739759230554802,0.0,0,False
2023-08-04,0.9739759230554802,0.9739759230554802,0.0,0,False
2023-08-05,0.9739759230554802,0.9739759230554802,0.0,0,False
2023-08-06,0.9739759230554802,0.9739759230554802,0.0,0,False
2023-08-07,0.9739759230554802,0.9739759230554802,0.0,0,False
2023-08-08,0.9739759230554802,0.9739759230554802,0.0,0,False
2023-08-09,0.9739759230554802,0.9739759230554802,0.0,0,False
2023-08-10,0.9739759230554802,0.9739759230554802,0.0,0,False
2023-08-11,0.9739759230554802,0.9739759230554802,0.0,0,False
2023-08-12,0.9739759230554802,0.9739759230554802,0.0,0,False
2023-08-13,0.9739759230554802,0.9763648124591366,0.2452719155687344,1,True
2023-08-14,0.9763648124591366,0.9766131473213976,0.025434638681365307,1,True
2023-08-15,0.9766131473213976,0.9768132721943541,0.02049172423137513,0,True
2023-08-16,0.9768132721943541,0.9827550695888356,0.6082838515424349,4,True
2023-08-17,0.9827550695888356,0.9838796591328837,0.11443233200705283,1,True
2023-08-18,0.9838796591328837,1.0162783874884973,3.292956415438786,4,True
2023-08-19,1.0162783874884973,1.018709911132688,0.23925763591210458,2,True
2023-08-20,1.018709911132688,1.0181487797697957,-0.05508254673486368,0,True
2023-08-21,1.0181487797697957,1.0181487797697957,0.0,0,False
2023-08-22,1.0181487797697957,1.0181487797697957,0.0,0,False
2023-08-23,1.0181487797697957,1.0181487797697957,0.0,0,False
2023-08-24,1.0181487797697957,1.0181487797697957,0.0,0,False
2023-08-25,1.0181487797697957,1.0151838016067516,-0.2912126618385247,5,True
2023-08-26,1.0151838016067516,1.0162415024812577,0.10418811577095344,0,True
2023-08-27,1.0162415024812577,1.0162415024812577,0.0,0,False
2023-08-28,1.0162415024812577,1.0162415024812577,0.0,0,False
2023-08-29,1.0162415024812577,1.0172242268595482,0.09670185442054446,1,True
2023-08-30,1.0172242268595482,1.0172242268595482,0.0,0,False
2023-08-31,1.0172242268595482,1.0172242268595482,0.0,0,False
2023-09-01,1.0172242268595482,1.0172242268595482,0.0,0,False
2023-09-02,1.0172242268595482,1.0324880248196087,1.5005342536113186,3,True
2023-09-03,1.0324880248196087,1.032358525000975,-0.01254250078651653,0,True
2023-09-04,1.032358525000975,1.0319908223514798,-0.03561772781359718,1,True
2023-09-05,1.0319908223514798,1.0351548046576506,0.30659015929632716,2,True
2023-09-06,1.0351548046576506,1.0484475205016082,1.2841283046890473,1,True
2023-09-07,1.0484475205016082,1.0484475205016082,0.0,0,False
2023-09-08,1.0484475205016082,1.0468364796609229,-0.15365965479269272,3,True
2023-09-09,1.0468364796609229,1.0431627088476372,-0.35094027430870867,1,True
2023-09-10,1.0431627088476372,1.0421396399620597,-0.09807375943371444,3,True
2023-09-11,1.0421396399620597,1.0425219967895474,0.036689596367489585,1,True
2023-09-12,1.0425219967895474,1.0425219967895474,0.0,0,False
2023-09-13,1.0425219967895474,1.041339140897434,-0.11346100089552058,1,True
2023-09-14,1.041339140897434,1.041339140897434,0.0,0,False
2023-09-15,1.041339140897434,1.041339140897434,0.0,0,False
2023-09-16,1.041339140897434,1.0440130473974143,0.256775760649508,1,True
2023-09-17,1.0440130473974143,1.0484540703336918,0.42538002253404983,1,True
2023-09-18,1.0484540703336918,1.0421502825361484,-0.6012459654562652,3,True
2023-09-19,1.0421502825361484,1.0421502825361484,0.0,0,False
2023-09-20,1.0421502825361484,1.0440628588082657,0.18352211808290164,1,True
2023-09-21,1.0440628588082657,1.0458058273590025,0.16694095916085505,0,True
2023-09-22,1.0458058273590025,1.0458058273590025,0.0,0,False
2023-09-23,1.0458058273590025,1.0458058273590025,0.0,0,False
2023-09-24,1.0458058273590025,1.0458058273590025,0.0,0,False
2023-09-25,1.0458058273590025,1.0458058273590025,0.0,0,False
2023-09-26,1.0458058273590025,1.0465384250796679,0.07005102682544617,1,True
2023-09-27,1.0465384250796679,1.041692526982905,-0.46304062809676694,1,True
2023-09-28,1.041692526982905,1.041692526982905,0.0,0,False
2023-09-29,1.041692526982905,1.041692526982905,0.0,0,False
2023-09-30,1.041692526982905,1.041692526982905,0.0,0,False
2023-10-01,1.041692526982905,1.041692526982905,0.0,0,False
2023-10-02,1.041692526982905,1.041692526982905,0.0,0,False
2023-10-03,1.041692526982905,1.041984716553977,0.02804950246868554,1,True
2023-10-04,1.041984716553977,1.0411844940995392,-0.07679790708297052,0,True
2023-10-05,1.0411844940995392,1.0411844940995392,0.0,0,False
2023-10-06,1.0411844940995392,1.0411844940995392,0.0,0,False
2023-10-07,1.0411844940995392,1.0411844940995392,0.0,0,False
2023-10-08,1.0411844940995392,1.0411844940995392,0.0,0,False
2023-10-09,1.0411844940995392,1.0391333018283824,-0.1970056491218508,1,True
2023-10-10,1.0391333018283824,1.0391333018283824,0.0,0,False
2023-10-11,1.0391333018283824,1.0391333018283824,0.0,0,False
2023-10-12,1.0391333018283824,1.0391333018283824,0.0,0,False
2023-10-13,1.0391333018283824,1.0391333018283824,0.0,0,False
2023-10-14,1.0391333018283824,1.0391333018283824,0.0,0,False
2023-10-15,1.0391333018283824,1.039168643218459,0.003401044891404581,1,True
2023-10-16,1.039168643218459,1.0390576622545051,-0.010679783755807026,1,True
2023-10-17,1.0390576622545051,1.0363151834652615,-0.2639390371553696,1,True
2023-10-18,1.0363151834652615,1.0363151834652615,0.0,0,False
2023-10-19,1.0363151834652615,1.0311517373166088,-0.49825055456459433,2,True
2023-10-20,1.0311517373166088,1.0311517373166088,0.0,0,False
2023-10-21,1.0311517373166088,1.0314142129359771,0.02545460671494748,1,True
2023-10-22,1.0314142129359771,1.0314142129359771,0.0,0,False
2023-10-23,1.0314142129359771,1.0314142129359771,0.0,0,False
2023-10-24,1.0314142129359771,1.0288395188113764,-0.24962755916188017,1,True
2023-10-25,1.0288395188113764,1.028968303208896,0.01251744272698918,1,True
2023-10-26,1.028968303208896,1.0348297584035862,0.5696439021892985,5,True
2023-10-27,1.0348297584035862,1.035108680599611,0.026953437873222796,2,True
2023-10-28,1.035108680599611,1.0361900758488858,0.10447166269036412,1,True
2023-10-29,1.0361900758488858,1.0361900758488858,0.0,0,False
2023-10-30,1.0361900758488858,1.0361900758488858,0.0,0,False
2023-10-31,1.0361900758488858,1.0361900758488858,0.0,0,False
2023-11-01,1.0361900758488858,1.0361900758488858,0.0,0,False
2023-11-02,1.0361900758488858,1.0361900758488858,0.0,0,False
2023-11-03,1.0361900758488858,1.033603733279446,-0.24960117161137996,1,True
2023-11-04,1.033603733279446,1.033603733279446,0.0,0,False
2023-11-05,1.033603733279446,1.0416522915299966,0.7786889686450582,1,True
2023-11-06,1.0416522915299966,1.0427882684766214,0.10905529185332163,1,True
2023-11-07,1.0427882684766214,1.0394444829156073,-0.3206581491273397,1,True
2023-11-08,1.0394444829156073,1.0394444829156073,0.0,0,False
2023-11-09,1.0394444829156073,1.032766470176827,-0.6424597800595011,4,True
2023-11-10,1.032766470176827,1.0349376667551637,0.21023112591609383,4,True
2023-11-11,1.0349376667551637,1.0349376667551637,0.0,0,False
2023-11-12,1.0349376667551637,1.0349376667551637,0.0,0,False
2023-11-13,1.0349376667551637,1.033656320721048,-0.12380900563152553,1,True
2023-11-14,1.033656320721048,1.0380475693768076,0.42482675989408136,2,True
2023-11-15,1.0380475693768076,1.0380475693768076,0.0,0,False
2023-11-16,1.0380475693768076,1.0380475693768076,0.0,0,False
2023-11-17,1.0380475693768076,1.0371911996588061,-0.08249811889792236,1,True
2023-11-18,1.0371911996588061,1.0349921893369602,-0.21201590628316946,2,True
2023-11-19,1.0349921893369602,1.0352419980875944,0.024136293317744695,0,True
2023-11-20,1.0352419980875944,1.036558273766694,0.12714666537207986,1,True
2023-11-21,1.036558273766694,1.0346848801346173,-0.18073210927824768,0,True
2023-11-22,1.0346848801346173,1.0332427622382654,-0.13937749782951814,1,True
2023-11-23,1.0332427622382654,1.0332427622382654,0.0,0,False
2023-11-24,1.0332427622382654,1.0332427622382654,0.0,0,False
2023-11-25,1.0332427622382654,1.0376347160241082,0.4250650424425517,1,True
2023-11-26,1.0376347160241082,1.0376347160241082,0.0,0,False
2023-11-27,1.0376347160241082,1.034422713538791,-0.3095504068738819,2,True
2023-11-28,1.034422713538791,1.031839741260323,-0.24970181383888734,1,True
2023-11-29,1.031839741260323,1.0284188734714417,-0.3315309201701311,2,True
2023-11-30,1.0284188734714417,1.0282630048123982,-0.015156145327954729,1,True
2023-12-01,1.0282630048123982,1.0282630048123982,0.0,0,False
2023-12-02,1.0282630048123982,1.033335730498323,0.4933295919608005,1,True
2023-12-03,1.033335730498323,1.0339509200707713,0.05953433664309671,1,True
2023-12-04,1.0339509200707713,1.0332391451115008,-0.06884030425948762,5,True
2023-12-05,1.0332391451115008,1.0318531801616215,-0.13413786696300223,1,True
2023-12-06,1.0318531801616215,1.0318531801616215,0.0,0,False
2023-12-07,1.0318531801616215,1.029277934421446,-0.24957482224090555,1,True
2023-12-08,1.029277934421446,1.029277934421446,0.0,0,False
2023-12-09,1.029277934421446,1.029277934421446,0.0,0,False
2023-12-10,1.029277934421446,1.029277934421446,0.0,0,False
2023-12-11,1.029277934421446,1.038624591515929,0.9080790311255083,4,True
2023-12-12,1.038624591515929,1.038624591515929,0.0,0,False
2023-12-13,1.038624591515929,1.038246210988394,-0.03643092322535013,1,True
2023-12-14,1.038246210988394,1.038246210988394,0.0,0,False
2023-12-15,1.038246210988394,1.038246210988394,0.0,0,False
2023-12-16,1.038246210988394,1.0368135890004155,-0.13798480291247195,1,True
2023-12-17,1.0368135890004155,1.0342256382342208,-0.2496061773929692,1,True
2023-12-18,1.0342256382342208,1.0369839399911698,0.2667021252401369,1,True
2023-12-19,1.0369839399911698,1.0360372487824259,-0.09129275509821566,0,True
2023-12-20,1.0360372487824259,1.0360372487824259,0.0,0,False
2023-12-21,1.0360372487824259,1.0334509319617586,-0.24963550525878286,1,True
2023-12-22,1.0334509319617586,1.0334509319617586,0.0,0,False
2023-12-23,1.0334509319617586,1.0334509319617586,0.0,0,False
2023-12-24,1.0334509319617586,1.032378454433455,-0.10377633762134186,1,True
2023-12-25,1.032378454433455,1.0308734503848254,-0.1457802651892437,0,True
2023-12-26,1.0308734503848254,1.0308734503848254,0.0,0,False
2023-12-27,1.0308734503848254,1.0289511841759982,-0.1864696591137971,2,True
2023-12-28,1.0289511841759982,1.0300986695425616,0.11151990339388629,1,True
2023-12-29,1.0300986695425616,1.0305275709613222,0.041636925805477176,1,True
2023-12-30,1.0305275709613222,1.0307968658132143,0.026131746445257065,2,True
2023-12-31,1.0307968658132143,1.028223130497304,-0.2496840455446958,1,True
