day,start_equity,end_equity,return_pct,entries,active
2021-09-02,1.0,1.0,0.0,0,False
2021-09-03,1.0,1.0,0.0,0,False
2021-09-04,1.0,1.0,0.0,0,False
2021-09-05,1.0,1.0,0.0,0,False
2021-09-06,1.0,1.0,0.0,0,False
2021-09-07,1.0,1.0,0.0,0,False
2021-09-08,1.0,1.0,0.0,0,False
2021-09-09,1.0,1.0,0.0,0,False
2021-09-10,1.0,1.0,0.0,0,False
2021-09-11,1.0,1.0,0.0,0,False
2021-09-12,1.0,1.0,0.0,0,False
2021-09-13,1.0,1.0,0.0,0,False
2021-09-14,1.0,1.0,0.0,0,False
2021-09-15,1.0,1.0,0.0,0,False
2021-09-16,1.0,1.0,0.0,0,False
2021-09-17,1.0,1.0,0.0,0,False
2021-09-18,1.0,1.0,0.0,0,False
2021-09-19,1.0,1.0,0.0,0,False
2021-09-20,1.0,1.0,0.0,0,False
2021-09-21,1.0,1.0,0.0,0,False
2021-09-22,1.0,1.0,0.0,0,False
2021-09-23,1.0,1.0,0.0,0,False
2021-09-24,1.0,1.0,0.0,0,False
2021-09-25,1.0,1.0,0.0,0,False
2021-09-26,1.0,1.0,0.0,0,False
2021-09-27,1.0,1.0,0.0,0,False
2021-09-28,1.0,1.0,0.0,0,False
2021-09-29,1.0,1.0,0.0,0,False
2021-09-30,1.0,1.0,0.0,0,False
2021-10-01,1.0,1.0,0.0,0,False
2021-10-02,1.0,1.0,0.0,0,False
2021-10-03,1.0,1.0,0.0,0,False
2021-10-04,1.0,1.0,0.0,0,False
2021-10-05,1.0,1.0,0.0,0,False
2021-10-06,1.0,0.9950029632797638,-0.4997036720236214,1,True
2021-10-07,0.9950029632797638,0.9950029632797638,0.0,0,False
2021-10-08,0.9950029632797638,0.9950029632797638,0.0,0,False
2021-10-09,0.9950029632797638,0.9950029632797638,0.0,0,False
2021-10-10,0.9950029632797638,0.9950029632797638,0.0,0,False
2021-10-11,0.9950029632797638,0.9950029632797638,0.0,0,False
2021-10-12,0.9950029632797638,0.9950029632797638,0.0,0,False
2021-10-13,0.9950029632797638,1.0004023398410244,0.5426492945772798,1,True
2021-10-14,1.0004023398410244,1.0045265793800697,0.41225808605172,0,True
2021-10-15,1.0045265793800697,1.0045265793800697,0.0,0,False
2021-10-16,1.0045265793800697,1.0007406682724618,-0.376885110391445,1,True
2021-10-17,1.0007406682724618,1.0009852826685994,0.024443335210899697,0,True
2021-10-18,1.0009852826685994,1.0009852826685994,0.0,0,False
2021-10-19,1.0009852826685994,1.0009852826685994,0.0,0,False
2021-10-20,1.0009852826685994,1.0009852826685994,0.0,0,False
2021-10-21,1.0009852826685994,1.0009852826685994,0.0,0,False
2021-10-22,1.0009852826685994,1.0009852826685994,0.0,0,False
2021-10-23,1.0009852826685994,1.0009852826685994,0.0,0,False
2021-10-24,1.0009852826685994,1.0009852826685994,0.0,0,False
2021-10-25,1.0009852826685994,1.005271566038281,0.428206432591538,1,True
2021-10-26,1.005271566038281,1.005271566038281,0.0,0,False
2021-10-27,1.005271566038281,1.0199026146738877,1.4554324552585207,4,True
2021-10-28,1.0199026146738877,1.016923091363605,-0.29213802057320715,0,True
2021-10-29,1.016923091363605,1.016923091363605,0.0,0,False
2021-10-30,1.016923091363605,1.015682559517222,-0.1219887577456169,1,True
2021-10-31,1.015682559517222,1.0159674125566995,0.0280454790533069,0,True
2021-11-01,1.0159674125566995,1.0159674125566995,0.0,0,False
2021-11-02,1.0159674125566995,1.0159674125566995,0.0,0,False
2021-11-03,1.0159674125566995,1.0159674125566995,0.0,0,False
2021-11-04,1.0159674125566995,1.0159674125566995,0.0,0,False
2021-11-05,1.0159674125566995,1.0159674125566995,0.0,0,False
2021-11-06,1.0159674125566995,1.0159674125566995,0.0,0,False
2021-11-07,1.0159674125566995,1.0159674125566995,0.0,0,False
2021-11-08,1.0159674125566995,1.0159674125566995,0.0,0,False
2021-11-09,1.0159674125566995,1.0159674125566995,0.0,0,False
2021-11-10,1.0159674125566995,1.0159674125566995,0.0,0,False
2021-11-11,1.0159674125566995,1.0304859938186048,1.429040054086883,6,True
2021-11-12,1.0304859938186048,1.0304859938186048,0.0,0,False
2021-11-13,1.0304859938186048,1.0304859938186048,0.0,0,False
2021-11-14,1.0304859938186048,1.0304859938186048,0.0,0,False
2021-11-15,1.0304859938186048,1.0304859938186048,0.0,0,False
2021-11-16,1.0304859938186048,1.0640522006400448,3.257318102602813,4,True
2021-11-17,1.0640522006400448,1.072444728212862,0.7887326926037108,0,True
2021-11-18,1.072444728212862,1.0680358209287442,-0.41110811290618887,1,True
2021-11-19,1.0680358209287442,1.0670833928426375,-0.08917566877845173,0,True
2021-11-20,1.0670833928426375,1.0670833928426375,0.0,0,False
2021-11-21,1.0670833928426375,1.0670833928426375,0.0,0,False
2021-11-22,1.0670833928426375,1.0670833928426375,0.0,0,False
2021-11-23,1.0670833928426375,1.0670833928426375,0.0,0,False
2021-11-24,1.0670833928426375,1.0670833928426375,0.0,0,False
2021-11-25,1.0670833928426375,1.0670833928426375,0.0,0,False
2021-11-26,1.0670833928426375,1.0720848074340132,0.468699506048198,5,True
2021-11-27,1.0720848074340132,1.0702514946886075,-0.17100445157820499,0,True
2021-11-28,1.0702514946886075,1.0649060748949593,-0.49945455065245614,1,True
2021-11-29,1.0649060748949593,1.0649060748949593,0.0,0,False
2021-11-30,1.0649060748949593,1.0649060748949593,0.0,0,False
2021-12-01,1.0649060748949593,1.062025946690947,-0.2704584255748932,1,True
2021-12-02,1.062025946690947,1.0628876248137435,0.08113531740738811,1,True
2021-12-03,1.0628876248137435,1.0595986752611373,-0.30943530396100316,1,True
2021-12-04,1.0595986752611373,1.0332828703480303,-2.4835634025893283,5,True
2021-12-05,1.0332828703480303,1.0332828703480303,0.0,0,False
2021-12-06,1.0332828703480303,1.0332828703480303,0.0,0,False
2021-12-07,1.0332828703480303,1.0332828703480303,0.0,0,False
2021-12-08,1.0332828703480303,1.0332828703480303,0.0,0,False
2021-12-09,1.0332828703480303,1.0332828703480303,0.0,0,False
2021-12-10,1.0332828703480303,1.0332828703480303,0.0,0,False
2021-12-11,1.0332828703480303,1.0332828703480303,0.0,0,False
2021-12-12,1.0332828703480303,1.0332828703480303,0.0,0,False
2021-12-13,1.0332828703480303,1.0332828703480303,0.0,0,False
2021-12-14,1.0332828703480303,1.0332828703480303,0.0,0,False
2021-12-15,1.0332828703480303,1.0332828703480303,0.0,0,False
2021-12-16,1.0332828703480303,1.0332828703480303,0.0,0,False
2021-12-17,1.0332828703480303,1.0325111309315438,-0.07468810706467988,1,True
2021-12-18,1.0325111309315438,1.0325111309315438,0.0,0,False
2021-12-19,1.0325111309315438,1.0325111309315438,0.0,0,False
2021-12-20,1.0325111309315438,1.0325111309315438,0.0,0,False
2021-12-21,1.0325111309315438,1.0325111309315438,0.0,0,False
2021-12-22,1.0325111309315438,1.0325111309315438,0.0,0,False
2021-12-23,1.0325111309315438,1.0325111309315438,0.0,0,False
2021-12-24,1.0325111309315438,1.0325111309315438,0.0,0,False
2021-12-25,1.0325111309315438,1.0325111309315438,0.0,0,False
2021-12-26,1.0325111309315438,1.0325111309315438,0.0,0,False
2021-12-27,1.0325111309315438,1.0325111309315438,0.0,0,False
2021-12-28,1.0325111309315438,1.0325111309315438,0.0,0,False
2021-12-29,1.0325111309315438,1.0325111309315438,0.0,0,False
2021-12-30,1.0325111309315438,1.0325111309315438,0.0,0,False
2021-12-31,1.0325111309315438,1.0325111309315438,0.0,0,False
2022-01-01,1.0325111309315438,1.0325111309315438,0.0,0,False
2022-01-02,1.0325111309315438,1.0325111309315438,0.0,0,False
2022-01-03,1.0325111309315438,1.0325111309315438,0.0,0,False
2022-01-04,1.0325111309315438,1.0325111309315438,0.0,0,False
2022-01-05,1.0325111309315438,1.0325111309315438,0.0,0,False
2022-01-06,1.0325111309315438,1.0336537286134782,0.11066202074776488,1,True
2022-01-07,1.0336537286134782,1.0336537286134782,0.0,0,False
2022-01-08,1.0336537286134782,1.0336537286134782,0.0,0,False
2022-01-09,1.0336537286134782,1.0336537286134782,0.0,0,False
2022-01-10,1.0336537286134782,1.0336537286134782,0.0,0,False
2022-01-11,1.0336537286134782,1.0336537286134782,0.0,0,False
2022-01-12,1.0336537286134782,1.0336537286134782,0.0,0,False
2022-01-13,1.0336537286134782,1.0336537286134782,0.0,0,False
2022-01-14,1.0336537286134782,1.0336537286134782,0.0,0,False
2022-01-15,1.0336537286134782,1.0336537286134782,0.0,0,False
2022-01-16,1.0336537286134782,1.0336537286134782,0.0,0,False
2022-01-17,1.0336537286134782,1.0336537286134782,0.0,0,False
2022-01-18,1.0336537286134782,1.0336537286134782,0.0,0,False
2022-01-19,1.0336537286134782,1.0336537286134782,0.0,0,False
2022-01-20,1.0336537286134782,1.0336537286134782,0.0,0,False
2022-01-21,1.0336537286134782,1.0336537286134782,0.0,0,False
2022-01-22,1.0336537286134782,1.0336537286134782,0.0,0,False
2022-01-23,1.0336537286134782,1.0336537286134782,0.0,0,False
2022-01-24,1.0336537286134782,1.0336537286134782,0.0,0,False
2022-01-25,1.0336537286134782,1.0336537286134782,0.0,0,False
2022-01-26,1.0336537286134782,1.0336537286134782,0.0,0,False
2022-01-27,1.0336537286134782,1.0336537286134782,0.0,0,False
2022-01-28,1.0336537286134782,1.0336537286134782,0.0,0,False
2022-01-29,1.0336537286134782,1.0336537286134782,0.0,0,False
2022-01-30,1.0336537286134782,1.0336537286134782,0.0,0,False
2022-01-31,1.0336537286134782,1.0336537286134782,0.0,0,False
2022-02-01,1.0336537286134782,1.0336537286134782,0.0,0,False
2022-02-02,1.0336537286134782,1.0336537286134782,0.0,0,False
2022-02-03,1.0336537286134782,1.0336537286134782,0.0,0,False
2022-02-04,1.0336537286134782,1.0336537286134782,0.0,0,False
2022-02-05,1.0336537286134782,1.0336537286134782,0.0,0,False
2022-02-06,1.0336537286134782,1.0336537286134782,0.0,0,False
2022-02-07,1.0336537286134782,1.0336537286134782,0.0,0,False
2022-02-08,1.0336537286134782,1.0336537286134782,0.0,0,False
2022-02-09,1.0336537286134782,1.0336537286134782,0.0,0,False
2022-02-10,1.0336537286134782,1.034441049021033,0.07616868064810323,2,True
2022-02-11,1.034441049021033,1.0247339312453587,-0.9383925536269877,0,True
2022-02-12,1.0247339312453587,1.0247339312453587,0.0,0,False
2022-02-13,1.0247339312453587,1.0247339312453587,0.0,0,False
2022-02-14,1.0247339312453587,1.0247339312453587,0.0,0,False
2022-02-15,1.0247339312453587,1.0247339312453587,0.0,0,False
2022-02-16,1.0247339312453587,1.0247339312453587,0.0,0,False
2022-02-17,1.0247339312453587,1.0247339312453587,0.0,0,False
2022-02-18,1.0247339312453587,1.0247339312453587,0.0,0,False
2022-02-19,1.0247339312453587,1.0247339312453587,0.0,0,False
2022-02-20,1.0247339312453587,1.0247339312453587,0.0,0,False
2022-02-21,1.0247339312453587,1.0247339312453587,0.0,0,False
2022-02-22,1.0247339312453587,1.0247339312453587,0.0,0,False
2022-02-23,1.0247339312453587,1.0247339312453587,0.0,0,False
2022-02-24,1.0247339312453587,1.0247339312453587,0.0,0,False
2022-02-25,1.0247339312453587,1.0247339312453587,0.0,0,False
2022-02-26,1.0247339312453587,1.0247339312453587,0.0,0,False
2022-02-27,1.0247339312453587,1.0247339312453587,0.0,0,False
2022-02-28,1.0247339312453587,1.0247339312453587,0.0,0,False
2022-03-01,1.0247339312453587,1.0247339312453587,0.0,0,False
2022-03-02,1.0247339312453587,1.0247339312453587,0.0,0,False
2022-03-03,1.0247339312453587,1.0247339312453587,0.0,0,False
2022-03-04,1.0247339312453587,1.0247339312453587,0.0,0,False
2022-03-05,1.0247339312453587,1.0247339312453587,0.0,0,False
2022-03-06,1.0247339312453587,1.0247339312453587,0.0,0,False
2022-03-07,1.0247339312453587,1.0247339312453587,0.0,0,False
2022-03-08,1.0247339312453587,1.0247339312453587,0.0,0,False
2022-03-09,1.0247339312453587,1.0247339312453587,0.0,0,False
2022-03-10,1.0247339312453587,1.0247339312453587,0.0,0,False
2022-03-11,1.0247339312453587,1.0247339312453587,0.0,0,False
2022-03-12,1.0247339312453587,1.0247339312453587,0.0,0,False
2022-03-13,1.0247339312453587,1.0247339312453587,0.0,0,False
2022-03-14,1.0247339312453587,1.0247339312453587,0.0,0,False
2022-03-15,1.0247339312453587,1.0247339312453587,0.0,0,False
2022-03-16,1.0247339312453587,1.0247339312453587,0.0,0,False
2022-03-17,1.0247339312453587,1.0247339312453587,0.0,0,False
2022-03-18,1.0247339312453587,1.0247339312453587,0.0,0,False
2022-03-19,1.0247339312453587,1.0247339312453587,0.0,0,False
2022-03-20,1.0247339312453587,1.0247339312453587,0.0,0,False
2022-03-21,1.0247339312453587,1.0247339312453587,0.0,0,False
2022-03-22,1.0247339312453587,1.0247339312453587,0.0,0,False
2022-03-23,1.0247339312453587,1.0247339312453587,0.0,0,False
2022-03-24,1.0247339312453587,1.0247339312453587,0.0,0,False
2022-03-25,1.0247339312453587,1.0247339312453587,0.0,0,False
2022-03-26,1.0247339312453587,1.0264710295843347,0.16951701178322676,1,True
2022-03-27,1.0264710295843347,1.0264710295843347,0.0,0,False
2022-03-28,1.0264710295843347,1.0264710295843347,0.0,0,False
2022-03-29,1.0264710295843347,1.0264710295843347,0.0,0,False
2022-03-30,1.0264710295843347,1.0248339898129948,-0.1594823160282255,1,True
2022-03-31,1.0248339898129948,1.0248339898129948,0.0,0,False
2022-04-01,1.0248339898129948,1.0248339898129948,0.0,0,False
2022-04-02,1.0248339898129948,1.0248339898129948,0.0,0,False
2022-04-03,1.0248339898129948,1.0248339898129948,0.0,0,False
2022-04-04,1.0248339898129948,1.0197152715406743,-0.49946804294171976,1,True
2022-04-05,1.0197152715406743,1.0197152715406743,0.0,0,False
2022-04-06,1.0197152715406743,1.0209764084704607,0.12367539890629775,1,True
2022-04-07,1.0209764084704607,1.018019643068035,-0.2896017359358183,1,True
2022-04-08,1.018019643068035,1.018019643068035,0.0,0,False
2022-04-09,1.018019643068035,1.018019643068035,0.0,0,False
2022-04-10,1.018019643068035,1.018019643068035,0.0,0,False
2022-04-11,1.018019643068035,1.018019643068035,0.0,0,False
2022-04-12,1.018019643068035,1.018019643068035,0.0,0,False
2022-04-13,1.018019643068035,1.018019643068035,0.0,0,False
2022-04-14,1.018019643068035,1.018019643068035,0.0,0,False
2022-04-15,1.018019643068035,1.018019643068035,0.0,0,False
2022-04-16,1.018019643068035,1.018019643068035,0.0,0,False
2022-04-17,1.018019643068035,1.018019643068035,0.0,0,False
2022-04-18,1.018019643068035,1.0207937402322234,0.2724993749460447,1,True
2022-04-19,1.0207937402322234,1.01935005068114,-0.14142813520339192,0,True
2022-04-20,1.01935005068114,1.01935005068114,0.0,0,False
2022-04-21,1.01935005068114,1.01935005068114,0.0,0,False
2022-04-22,1.01935005068114,1.01935005068114,0.0,0,False
2022-04-23,1.01935005068114,1.01935005068114,0.0,0,False
2022-04-24,1.01935005068114,1.01935005068114,0.0,0,False
2022-04-25,1.01935005068114,1.01935005068114,0.0,0,False
2022-04-26,1.01935005068114,1.01935005068114,0.0,0,False
2022-04-27,1.01935005068114,1.01935005068114,0.0,0,False
2022-04-28,1.01935005068114,1.01935005068114,0.0,0,False
2022-04-29,1.01935005068114,1.01935005068114,0.0,0,False
2022-04-30,1.01935005068114,1.01935005068114,0.0,0,False
2022-05-01,1.01935005068114,1.0346569771583862,1.5016359166331483,4,True
2022-05-02,1.0346569771583862,1.0346569771583862,0.0,0,False
2022-05-03,1.0346569771583862,1.0346569771583862,0.0,0,False
2022-05-04,1.0346569771583862,1.0346569771583862,0.0,0,False
2022-05-05,1.0346569771583862,1.0346569771583862,0.0,0,False
2022-05-06,1.0346569771583862,1.0302780683502337,-0.4232232425647853,2,True
2022-05-07,1.0302780683502337,1.0292851670909227,-0.09637216299294149,0,True
2022-05-08,1.0292851670909227,1.0292851670909227,0.0,0,False
2022-05-09,1.0292851670909227,1.0292851670909227,0.0,0,False
2022-05-10,1.0292851670909227,1.0189997674865192,-0.9992759959295938,2,True
2022-05-11,1.0189997674865192,1.0038837877502291,-1.4834134627503825,5,True
2022-05-12,1.0038837877502291,0.9887135881435186,-1.5111509710409754,1,True
2022-05-13,0.9887135881435186,0.9887135881435186,0.0,0,False
2022-05-14,0.9887135881435186,0.9887135881435186,0.0,0,False
2022-05-15,0.9887135881435186,0.9856441464522296,-0.31044801326665095,1,True
2022-05-16,0.9856441464522296,0.987563917227419,0.19477321324328223,1,True
2022-05-17,0.987563917227419,0.987563917227419,0.0,0,False
2022-05-18,0.987563917227419,0.987563917227419,0.0,0,False
2022-05-19,0.987563917227419,0.987563917227419,0.0,0,False
2022-05-20,0.987563917227419,0.9826328661882867,-0.4993146218804978,1,True
2022-05-21,0.9826328661882867,0.9826328661882867,0.0,0,False
2022-05-22,0.9826328661882867,0.9826328661882867,0.0,0,False
2022-05-23,0.9826328661882867,0.982261057925732,-0.03783796322597288,1,True
2022-05-24,0.982261057925732,0.9772660613265336,-0.5085202715606529,1,True
2022-05-25,0.9772660613265336,0.9770838789362454,-0.018642046163042103,1,True
2022-05-26,0.9770838789362454,0.9820684779894544,0.5101505777207027,1,True
2022-05-27,0.9820684779894544,0.9803206006827642,-0.17797916803812264,0,True
2022-05-28,0.9803206006827642,0.9803206006827642,0.0,0,False
2022-05-29,0.9803206006827642,0.9803206006827642,0.0,0,False
2022-05-30,0.9803206006827642,0.9803206006827642,0.0,0,False
2022-05-31,0.9803206006827642,0.9803206006827642,0.0,0,False
2022-06-01,0.9803206006827642,0.9803206006827642,0.0,0,False
2022-06-02,0.9803206006827642,0.9754230895260121,-0.4995826011756854,1,True
2022-06-03,0.9754230895260121,0.9754230895260121,0.0,0,False
2022-06-04,0.9754230895260121,0.9754230895260121,0.0,0,False
2022-06-05,0.9754230895260121,0.9754230895260121,0.0,0,False
2022-06-06,0.9754230895260121,0.9754230895260121,0.0,0,False
2022-06-07,0.9754230895260121,0.9762739184245123,0.08722665145375341,1,True
2022-06-08,0.9762739184245123,0.9763762359770455,0.010480414420821482,1,True
2022-06-09,0.9763762359770455,0.9763762359770455,0.0,0,False
2022-06-10,0.9763762359770455,0.982832731714826,0.6612712907048124,1,True
2022-06-11,0.982832731714826,0.982832731714826,0.0,0,False
2022-06-12,0.982832731714826,0.983268070761497,0.04429431709214171,4,True
2022-06-13,0.983268070761497,0.983268070761497,0.0,0,False
2022-06-14,0.983268070761497,0.983268070761497,0.0,0,False
2022-06-15,0.983268070761497,0.983268070761497,0.0,0,False
2022-06-16,0.983268070761497,0.9881594716165909,0.49746361145497353,2,True
2022-06-17,0.9881594716165909,0.9897444200558815,0.16039399356235773,0,True
2022-06-18,0.9897444200558815,0.9845478654148816,-0.5250400543512557,4,True
2022-06-19,0.9845478654148816,0.985506154647951,0.09733292475988531,0,True
2022-06-20,0.985506154647951,0.985506154647951,0.0,0,False
2022-06-21,0.985506154647951,0.985506154647951,0.0,0,False
2022-06-22,0.985506154647951,0.985506154647951,0.0,0,False
2022-06-23,0.985506154647951,0.985506154647951,0.0,0,False
2022-06-24,0.985506154647951,0.985506154647951,0.0,0,False
2022-06-25,0.985506154647951,0.985506154647951,0.0,0,False
2022-06-26,0.985506154647951,0.985506154647951,0.0,0,False
2022-06-27,0.985506154647951,0.985506154647951,0.0,0,False
2022-06-28,0.985506154647951,0.9862422565781959,0.07469277860652213,1,True
2022-06-29,0.9862422565781959,0.9889566179451775,0.2752225783145157,0,True
2022-06-30,0.9889566179451775,0.9889566179451775,0.0,0,False
2022-07-01,0.9889566179451775,0.9889566179451775,0.0,0,False
2022-07-02,0.9889566179451775,0.9889566179451775,0.0,0,False
2022-07-03,0.9889566179451775,0.9889566179451775,0.0,0,False
2022-07-04,0.9889566179451775,0.9889566179451775,0.0,0,False
2022-07-05,0.9889566179451775,0.9889566179451775,0.0,0,False
2022-07-06,0.9889566179451775,0.9889566179451775,0.0,0,False
2022-07-07,0.9889566179451775,0.9889566179451775,0.0,0,False
2022-07-08,0.9889566179451775,0.9889566179451775,0.0,0,False
2022-07-09,0.9889566179451775,0.9889566179451775,0.0,0,False
2022-07-10,0.9889566179451775,0.9889566179451775,0.0,0,False
2022-07-11,0.9889566179451775,0.9889566179451775,0.0,0,False
2022-07-12,0.9889566179451775,0.9889566179451775,0.0,0,False
2022-07-13,0.9889566179451775,0.9943808536231096,0.5484806491514505,4,True
2022-07-14,0.9943808536231096,1.0028099442272502,0.8476722548939497,0,True
2022-07-15,1.0028099442272502,1.0028099442272502,0.0,0,False
2022-07-16,1.0028099442272502,1.0028099442272502,0.0,0,False
2022-07-17,1.0028099442272502,1.0028099442272502,0.0,0,False
2022-07-18,1.0028099442272502,1.0028099442272502,0.0,0,False
2022-07-19,1.0028099442272502,1.0028099442272502,0.0,0,False
2022-07-20,1.0028099442272502,1.0028099442272502,0.0,0,False
2022-07-21,1.0028099442272502,1.0012448093061384,-0.15607493026188468,3,True
2022-07-22,1.0012448093061384,1.0012448093061384,0.0,0,False
2022-07-23,1.0012448093061384,1.0012448093061384,0.0,0,False
2022-07-24,1.0012448093061384,1.0041097451910368,0.28613740198901727,1,True
2022-07-25,1.0041097451910368,1.0045651191755043,0.04535101732139335,1,True
2022-07-26,1.0045651191755043,1.0045651191755043,0.0,0,False
2022-07-27,1.0045651191755043,1.0045651191755043,0.0,0,False
2022-07-28,1.0045651191755043,1.0045651191755043,0.0,0,False
2022-07-29,1.0045651191755043,1.0045651191755043,0.0,0,False
2022-07-30,1.0045651191755043,1.0045651191755043,0.0,0,False
2022-07-31,1.0045651191755043,1.0045651191755043,0.0,0,False
2022-08-01,1.0045651191755043,1.0045651191755043,0.0,0,False
2022-08-02,1.0045651191755043,1.0045651191755043,0.0,0,False
2022-08-03,1.0045651191755043,1.0045651191755043,0.0,0,False
2022-08-04,1.0045651191755043,1.0045651191755043,0.0,0,False
2022-08-05,1.0045651191755043,1.0045651191755043,0.0,0,False
2022-08-06,1.0045651191755043,1.0045651191755043,0.0,0,False
2022-08-07,1.0045651191755043,1.0045651191755043,0.0,0,False
2022-08-08,1.0045651191755043,1.0045651191755043,0.0,0,False
2022-08-09,1.0045651191755043,1.0054705338449639,0.09013001269670973,1,True
2022-08-10,1.0054705338449639,1.0054705338449639,0.0,0,False
2022-08-11,1.0054705338449639,1.0054705338449639,0.0,0,False
2022-08-12,1.0054705338449639,1.005568998447631,0.009792887941784123,1,True
2022-08-13,1.005568998447631,1.005568998447631,0.0,0,False
2022-08-14,1.005568998447631,1.005568998447631,0.0,0,False
2022-08-15,1.005568998447631,1.005568998447631,0.0,0,False
2022-08-16,1.005568998447631,1.005568998447631,0.0,0,False
2022-08-17,1.005568998447631,1.005568998447631,0.0,0,False
2022-08-18,1.005568998447631,1.005568998447631,0.0,0,False
2022-08-19,1.005568998447631,0.995404893865305,-1.0107814180844055,8,True
2022-08-20,0.995404893865305,0.9970864252712782,0.16892938906936106,0,True
2022-08-21,0.9970864252712782,0.9970864252712782,0.0,0,False
2022-08-22,0.9970864252712782,0.9970864252712782,0.0,0,False
2022-08-23,0.9970864252712782,0.9970864252712782,0.0,0,False
2022-08-24,0.9970864252712782,0.9970864252712782,0.0,0,False
2022-08-25,0.9970864252712782,0.9970864252712782,0.0,0,False
2022-08-26,0.9970864252712782,0.9970864252712782,0.0,0,False
2022-08-27,0.9970864252712782,0.9970864252712782,0.0,0,False
2022-08-28,0.9970864252712782,0.9970864252712782,0.0,0,False
2022-08-29,0.9970864252712782,0.9970864252712782,0.0,0,False
2022-08-30,0.9970864252712782,0.9970864252712782,0.0,0,False
2022-08-31,0.9970864252712782,0.9970864252712782,0.0,0,False
2022-09-01,0.9970864252712782,0.9970864252712782,0.0,0,False
2022-09-02,0.9970864252712782,0.9970864252712782,0.0,0,False
2022-09-03,0.9970864252712782,0.9970864252712782,0.0,0,False
2022-09-04,0.9970864252712782,0.9970864252712782,0.0,0,False
2022-09-05,0.9970864252712782,0.9970864252712782,0.0,0,False
2022-09-06,0.9970864252712782,0.9970864252712782,0.0,0,False
2022-09-07,0.9970864252712782,0.9930235284503862,-0.4074768964773101,4,True
2022-09-08,0.9930235284503862,0.9930235284503862,0.0,0,False
2022-09-09,0.9930235284503862,0.9930235284503862,0.0,0,False
2022-09-10,0.9930235284503862,0.9930235284503862,0.0,0,False
2022-09-11,0.9930235284503862,0.9930235284503862,0.0,0,False
2022-09-12,0.9930235284503862,0.9930235284503862,0.0,0,False
2022-09-13,0.9930235284503862,0.9887169675798988,-0.43368165477486453,4,True
2022-09-14,0.9887169675798988,0.9865106600584914,-0.22314854440171894,0,True
2022-09-15,0.9865106600584914,0.9888686797951135,0.2390262804136567,1,True
2022-09-16,0.9888686797951135,0.9888686797951135,0.0,0,False
2022-09-17,0.9888686797951135,0.9888686797951135,0.0,0,False
2022-09-18,0.9888686797951135,0.9888686797951135,0.0,0,False
2022-09-19,0.9888686797951135,0.9886129841687923,-0.02585738951447203,5,True
2022-09-20,0.9886129841687923,0.9886129841687923,0.0,0,False
2022-09-21,0.9886129841687923,0.9886129841687923,0.0,0,False
2022-09-22,0.9886129841687923,0.9886129841687923,0.0,0,False
2022-09-23,0.9886129841687923,0.9886129841687923,0.0,0,False
2022-09-24,0.9886129841687923,0.9886129841687923,0.0,0,False
2022-09-25,0.9886129841687923,0.9886129841687923,0.0,0,False
2022-09-26,0.9886129841687923,0.9886129841687923,0.0,0,False
2022-09-27,0.9886129841687923,0.9886129841687923,0.0,0,False
2022-09-28,0.9886129841687923,0.9886129841687923,0.0,0,False
2022-09-29,0.9886129841687923,0.9886129841687923,0.0,0,False
2022-09-30,0.9886129841687923,0.9886129841687923,0.0,0,False
2022-10-01,0.9886129841687923,0.9886129841687923,0.0,0,False
2022-10-02,0.9886129841687923,0.9886129841687923,0.0,0,False
2022-10-03,0.9886129841687923,0.9886129841687923,0.0,0,False
2022-10-04,0.9886129841687923,0.9886129841687923,0.0,0,False
2022-10-05,0.9886129841687923,0.9886129841687923,0.0,0,False
2022-10-06,0.9886129841687923,0.9886129841687923,0.0,0,False
2022-10-07,0.9886129841687923,0.9886129841687923,0.0,0,False
2022-10-08,0.9886129841687923,0.9886129841687923,0.0,0,False
2022-10-09,0.9886129841687923,0.9886129841687923,0.0,0,False
2022-10-10,0.9886129841687923,0.9886129841687923,0.0,0,False
2022-10-11,0.9886129841687923,1.0004328762115355,1.1956035609507198,4,True
2022-10-12,1.0004328762115355,1.0004328762115355,0.0,0,False
2022-10-13,1.0004328762115355,1.0004328762115355,0.0,0,False
2022-10-14,1.0004328762115355,1.0004328762115355,0.0,0,False
2022-10-15,1.0004328762115355,1.0004328762115355,0.0,0,False
2022-10-16,1.0004328762115355,1.0004328762115355,0.0,0,False
2022-10-17,1.0004328762115355,1.0004328762115355,0.0,0,False
2022-10-18,1.0004328762115355,1.0004328762115355,0.0,0,False
2022-10-19,1.0004328762115355,1.0004328762115355,0.0,0,False
2022-10-20,1.0004328762115355,1.0023658995613642,0.1932186952060988,1,True
2022-10-21,1.0023658995613642,1.0023658995613642,0.0,0,False
2022-10-22,1.0023658995613642,1.0023658995613642,0.0,0,False
2022-10-23,1.0023658995613642,1.0023658995613642,0.0,0,False
2022-10-24,1.0023658995613642,1.0023658995613642,0.0,0,False
2022-10-25,1.0023658995613642,1.0023658995613642,0.0,0,False
2022-10-26,1.0023658995613642,1.0023658995613642,0.0,0,False
2022-10-27,1.0023658995613642,1.0023658995613642,0.0,0,False
2022-10-28,1.0023658995613642,1.0023658995613642,0.0,0,False
2022-10-29,1.0023658995613642,1.0023658995613642,0.0,0,False
2022-10-30,1.0023658995613642,1.0023658995613642,0.0,0,False
2022-10-31,1.0023658995613642,1.0023658995613642,0.0,0,False
2022-11-01,1.0023658995613642,1.0023658995613642,0.0,0,False
2022-11-02,1.0023658995613642,1.004520897652809,0.2149911616494471,1,True
2022-11-03,1.004520897652809,1.004520897652809,0.0,0,False
2022-11-04,1.004520897652809,1.0102764884659718,0.5729687482471935,2,True
2022-11-05,1.0102764884659718,1.009780514280474,-0.049092915767134926,0,True
2022-11-06,1.009780514280474,1.009780514280474,0.0,0,False
2022-11-07,1.009780514280474,1.0099134295663872,0.013162789738307978,1,True
2022-11-08,1.0099134295663872,1.0060419743843523,-0.38334525204770653,3,True
2022-11-09,1.0060419743843523,1.0042968989601944,-0.17345950453268033,4,True
2022-11-10,1.0042968989601944,1.0084058556635587,0.4091376472055819,1,True
2022-11-11,1.0084058556635587,1.0110575551577536,0.2629595494018755,5,True
2022-11-12,1.0110575551577536,1.015850248828293,0.47402777874416824,1,True
2022-11-13,1.015850248828293,1.0128034515471205,-0.29992582909604826,1,True
2022-11-14,1.0128034515471205,1.0151350348825512,0.2302108402048919,2,True
2022-11-15,1.0151350348825512,1.0151350348825512,0.0,0,False
2022-11-16,1.0151350348825512,1.0151350348825512,0.0,0,False
2022-11-17,1.0151350348825512,1.0151350348825512,0.0,0,False
2022-11-18,1.0151350348825512,1.0151350348825512,0.0,0,False
2022-11-19,1.0151350348825512,1.0151115435618634,-0.0023141079640187634,2,True
2022-11-20,1.0151115435618634,1.0129035299318012,-0.21751438490341668,1,True
2022-11-21,1.0129035299318012,1.009956674275366,-0.29093152204076045,1,True
2022-11-22,1.009956674275366,1.009956674275366,0.0,0,False
2022-11-23,1.009956674275366,1.009956674275366,0.0,0,False
2022-11-24,1.009956674275366,1.009956674275366,0.0,0,False
2022-11-25,1.009956674275366,1.009956674275366,0.0,0,False
2022-11-26,1.009956674275366,1.009956674275366,0.0,0,False
2022-11-27,1.009956674275366,1.009956674275366,0.0,0,False
2022-11-28,1.009956674275366,1.0081238944750808,-0.1814711310859196,2,True
2022-11-29,1.0081238944750808,1.0081238944750808,0.0,0,False
2022-11-30,1.0081238944750808,1.0081238944750808,0.0,0,False
2022-12-01,1.0081238944750808,1.0080135394825118,-0.010946570473502337,1,True
2022-12-02,1.0080135394825118,1.0080135394825118,0.0,0,False
2022-12-03,1.0080135394825118,1.0080135394825118,0.0,0,False
2022-12-04,1.0080135394825118,1.0080135394825118,0.0,0,False
2022-12-05,1.0080135394825118,1.0080135394825118,0.0,0,False
2022-12-06,1.0080135394825118,1.0080135394825118,0.0,0,False
2022-12-07,1.0080135394825118,1.0080135394825118,0.0,0,False
2022-12-08,1.0080135394825118,1.0054980419181556,-0.2495499778353727,1,True
2022-12-09,1.0054980419181556,1.0054980419181556,0.0,0,False
2022-12-10,1.0054980419181556,1.0054980419181556,0.0,0,False
2022-12-11,1.0054980419181556,1.0054980419181556,0.0,0,False
2022-12-12,1.0054980419181556,1.0054980419181556,0.0,0,False
2022-12-13,1.0054980419181556,1.0054980419181556,0.0,0,False
2022-12-14,1.0054980419181556,1.0054980419181556,0.0,0,False
2022-12-15,1.0054980419181556,1.0054980419181556,0.0,0,False
2022-12-16,1.0054980419181556,1.0054980419181556,0.0,0,False
2022-12-17,1.0054980419181556,1.0113744205550748,0.5844246723453628,4,True
2022-12-18,1.0113744205550748,1.0113744205550748,0.0,0,False
2022-12-19,1.0113744205550748,1.0113744205550748,0.0,0,False
2022-12-20,1.0113744205550748,1.0113744205550748,0.0,0,False
2022-12-21,1.0113744205550748,1.0113744205550748,0.0,0,False
2022-12-22,1.0113744205550748,1.0113744205550748,0.0,0,False
2022-12-23,1.0113744205550748,1.0113744205550748,0.0,0,False
2022-12-24,1.0113744205550748,1.0113744205550748,0.0,0,False
2022-12-25,1.0113744205550748,1.0113744205550748,0.0,0,False
2022-12-26,1.0113744205550748,1.0113744205550748,0.0,0,False
2022-12-27,1.0113744205550748,1.0113744205550748,0.0,0,False
2022-12-28,1.0113744205550748,1.0125498550725502,0.11622149953429695,1,True
2022-12-29,1.0125498550725502,1.0120629091692535,-0.04809105456460294,0,True
2022-12-30,1.0120629091692535,1.0120629091692535,0.0,0,False
2022-12-31,1.0120629091692535,1.0120629091692535,0.0,0,False
2023-01-01,1.0120629091692535,1.0120629091692535,0.0,0,False
2023-01-02,1.0120629091692535,1.0121769169508796,0.011264890808004857,1,True
2023-01-03,1.0121769169508796,1.0122209527662342,0.004350604584746343,0,True
2023-01-04,1.0122209527662342,1.0122209527662342,0.0,0,False
2023-01-05,1.0122209527662342,1.0122209527662342,0.0,0,False
2023-01-06,1.0122209527662342,1.0122209527662342,0.0,0,False
2023-01-07,1.0122209527662342,1.0122209527662342,0.0,0,False
2023-01-08,1.0122209527662342,1.0122209527662342,0.0,0,False
2023-01-09,1.0122209527662342,1.0122209527662342,0.0,0,False
2023-01-10,1.0122209527662342,1.0110617838871556,-0.11451737645924442,2,True
2023-01-11,1.0110617838871556,1.0114034105225604,0.03378889805243368,0,True
2023-01-12,1.0114034105225604,1.0114034105225604,0.0,0,False
2023-01-13,1.0114034105225604,1.0114034105225604,0.0,0,False
2023-01-14,1.0114034105225604,1.0114034105225604,0.0,0,False
2023-01-15,1.0114034105225604,1.0121294239465013,0.07178277395423205,1,True
2023-01-16,1.0121294239465013,1.0121294239465013,0.0,0,False
2023-01-17,1.0121294239465013,1.0121294239465013,0.0,0,False
2023-01-18,1.0121294239465013,1.0121294239465013,0.0,0,False
2023-01-19,1.0121294239465013,1.0096020108915909,-0.24971243747222704,1,True
2023-01-20,1.0096020108915909,1.0096020108915909,0.0,0,False
2023-01-21,1.0096020108915909,1.0101719324040275,0.056450116609152445,1,True
2023-01-22,1.0101719324040275,1.0098327031292407,-0.033581340354560396,0,True
2023-01-23,1.0098327031292407,1.0098327031292407,0.0,0,False
2023-01-24,1.0098327031292407,1.0127637601734774,0.29025174518055863,1,True
2023-01-25,1.0127637601734774,1.0155366914444046,0.273798429601424,5,True
2023-01-26,1.0155366914444046,1.0155366914444046,0.0,0,False
2023-01-27,1.0155366914444046,1.0155366914444046,0.0,0,False
2023-01-28,1.0155366914444046,1.0155366914444046,0.0,0,False
2023-01-29,1.0155366914444046,1.0155366914444046,0.0,0,False
2023-01-30,1.0155366914444046,1.0154591245303208,-0.007638021820111085,2,True
2023-01-31,1.0154591245303208,1.0136370319211017,-0.17943534753916968,2,True
2023-02-01,1.0136370319211017,1.0136370319211017,0.0,0,False
2023-02-02,1.0136370319211017,1.0136370319211017,0.0,0,False
2023-02-03,1.0136370319211017,1.0136370319211017,0.0,0,False
2023-02-04,1.0136370319211017,1.0136370319211017,0.0,0,False
2023-02-05,1.0136370319211017,1.0147909688682724,0.11384123811890579,4,True
2023-02-06,1.0147909688682724,1.02066800970397,0.5791380704000426,1,True
2023-02-07,1.02066800970397,1.0204423299557626,-0.02211098477289397,0,True
2023-02-08,1.0204423299557626,1.0204423299557626,0.0,0,False
2023-02-09,1.0204423299557626,1.0204423299557626,0.0,0,False
2023-02-10,1.0204423299557626,1.0204423299557626,0.0,0,False
2023-02-11,1.0204423299557626,1.0204423299557626,0.0,0,False
2023-02-12,1.0204423299557626,1.0204423299557626,0.0,0,False
2023-02-13,1.0204423299557626,1.0204423299557626,0.0,0,False
2023-02-14,1.0204423299557626,1.0204423299557626,0.0,0,False
2023-02-15,1.0204423299557626,1.0204423299557626,0.0,0,False
2023-02-16,1.0204423299557626,1.0204423299557626,0.0,0,False
2023-02-17,1.0204423299557626,1.0204423299557626,0.0,0,False
2023-02-18,1.0204423299557626,1.0204423299557626,0.0,0,False
2023-02-19,1.0204423299557626,1.0204423299557626,0.0,0,False
2023-02-20,1.0204423299557626,1.0204423299557626,0.0,0,False
2023-02-21,1.0204423299557626,1.0196800850644825,-0.07469749822247573,2,True
2023-02-22,1.0196800850644825,1.0198561405876543,0.017265760678331077,0,True
2023-02-23,1.0198561405876543,1.0253286227462466,0.5365935391082655,1,True
2023-02-24,1.0253286227462466,1.0253286227462466,0.0,0,False
2023-02-25,1.0253286227462466,1.0253286227462466,0.0,0,False
2023-02-26,1.0253286227462466,1.0253286227462466,0.0,0,False
2023-02-27,1.0253286227462466,1.0227679756863342,-0.24973915709618488,1,True
2023-02-28,1.0227679756863342,1.0227679756863342,0.0,0,False
2023-03-01,1.0227679756863342,1.0227679756863342,0.0,0,False
2023-03-02,1.0227679756863342,1.0227679756863342,0.0,0,False
2023-03-03,1.0227679756863342,1.0200259157615705,-0.2681018559388848,5,True
2023-03-04,1.0200259157615705,1.0200259157615705,0.0,0,False
2023-03-05,1.0200259157615705,1.0200259157615705,0.0,0,False
2023-03-06,1.0200259157615705,1.0200259157615705,0.0,0,False
2023-03-07,1.0200259157615705,1.0200259157615705,0.0,0,False
2023-03-08,1.0200259157615705,1.0200259157615705,0.0,0,False
2023-03-09,1.0200259157615705,1.0200259157615705,0.0,0,False
2023-03-10,1.0200259157615705,1.0200259157615705,0.0,0,False
2023-03-11,1.0200259157615705,1.02260937608834,0.2532739891064839,1,True
2023-03-12,1.02260937608834,1.021112335958602,-0.1463941329644669,0,True
2023-03-13,1.021112335958602,1.021112335958602,0.0,0,False
2023-03-14,1.021112335958602,1.021112335958602,0.0,0,False
2023-03-15,1.021112335958602,1.021112335958602,0.0,0,False
2023-03-16,1.021112335958602,1.0223126903958553,0.1175536123678711,1,True
2023-03-17,1.0223126903958553,1.019760032400132,-0.24969444473342817,1,True
2023-03-18,1.019760032400132,1.019760032400132,0.0,0,False
2023-03-19,1.019760032400132,1.019760032400132,0.0,0,False
2023-03-20,1.019760032400132,1.019760032400132,0.0,0,False
2023-03-21,1.019760032400132,1.0172141965845298,-0.24965047998696255,1,True
2023-03-22,1.0172141965845298,1.0172141965845298,0.0,0,False
2023-03-23,1.0172141965845298,1.0217227432108007,0.44322490203234644,3,True
2023-03-24,1.0217227432108007,1.0223168199093566,0.058144609435739625,0,True
2023-03-25,1.0223168199093566,1.01976333330543,-0.24977448812327774,1,True
2023-03-26,1.01976333330543,1.01976333330543,0.0,0,False
2023-03-27,1.01976333330543,1.01976333330543,0.0,0,False
2023-03-28,1.01976333330543,1.01976333330543,0.0,0,False
2023-03-29,1.01976333330543,1.01976333330543,0.0,0,False
2023-03-30,1.01976333330543,1.01976333330543,0.0,0,False
2023-03-31,1.01976333330543,1.01976333330543,0.0,0,False
2023-04-01,1.01976333330543,1.01976333330543,0.0,0,False
2023-04-02,1.01976333330543,1.01976333330543,0.0,0,False
2023-04-03,1.01976333330543,1.01976333330543,0.0,0,False
2023-04-04,1.01976333330543,1.01976333330543,0.0,0,False
2023-04-05,1.01976333330543,1.01976333330543,0.0,0,False
2023-04-06,1.01976333330543,1.0172145998058213,-0.24993382448329493,1,True
2023-04-07,1.0172145998058213,1.0152705261593746,-0.19111735584780298,1,True
2023-04-08,1.0152705261593746,1.0152705261593746,0.0,0,False
2023-04-09,1.0152705261593746,1.0152705261593746,0.0,0,False
2023-04-10,1.0152705261593746,1.0152705261593746,0.0,0,False
2023-04-11,1.0152705261593746,1.0152705261593746,0.0,0,False
2023-04-12,1.0152705261593746,1.0152705261593746,0.0,0,False
2023-04-13,1.0152705261593746,1.0152705261593746,0.0,0,False
2023-04-14,1.0152705261593746,1.0152705261593746,0.0,0,False
2023-04-15,1.0152705261593746,1.0152705261593746,0.0,0,False
2023-04-16,1.0152705261593746,1.0152705261593746,0.0,0,False
2023-04-17,1.0152705261593746,1.0152705261593746,0.0,0,False
2023-04-18,1.0152705261593746,1.0152705261593746,0.0,0,False
2023-04-19,1.0152705261593746,1.0102054082760765,-0.4988934232591946,2,True
2023-04-20,1.0102054082760765,1.0102054082760765,0.0,0,False
2023-04-21,1.0102054082760765,1.0102054082760765,0.0,0,False
2023-04-22,1.0102054082760765,1.0102054082760765,0.0,0,False
2023-04-23,1.0102054082760765,1.0102054082760765,0.0,0,False
2023-04-24,1.0102054082760765,1.0102054082760765,0.0,0,False
2023-04-25,1.0102054082760765,1.0102054082760765,0.0,0,False
2023-04-26,1.0102054082760765,1.0102054082760765,0.0,0,False
2023-04-27,1.0102054082760765,1.0102054082760765,0.0,0,False
2023-04-28,1.0102054082760765,1.0102054082760765,0.0,0,False
2023-04-29,1.0102054082760765,1.0102054082760765,0.0,0,False
2023-04-30,1.0102054082760765,1.0102054082760765,0.0,0,False
2023-05-01,1.0102054082760765,1.0102054082760765,0.0,0,False
2023-05-02,1.0102054082760765,1.0102054082760765,0.0,0,False
2023-05-03,1.0102054082760765,1.0102054082760765,0.0,0,False
2023-05-04,1.0102054082760765,1.0102054082760765,0.0,0,False
2023-05-05,1.0102054082760765,1.0102054082760765,0.0,0,False
2023-05-06,1.0102054082760765,1.0102054082760765,0.0,0,False
2023-05-07,1.0102054082760765,1.0102054082760765,0.0,0,False
2023-05-08,1.0102054082760765,1.008885793226655,-0.13062838890096629,5,True
2023-05-09,1.008885793226655,1.0077553642413741,-0.1120472696582997,2,True
2023-05-10,1.0077553642413741,1.0084283089180013,0.06677659087765964,1,True
2023-05-11,1.0084283089180013,1.009156702484204,0.07223057502068198,0,True
2023-05-12,1.009156702484204,1.009156702484204,0.0,0,False
2023-05-13,1.009156702484204,1.009156702484204,0.0,0,False
2023-05-14,1.009156702484204,1.009156702484204,0.0,0,False
2023-05-15,1.009156702484204,1.009156702484204,0.0,0,False
2023-05-16,1.009156702484204,1.009156702484204,0.0,0,False
2023-05-17,1.009156702484204,1.009156702484204,0.0,0,False
2023-05-18,1.009156702484204,1.009156702484204,0.0,0,False
2023-05-19,1.009156702484204,1.009156702484204,0.0,0,False
2023-05-20,1.009156702484204,1.009156702484204,0.0,0,False
2023-05-21,1.009156702484204,1.009156702484204,0.0,0,False
2023-05-22,1.009156702484204,1.009156702484204,0.0,0,False
2023-05-23,1.009156702484204,1.009156702484204,0.0,0,False
2023-05-24,1.009156702484204,1.009156702484204,0.0,0,False
2023-05-25,1.009156702484204,1.009156702484204,0.0,0,False
2023-05-26,1.009156702484204,1.0100395081769626,0.08747954510786027,1,True
2023-05-27,1.0100395081769626,1.0117170232879817,0.16608410833818255,0,True
2023-05-28,1.0117170232879817,1.0117170232879817,0.0,0,False
2023-05-29,1.0117170232879817,1.0117170232879817,0.0,0,False
2023-05-30,1.0117170232879817,1.0117170232879817,0.0,0,False
2023-05-31,1.0117170232879817,1.0117170232879817,0.0,0,False
2023-06-01,1.0117170232879817,1.0117170232879817,0.0,0,False
2023-06-02,1.0117170232879817,1.017921960616065,0.6133075934531274,1,True
2023-06-03,1.017921960616065,1.017921960616065,0.0,0,False
2023-06-04,1.017921960616065,1.017921960616065,0.0,0,False
2023-06-05,1.017921960616065,1.017921960616065,0.0,0,False
2023-06-06,1.017921960616065,1.0140586627906822,-0.3795278984888628,4,True
2023-06-07,1.0140586627906822,1.0140586627906822,0.0,0,False
2023-06-08,1.0140586627906822,1.0138594038465099,-0.01964964666087976,1,True
2023-06-09,1.0138594038465099,1.0138594038465099,0.0,0,False
2023-06-10,1.0138594038465099,1.0215484061706515,0.7583894073448505,5,True
2023-06-11,1.0215484061706515,1.0211804574906973,-0.03601872194519684,0,True
2023-06-12,1.0211804574906973,1.0211804574906973,0.0,0,False
2023-06-13,1.0211804574906973,1.0211804574906973,0.0,0,False
2023-06-14,1.0211804574906973,1.0211804574906973,0.0,0,False
2023-06-15,1.0211804574906973,1.0211804574906973,0.0,0,False
2023-06-16,1.0211804574906973,1.0211804574906973,0.0,0,False
2023-06-17,1.0211804574906973,1.0211804574906973,0.0,0,False
2023-06-18,1.0211804574906973,1.0211804574906973,0.0,0,False
2023-06-19,1.0211804574906973,1.023750190713146,0.25164339991026186,1,True
2023-06-20,1.023750190713146,1.0241634146911611,0.04036375101694745,0,True
2023-06-21,1.0241634146911611,1.0241634146911611,0.0,0,False
2023-06-22,1.0241634146911611,1.0216031660617146,-0.24998438654622035,1,True
2023-06-23,1.0216031660617146,1.0216031660617146,0.0,0,False
2023-06-24,1.0216031660617146,1.0216031660617146,0.0,0,False
2023-06-25,1.0216031660617146,1.0216031660617146,0.0,0,False
2023-06-26,1.0216031660617146,1.0216031660617146,0.0,0,False
2023-06-27,1.0216031660617146,1.0216031660617146,0.0,0,False
2023-06-28,1.0216031660617146,1.0216031660617146,0.0,0,False
2023-06-29,1.0216031660617146,1.0216031660617146,0.0,0,False
2023-06-30,1.0216031660617146,1.0114128297232052,-0.9974848039863815,4,True
2023-07-01,1.0114128297232052,1.0088872957037962,-0.24970357752928107,1,True
2023-07-02,1.0088872957037962,1.0088872957037962,0.0,0,False
2023-07-03,1.0088872957037962,1.0088872957037962,0.0,0,False
2023-07-04,1.0088872957037962,1.0088872957037962,0.0,0,False
2023-07-05,1.0088872957037962,1.0088872957037962,0.0,0,False
2023-07-06,1.0088872957037962,1.0088872957037962,0.0,0,False
2023-07-07,1.0088872957037962,1.0088872957037962,0.0,0,False
2023-07-08,1.0088872957037962,1.0088872957037962,0.0,0,False
2023-07-09,1.0088872957037962,1.0088872957037962,0.0,0,False
2023-07-10,1.0088872957037962,1.0088872957037962,0.0,0,False
2023-07-11,1.0088872957037962,1.0088872957037962,0.0,0,False
2023-07-12,1.0088872957037962,1.0088872957037962,0.0,0,False
2023-07-13,1.0088872957037962,1.0088872957037962,0.0,0,False
2023-07-14,1.0088872957037962,1.0088872957037962,0.0,0,False
2023-07-15,1.0088872957037962,1.0088872957037962,0.0,0,False
2023-07-16,1.0088872957037962,1.0088872957037962,0.0,0,False
2023-07-17,1.0088872957037962,1.0088872957037962,0.0,0,False
2023-07-18,1.0088872957037962,1.0088872957037962,0.0,0,False
2023-07-19,1.0088872957037962,1.0088872957037962,0.0,0,False
2023-07-20,1.0088872957037962,1.0088872957037962,0.0,0,False
2023-07-21,1.0088872957037962,1.0088872957037962,0.0,0,False
2023-07-22,1.0088872957037962,1.0088872957037962,0.0,0,False
2023-07-23,1.0088872957037962,1.0088872957037962,0.0,0,False
2023-07-24,1.0088872957037962,1.008773154438588,-0.01131357939525568,1,True
2023-07-25,1.008773154438588,1.0089416598617853,0.016703995586708764,0,True
2023-07-26,1.0089416598617853,1.0089416598617853,0.0,0,False
2023-07-27,1.0089416598617853,1.0089416598617853,0.0,0,False
2023-07-28,1.0089416598617853,1.0089416598617853,0.0,0,False
2023-07-29,1.0089416598617853,1.0089416598617853,0.0,0,False
2023-07-30,1.0089416598617853,1.0089416598617853,0.0,0,False
2023-07-31,1.0089416598617853,1.0089416598617853,0.0,0,False
2023-08-01,1.0089416598617853,1.0089416598617853,0.0,0,False
2023-08-02,1.0089416598617853,1.0089416598617853,0.0,0,False
2023-08-03,1.0089416598617853,1.0089416598617853,0.0,0,False
2023-08-04,1.0089416598617853,1.0089416598617853,0.0,0,False
2023-08-05,1.0089416598617853,1.0089416598617853,0.0,0,False
2023-08-06,1.0089416598617853,1.0089416598617853,0.0,0,False
2023-08-07,1.0089416598617853,1.0089416598617853,0.0,0,False
2023-08-08,1.0089416598617853,1.0089416598617853,0.0,0,False
2023-08-09,1.0089416598617853,1.0089416598617853,0.0,0,False
2023-08-10,1.0089416598617853,1.0089416598617853,0.0,0,False
2023-08-11,1.0089416598617853,1.0089416598617853,0.0,0,False
2023-08-12,1.0089416598617853,1.0089416598617853,0.0,0,False
2023-08-13,1.0089416598617853,1.0089416598617853,0.0,0,False
2023-08-14,1.0089416598617853,1.0089416598617853,0.0,0,False
2023-08-15,1.0089416598617853,1.0089416598617853,0.0,0,False
2023-08-16,1.0089416598617853,1.0125014129863696,0.35282051145275606,4,True
2023-08-17,1.0125014129863696,1.0125014129863696,0.0,0,False
2023-08-18,1.0125014129863696,1.0339922012985483,2.122544031695872,4,True
2023-08-19,1.0339922012985483,1.0339922012985483,0.0,0,False
2023-08-20,1.0339922012985483,1.0339922012985483,0.0,0,False
2023-08-21,1.0339922012985483,1.0339922012985483,0.0,0,False
2023-08-22,1.0339922012985483,1.0339922012985483,0.0,0,False
2023-08-23,1.0339922012985483,1.0339922012985483,0.0,0,False
2023-08-24,1.0339922012985483,1.0339922012985483,0.0,0,False
2023-08-25,1.0339922012985483,1.0262605135047074,-0.7477510743437943,3,True
2023-08-26,1.0262605135047074,1.0262605135047074,0.0,0,False
2023-08-27,1.0262605135047074,1.0262605135047074,0.0,0,False
2023-08-28,1.0262605135047074,1.0262605135047074,0.0,0,False
2023-08-29,1.0262605135047074,1.0262605135047074,0.0,0,False
2023-08-30,1.0262605135047074,1.0262605135047074,0.0,0,False
2023-08-31,1.0262605135047074,1.0262605135047074,0.0,0,False
2023-09-01,1.0262605135047074,1.0262605135047074,0.0,0,False
2023-09-02,1.0262605135047074,1.0271472616547115,0.08640575549143659,1,True
2023-09-03,1.0271472616547115,1.0274388148447773,0.02838475075093161,0,True
2023-09-04,1.0274388148447773,1.0274388148447773,0.0,0,False
2023-09-05,1.0274388148447773,1.0274388148447773,0.0,0,False
2023-09-06,1.0274388148447773,1.0274388148447773,0.0,0,False
2023-09-07,1.0274388148447773,1.0274388148447773,0.0,0,False
2023-09-08,1.0274388148447773,1.0274388148447773,0.0,0,False
2023-09-09,1.0274388148447773,1.0274388148447773,0.0,0,False
2023-09-10,1.0274388148447773,1.0265676375974926,-0.08479115590122044,2,True
2023-09-11,1.0265676375974926,1.0251854705454821,-0.13463964783121396,1,True
2023-09-12,1.0251854705454821,1.0251854705454821,0.0,0,False
2023-09-13,1.0251854705454821,1.0298032369747239,0.4504322936594862,1,True
2023-09-14,1.0298032369747239,1.0321832659749384,0.23111492708125514,0,True
2023-09-15,1.0321832659749384,1.0321832659749384,0.0,0,False
2023-09-16,1.0321832659749384,1.0321832659749384,0.0,0,False
2023-09-17,1.0321832659749384,1.0321832659749384,0.0,0,False
2023-09-18,1.0321832659749384,1.0296055469544292,-0.24973462615424102,1,True
2023-09-19,1.0296055469544292,1.0296055469544292,0.0,0,False
2023-09-20,1.0296055469544292,1.0307912074961316,0.11515677486486631,1,True
2023-09-21,1.0307912074961316,1.0323111421525875,0.14745320346181146,0,True
2023-09-22,1.0323111421525875,1.0323111421525875,0.0,0,False
2023-09-23,1.0323111421525875,1.0323111421525875,0.0,0,False
2023-09-24,1.0323111421525875,1.0323111421525875,0.0,0,False
2023-09-25,1.0323111421525875,1.0323111421525875,0.0,0,False
2023-09-26,1.0323111421525875,1.032710878140042,0.0387224327174307,1,True
2023-09-27,1.032710878140042,1.0320462020668593,-0.06436226123422983,0,True
2023-09-28,1.0320462020668593,1.0320462020668593,0.0,0,False
2023-09-29,1.0320462020668593,1.0320462020668593,0.0,0,False
2023-09-30,1.0320462020668593,1.0320462020668593,0.0,0,False
2023-10-01,1.0320462020668593,1.0320462020668593,0.0,0,False
2023-10-02,1.0320462020668593,1.0320462020668593,0.0,0,False
2023-10-03,1.0320462020668593,1.0321431135849444,0.00939023058184052,1,True
2023-10-04,1.0321431135849444,1.029466774747642,-0.2592992000892802,0,True
2023-10-05,1.029466774747642,1.029466774747642,0.0,0,False
2023-10-06,1.029466774747642,1.029466774747642,0.0,0,False
2023-10-07,1.029466774747642,1.029466774747642,0.0,0,False
2023-10-08,1.029466774747642,1.029466774747642,0.0,0,False
2023-10-09,1.029466774747642,1.029466774747642,0.0,0,False
2023-10-10,1.029466774747642,1.029466774747642,0.0,0,False
2023-10-11,1.029466774747642,1.029466774747642,0.0,0,False
2023-10-12,1.029466774747642,1.029466774747642,0.0,0,False
2023-10-13,1.029466774747642,1.029466774747642,0.0,0,False
2023-10-14,1.029466774747642,1.029466774747642,0.0,0,False
2023-10-15,1.029466774747642,1.029423605365879,-0.004193372998717582,1,True
2023-10-16,1.029423605365879,1.029764311476863,0.033096784376063226,1,True
2023-10-17,1.029764311476863,1.0269523213926377,-0.27307123124052923,1,True
2023-10-18,1.0269523213926377,1.0269523213926377,0.0,0,False
2023-10-19,1.0269523213926377,1.0218294544215925,-0.4988417538312029,2,True
2023-10-20,1.0218294544215925,1.0218294544215925,0.0,0,False
2023-10-21,1.0218294544215925,1.0222161969713208,0.037848052632938334,1,True
2023-10-22,1.0222161969713208,1.0222161969713208,0.0,0,False
2023-10-23,1.0222161969713208,1.0222161969713208,0.0,0,False
2023-10-24,1.0222161969713208,1.0222161969713208,0.0,0,False
2023-10-25,1.0222161969713208,1.0222161969713208,0.0,0,False
2023-10-26,1.0222161969713208,1.0256314898351784,0.33410670599591796,2,True
2023-10-27,1.0256314898351784,1.0260318140027378,0.039031969233294106,1,True
2023-10-28,1.0260318140027378,1.0266764880361463,0.06283177817787422,0,True
2023-10-29,1.0266764880361463,1.0266764880361463,0.0,0,False
2023-10-30,1.0266764880361463,1.0266764880361463,0.0,0,False
2023-10-31,1.0266764880361463,1.0266764880361463,0.0,0,False
2023-11-01,1.0266764880361463,1.0266764880361463,0.0,0,False
2023-11-02,1.0266764880361463,1.0266764880361463,0.0,0,False
2023-11-03,1.0266764880361463,1.0266764880361463,0.0,0,False
2023-11-04,1.0266764880361463,1.0266764880361463,0.0,0,False
2023-11-05,1.0266764880361463,1.0266764880361463,0.0,0,False
2023-11-06,1.0266764880361463,1.0266764880361463,0.0,0,False
2023-11-07,1.0266764880361463,1.024111864226448,-0.24979863078427034,1,True
2023-11-08,1.024111864226448,1.024111864226448,0.0,0,False
2023-11-09,1.024111864226448,1.025521453888466,0.13764020428401746,3,True
2023-11-10,1.025521453888466,1.031881355455305,0.6201627028595169,4,True
2023-11-11,1.031881355455305,1.031881355455305,0.0,0,False
2023-11-12,1.031881355455305,1.031881355455305,0.0,0,False
2023-11-13,1.031881355455305,1.031881355455305,0.0,0,False
2023-11-14,1.031881355455305,1.031881355455305,0.0,0,False
2023-11-15,1.031881355455305,1.031881355455305,0.0,0,False
2023-11-16,1.031881355455305,1.031881355455305,0.0,0,False
2023-11-17,1.031881355455305,1.031881355455305,0.0,0,False
2023-11-18,1.031881355455305,1.031881355455305,0.0,0,False
2023-11-19,1.031881355455305,1.031881355455305,0.0,0,False
2023-11-20,1.031881355455305,1.0326808656144544,0.07748082227889697,1,True
2023-11-21,1.0326808656144544,1.0308928180928678,-0.17314618495644085,0,True
2023-11-22,1.0308928180928678,1.0300775753729812,-0.07908122993763866,1,True
2023-11-23,1.0300775753729812,1.0300775753729812,0.0,0,False
2023-11-24,1.0300775753729812,1.0300775753729812,0.0,0,False
2023-11-25,1.0300775753729812,1.0289622596678945,-0.10827492334087863,1,True
2023-11-26,1.0289622596678945,1.0289622596678945,0.0,0,False
2023-11-27,1.0289622596678945,1.026393068729317,-0.24968757740508885,1,True
2023-11-28,1.026393068729317,1.026393068729317,0.0,0,False
2023-11-29,1.026393068729317,1.023829683781724,-0.2497469074656311,1,True
2023-11-30,1.023829683781724,1.023829683781724,0.0,0,False
2023-12-01,1.023829683781724,1.023829683781724,0.0,0,False
2023-12-02,1.023829683781724,1.023829683781724,0.0,0,False
2023-12-03,1.023829683781724,1.0241491899511401,0.031206964837737772,1,True
2023-12-04,1.0241491899511401,1.028440038981421,0.4189671848967125,4,True
2023-12-05,1.028440038981421,1.031189120954458,0.2673060041263664,0,True
2023-12-06,1.031189120954458,1.031189120954458,0.0,0,False
2023-12-07,1.031189120954458,1.0286137931460209,-0.24974350059602246,1,True
2023-12-08,1.0286137931460209,1.0286137931460209,0.0,0,False
2023-12-09,1.0286137931460209,1.0286137931460209,0.0,0,False
2023-12-10,1.0286137931460209,1.0286137931460209,0.0,0,False
2023-12-11,1.0286137931460209,1.0348654103760873,0.607771086847464,4,True
2023-12-12,1.0348654103760873,1.0348654103760873,0.0,0,False
2023-12-13,1.0348654103760873,1.0344926109726036,-0.03602395052977325,1,True
2023-12-14,1.0344926109726036,1.0344926109726036,0.0,0,False
2023-12-15,1.0344926109726036,1.0344926109726036,0.0,0,False
2023-12-16,1.0344926109726036,1.0344926109726036,0.0,0,False
2023-12-17,1.0344926109726036,1.0344926109726036,0.0,0,False
2023-12-18,1.0344926109726036,1.0362600989146085,0.17085554050919605,1,True
2023-12-19,1.0362600989146085,1.0349840819482983,-0.12313674603959823,0,True
2023-12-20,1.0349840819482983,1.0349840819482983,0.0,0,False
2023-12-21,1.0349840819482983,1.0349840819482983,0.0,0,False
2023-12-22,1.0349840819482983,1.0349840819482983,0.0,0,False
2023-12-23,1.0349840819482983,1.0349840819482983,0.0,0,False
2023-12-24,1.0349840819482983,1.0341882186079459,-0.07689619137467574,1,True
2023-12-25,1.0341882186079459,1.0357611017055839,0.1520886690969281,0,True
2023-12-26,1.0357611017055839,1.0357611017055839,0.0,0,False
2023-12-27,1.0357611017055839,1.031931388019399,-0.3697487461035709,2,True
2023-12-28,1.031931388019399,1.031931388019399,0.0,0,False
2023-12-29,1.031931388019399,1.031931388019399,0.0,0,False
2023-12-30,1.031931388019399,1.031931388019399,0.0,0,False
2023-12-31,1.031931388019399,1.031931388019399,0.0,0,False
