day,start_equity,end_equity,return_pct,entries,active
2024-01-02,1.0103467882541273,1.0139575938883325,0.3573827992708001,1,True
2024-01-03,1.0139575938883325,0.9904034473328502,-2.3229912865642244,4,True
2024-01-04,0.9904034473328502,0.9963552441837434,0.6009467017629389,8,True
2024-01-05,0.9963552441837434,0.9991872710491368,0.28423866707436574,7,True
2024-01-06,0.9991872710491368,1.007655196320113,0.8474812996851933,7,True
2024-01-07,1.007655196320113,1.0360940024619376,2.8222755408478184,8,True
2024-01-08,1.0360940024619376,1.012062603357001,-2.3194226631786163,3,True
2024-01-09,1.012062603357001,1.0020189357301328,-0.9923958847558922,5,True
2024-01-10,1.0020189357301328,0.9797491011716888,-2.222496378495764,6,True
2024-01-11,0.9797491011716888,1.0057521903988684,2.6540559410651587,5,True
2024-01-12,1.0057521903988684,0.985466241046467,-2.0169928085720934,1,True
2024-01-13,0.985466241046467,0.9940964937341529,0.875753255486611,8,True
2024-01-14,0.9940964937341529,0.992664059857619,-0.14409404776725143,0,True
2024-01-15,0.992664059857619,0.9999007515857795,0.7290171993532768,4,True
2024-01-16,0.9999007515857795,0.9934592946638261,-0.6442096289794419,1,True
2024-01-17,0.9934592946638261,1.0012037666656644,0.7795459807398375,0,True
2024-01-18,1.0012037666656644,0.994894940191675,-0.6301241249820455,2,True
2024-01-19,0.994894940191675,0.9862825246938209,-0.8656607999428356,1,True
2024-01-20,0.9862825246938209,1.009893301515672,2.3939161681061583,7,True
2024-01-21,1.009893301515672,1.006307924641944,-0.35502531488692535,3,True
2024-01-22,1.006307924641944,0.9861552952646971,-2.0026304954735785,3,True
2024-01-23,0.9861552952646971,0.9654656778641548,-2.098008041927002,9,True
2024-01-24,0.9654656778641548,0.9606504930708004,-0.4987422032450506,1,True
2024-01-25,0.9606504930708004,0.9460185146938173,-1.523132344439948,4,True
2024-01-26,0.9460185146938173,0.9415657608262836,-0.4706835858254599,0,True
2024-01-27,0.9415657608262836,0.9415657608262836,0.0,0,False
2024-01-28,0.9415657608262836,0.9383605860219787,-0.3404090226785894,2,True
2024-01-29,0.9383605860219787,0.9383103614166554,-0.005352377974043865,0,True
2024-01-30,0.9383103614166554,0.9383103614166554,0.0,0,False
2024-01-31,0.9383103614166554,0.9359731161064667,-0.24909085589334135,1,True
2024-02-01,0.9359731161064667,0.9359731161064667,0.0,0,False
2024-02-02,0.9359731161064667,0.9357790708405468,-0.020731927293715646,3,True
2024-02-03,0.9357790708405468,0.938060284258326,0.24377692223125358,1,True
2024-02-04,0.938060284258326,0.9386003773330822,0.057575518740060616,1,True
2024-02-05,0.9386003773330822,0.9386003773330822,0.0,0,False
2024-02-06,0.9386003773330822,0.9350296566065186,-0.38043035276731363,2,True
2024-02-07,0.9350296566065186,0.9310698696453111,-0.42349319438472754,5,True
2024-02-08,0.9310698696453111,0.9476852468473322,1.7845467610664523,1,True
2024-02-09,0.9476852468473322,0.9568781190827024,0.9700343300639291,0,True
2024-02-10,0.9568781190827024,0.9537730756844265,-0.32449727257348737,2,True
2024-02-11,0.9537730756844265,0.9524478672561345,-0.13894378674309538,0,True
2024-02-12,0.9524478672561345,0.9536794724831522,0.12930946347391448,3,True
2024-02-13,0.9536794724831522,0.9545718164427643,0.09356854009752169,0,True
2024-02-14,0.9545718164427643,0.9555719373361918,0.10477167628459849,2,True
2024-02-15,0.9555719373361918,0.9541485896149852,-0.14895244048025447,6,True
2024-02-16,0.9541485896149852,0.9557689139579495,0.16981886894766873,5,True
2024-02-17,0.9557689139579495,0.9445024451256685,-1.1787858621207126,5,True
2024-02-18,0.9445024451256685,0.9411196515027916,-0.35815615304487514,4,True
2024-02-19,0.9411196515027916,0.937614071962936,-0.372490313453544,6,True
2024-02-20,0.937614071962936,0.9323509903611304,-0.5613270703997753,9,True
2024-02-21,0.9323509903611304,0.9228460631391466,-1.0194580496238004,7,True
2024-02-22,0.9228460631391466,0.9344390785358531,1.2562241807990926,3,True
2024-02-23,0.9344390785358531,0.9268095612540223,-0.8164809731400879,7,True
2024-02-24,0.9268095612540223,0.9284800822001982,0.18024425038469793,8,True
2024-02-25,0.9284800822001982,0.9322432118778747,0.40529998971643444,8,True
2024-02-26,0.9322432118778747,0.9365128035401359,0.45799117739464545,7,True
2024-02-27,0.9365128035401359,0.9373403571039629,0.08836542978363227,4,True
2024-02-28,0.9373403571039629,0.9592763268724966,2.340235284044301,6,True
2024-02-29,0.9592763268724966,0.9398444804809972,-2.025677674633397,7,True
2024-03-01,0.9398444804809972,0.9434814391181872,0.38697451681883877,10,True
2024-03-02,0.9434814391181872,0.9420995121525283,-0.14647102829605796,9,True
2024-03-03,0.9420995121525283,0.9408366894028958,-0.13404345648658778,10,True
2024-03-04,0.9408366894028958,0.9662226705948251,2.6982346115818068,4,True
2024-03-05,0.9662226705948251,0.9579017628483931,-0.8611791049478845,9,True
2024-03-06,0.9579017628483931,0.9308795204887724,-2.8209826317959763,11,True
2024-03-07,0.9308795204887724,0.9278759850915177,-0.3226556531910507,10,True
2024-03-08,0.9278759850915177,0.9259089557989856,-0.2119926934350036,6,True
2024-03-09,0.9259089557989856,0.9281326256357054,0.24016074396870923,7,True
2024-03-10,0.9281326256357054,0.9378999604203677,1.052364125005556,8,True
2024-03-11,0.9378999604203677,0.9463676580981447,0.9028359137558617,8,True
2024-03-12,0.9463676580981447,0.948639109356897,0.24001784500085055,5,True
2024-03-13,0.948639109356897,0.9404241673146158,-0.8659712593812707,6,True
2024-03-14,0.9404241673146158,0.9404972602797523,0.0077723401500140454,5,True
2024-03-15,0.9404972602797523,0.9187248068888847,-2.314993813420718,11,True
2024-03-16,0.9187248068888847,0.9171878959291273,-0.16728741275223724,4,True
2024-03-17,0.9171878959291273,0.9028751822055286,-1.5604996301329943,8,True
2024-03-18,0.9028751822055286,0.9068411112767771,0.43925551941306207,4,True
2024-03-19,0.9068411112767771,0.887415329683515,-2.1421372886273105,11,True
2024-03-20,0.887415329683515,0.8868114683559624,-0.06804720488297056,1,True
2024-03-21,0.8868114683559624,0.8868114683559624,0.0,0,False
2024-03-22,0.8868114683559624,0.8868114683559624,0.0,0,False
2024-03-23,0.8868114683559624,0.8868114683559624,0.0,0,False
2024-03-24,0.8868114683559624,0.8868114683559624,0.0,0,False
2024-03-25,0.8868114683559624,0.8868114683559624,0.0,0,False
2024-03-26,0.8868114683559624,0.8868114683559624,0.0,0,False
2024-03-27,0.8868114683559624,0.8868114683559624,0.0,0,False
2024-03-28,0.8868114683559624,0.8868114683559624,0.0,0,False
2024-03-29,0.8868114683559624,0.8868114683559624,0.0,0,False
2024-03-30,0.8868114683559624,0.8868114683559624,0.0,0,False
2024-03-31,0.8868114683559624,0.8868114683559624,0.0,0,False
2024-04-01,0.8868114683559624,0.8868114683559624,0.0,0,False
2024-04-02,0.8868114683559624,0.8868114683559624,0.0,0,False
2024-04-03,0.8868114683559624,0.8868114683559624,0.0,0,False
2024-04-04,0.8868114683559624,0.8868114683559624,0.0,0,False
2024-04-05,0.8868114683559624,0.8868114683559624,0.0,0,False
2024-04-06,0.8868114683559624,0.8868114683559624,0.0,0,False
2024-04-07,0.8868114683559624,0.8868114683559624,0.0,0,False
2024-04-08,0.8868114683559624,0.8868114683559624,0.0,0,False
2024-04-09,0.8868114683559624,0.8868114683559624,0.0,0,False
2024-04-10,0.8868114683559624,0.8868114683559624,0.0,0,False
2024-04-11,0.8868114683559624,0.8868114683559624,0.0,0,False
2024-04-12,0.8868114683559624,0.8868114683559624,0.0,0,False
2024-04-13,0.8868114683559624,0.8868114683559624,0.0,0,False
2024-04-14,0.8868114683559624,0.8868114683559624,0.0,0,False
2024-04-15,0.8868114683559624,0.8868114683559624,0.0,0,False
2024-04-16,0.8868114683559624,0.8868114683559624,0.0,0,False
2024-04-17,0.8868114683559624,0.8868114683559624,0.0,0,False
2024-04-18,0.8868114683559624,0.8868114683559624,0.0,0,False
2024-04-19,0.8868114683559624,0.8868114683559624,0.0,0,False
2024-04-20,0.8868114683559624,0.8868114683559624,0.0,0,False
2024-04-21,0.8868114683559624,0.8868114683559624,0.0,0,False
2024-04-22,0.8868114683559624,0.8868114683559624,0.0,0,False
2024-04-23,0.8868114683559624,0.8868114683559624,0.0,0,False
2024-04-24,0.8868114683559624,0.8868114683559624,0.0,0,False
2024-04-25,0.8868114683559624,0.8868114683559624,0.0,0,False
2024-04-26,0.8868114683559624,0.8868114683559624,0.0,0,False
2024-04-27,0.8868114683559624,0.8868114683559624,0.0,0,False
2024-04-28,0.8868114683559624,0.8868114683559624,0.0,0,False
2024-04-29,0.8868114683559624,0.8868114683559624,0.0,0,False
2024-04-30,0.8868114683559624,0.8868114683559624,0.0,0,False
2024-05-01,0.8868114683559624,0.8868114683559624,0.0,0,False
2024-05-02,0.8868114683559624,0.8868114683559624,0.0,0,False
2024-05-03,0.8868114683559624,0.8868114683559624,0.0,0,False
2024-05-04,0.8868114683559624,0.8868114683559624,0.0,0,False
2024-05-05,0.8868114683559624,0.8868114683559624,0.0,0,False
2024-05-06,0.8868114683559624,0.8868114683559624,0.0,0,False
2024-05-07,0.8868114683559624,0.8868114683559624,0.0,0,False
2024-05-08,0.8868114683559624,0.8868114683559624,0.0,0,False
2024-05-09,0.8868114683559624,0.8868114683559624,0.0,0,False
2024-05-10,0.8868114683559624,0.8868114683559624,0.0,0,False
2024-05-11,0.8868114683559624,0.8868114683559624,0.0,0,False
2024-05-12,0.8868114683559624,0.8868114683559624,0.0,0,False
2024-05-13,0.8868114683559624,0.8868114683559624,0.0,0,False
2024-05-14,0.8868114683559624,0.8868114683559624,0.0,0,False
2024-05-15,0.8868114683559624,0.8868114683559624,0.0,0,False
2024-05-16,0.8868114683559624,0.8868114683559624,0.0,0,False
2024-05-17,0.8868114683559624,0.8868114683559624,0.0,0,False
2024-05-18,0.8868114683559624,0.8868114683559624,0.0,0,False
2024-05-19,0.8868114683559624,0.8868114683559624,0.0,0,False
2024-05-20,0.8868114683559624,0.8868114683559624,0.0,0,False
2024-05-21,0.8868114683559624,0.8868114683559624,0.0,0,False
2024-05-22,0.8868114683559624,0.8868114683559624,0.0,0,False
2024-05-23,0.8868114683559624,0.8868114683559624,0.0,0,False
2024-05-24,0.8868114683559624,0.8868114683559624,0.0,0,False
2024-05-25,0.8868114683559624,0.8868114683559624,0.0,0,False
2024-05-26,0.8868114683559624,0.8868114683559624,0.0,0,False
2024-05-27,0.8868114683559624,0.8868114683559624,0.0,0,False
2024-05-28,0.8868114683559624,0.8868114683559624,0.0,0,False
2024-05-29,0.8868114683559624,0.8868114683559624,0.0,0,False
2024-05-30,0.8868114683559624,0.8868114683559624,0.0,0,False
2024-05-31,0.8868114683559624,0.8868114683559624,0.0,0,False
2024-06-01,0.8868114683559624,0.8868114683559624,0.0,0,False
2024-06-02,0.8868114683559624,0.8868114683559624,0.0,0,False
2024-06-03,0.8868114683559624,0.8868114683559624,0.0,0,False
2024-06-04,0.8868114683559624,0.8868114683559624,0.0,0,False
2024-06-05,0.8868114683559624,0.8868114683559624,0.0,0,False
2024-06-06,0.8868114683559624,0.8868114683559624,0.0,0,False
2024-06-07,0.8868114683559624,0.8868114683559624,0.0,0,False
2024-06-08,0.8868114683559624,0.8868114683559624,0.0,0,False
2024-06-09,0.8868114683559624,0.8868114683559624,0.0,0,False
2024-06-10,0.8868114683559624,0.8868114683559624,0.0,0,False
2024-06-11,0.8868114683559624,0.8868114683559624,0.0,0,False
2024-06-12,0.8868114683559624,0.8868114683559624,0.0,0,False
2024-06-13,0.8868114683559624,0.8868114683559624,0.0,0,False
2024-06-14,0.8868114683559624,0.8868114683559624,0.0,0,False
2024-06-15,0.8868114683559624,0.8868114683559624,0.0,0,False
2024-06-16,0.8868114683559624,0.8868114683559624,0.0,0,False
2024-06-17,0.8868114683559624,0.8868114683559624,0.0,0,False
2024-06-18,0.8868114683559624,0.8868114683559624,0.0,0,False
2024-06-19,0.8868114683559624,0.8868114683559624,0.0,0,False
2024-06-20,0.8868114683559624,0.8868114683559624,0.0,0,False
2024-06-21,0.8868114683559624,0.8868114683559624,0.0,0,False
2024-06-22,0.8868114683559624,0.8868114683559624,0.0,0,False
2024-06-23,0.8868114683559624,0.8868114683559624,0.0,0,False
2024-06-24,0.8868114683559624,0.8868114683559624,0.0,0,False
2024-06-25,0.8868114683559624,0.8868114683559624,0.0,0,False
2024-06-26,0.8868114683559624,0.8868114683559624,0.0,0,False
2024-06-27,0.8868114683559624,0.8868114683559624,0.0,0,False
2024-06-28,0.8868114683559624,0.8868114683559624,0.0,0,False
2024-06-29,0.8868114683559624,0.8868114683559624,0.0,0,False
2024-06-30,0.8868114683559624,0.8868114683559624,0.0,0,False
2024-07-01,0.8868114683559624,0.8868114683559624,0.0,0,False
2024-07-02,0.8868114683559624,0.8868114683559624,0.0,0,False
2024-07-03,0.8868114683559624,0.8868114683559624,0.0,0,False
2024-07-04,0.8868114683559624,0.8868114683559624,0.0,0,False
2024-07-05,0.8868114683559624,0.8868114683559624,0.0,0,False
2024-07-06,0.8868114683559624,0.8868114683559624,0.0,0,False
2024-07-07,0.8868114683559624,0.8868114683559624,0.0,0,False
2024-07-08,0.8868114683559624,0.8868114683559624,0.0,0,False
2024-07-09,0.8868114683559624,0.8868114683559624,0.0,0,False
2024-07-10,0.8868114683559624,0.8868114683559624,0.0,0,False
2024-07-11,0.8868114683559624,0.8868114683559624,0.0,0,False
2024-07-12,0.8868114683559624,0.8868114683559624,0.0,0,False
2024-07-13,0.8868114683559624,0.8868114683559624,0.0,0,False
2024-07-14,0.8868114683559624,0.8868114683559624,0.0,0,False
2024-07-15,0.8868114683559624,0.8868114683559624,0.0,0,False
2024-07-16,0.8868114683559624,0.8868114683559624,0.0,0,False
2024-07-17,0.8868114683559624,0.8868114683559624,0.0,0,False
2024-07-18,0.8868114683559624,0.8868114683559624,0.0,0,False
2024-07-19,0.8868114683559624,0.8868114683559624,0.0,0,False
2024-07-20,0.8868114683559624,0.8868114683559624,0.0,0,False
2024-07-21,0.8868114683559624,0.8868114683559624,0.0,0,False
2024-07-22,0.8868114683559624,0.8868114683559624,0.0,0,False
2024-07-23,0.8868114683559624,0.8868114683559624,0.0,0,False
2024-07-24,0.8868114683559624,0.8868114683559624,0.0,0,False
2024-07-25,0.8868114683559624,0.8868114683559624,0.0,0,False
2024-07-26,0.8868114683559624,0.8868114683559624,0.0,0,False
2024-07-27,0.8868114683559624,0.8868114683559624,0.0,0,False
2024-07-28,0.8868114683559624,0.8868114683559624,0.0,0,False
2024-07-29,0.8868114683559624,0.8868114683559624,0.0,0,False
2024-07-30,0.8868114683559624,0.8868114683559624,0.0,0,False
2024-07-31,0.8868114683559624,0.8868114683559624,0.0,0,False
2024-08-01,0.8868114683559624,0.8868114683559624,0.0,0,False
2024-08-02,0.8868114683559624,0.8868114683559624,0.0,0,False
2024-08-03,0.8868114683559624,0.8868114683559624,0.0,0,False
2024-08-04,0.8868114683559624,0.8868114683559624,0.0,0,False
2024-08-05,0.8868114683559624,0.8868114683559624,0.0,0,False
2024-08-06,0.8868114683559624,0.8868114683559624,0.0,0,False
2024-08-07,0.8868114683559624,0.8868114683559624,0.0,0,False
2024-08-08,0.8868114683559624,0.8868114683559624,0.0,0,False
2024-08-09,0.8868114683559624,0.8868114683559624,0.0,0,False
2024-08-10,0.8868114683559624,0.8868114683559624,0.0,0,False
2024-08-11,0.8868114683559624,0.8868114683559624,0.0,0,False
2024-08-12,0.8868114683559624,0.8868114683559624,0.0,0,False
2024-08-13,0.8868114683559624,0.8868114683559624,0.0,0,False
2024-08-14,0.8868114683559624,0.8868114683559624,0.0,0,False
2024-08-15,0.8868114683559624,0.8868114683559624,0.0,0,False
2024-08-16,0.8868114683559624,0.8868114683559624,0.0,0,False
2024-08-17,0.8868114683559624,0.8868114683559624,0.0,0,False
2024-08-18,0.8868114683559624,0.8868114683559624,0.0,0,False
2024-08-19,0.8868114683559624,0.8868114683559624,0.0,0,False
2024-08-20,0.8868114683559624,0.8868114683559624,0.0,0,False
2024-08-21,0.8868114683559624,0.8868114683559624,0.0,0,False
2024-08-22,0.8868114683559624,0.8868114683559624,0.0,0,False
2024-08-23,0.8868114683559624,0.8868114683559624,0.0,0,False
2024-08-24,0.8868114683559624,0.8868114683559624,0.0,0,False
2024-08-25,0.8868114683559624,0.8868114683559624,0.0,0,False
2024-08-26,0.8868114683559624,0.8868114683559624,0.0,0,False
2024-08-27,0.8868114683559624,0.8868114683559624,0.0,0,False
2024-08-28,0.8868114683559624,0.8868114683559624,0.0,0,False
2024-08-29,0.8868114683559624,0.8868114683559624,0.0,0,False
2024-08-30,0.8868114683559624,0.8868114683559624,0.0,0,False
2024-08-31,0.8868114683559624,0.8868114683559624,0.0,0,False
2024-09-01,0.8868114683559624,0.8868114683559624,0.0,0,False
2024-09-02,0.8868114683559624,0.8868114683559624,0.0,0,False
2024-09-03,0.8868114683559624,0.8868114683559624,0.0,0,False
2024-09-04,0.8868114683559624,0.8868114683559624,0.0,0,False
2024-09-05,0.8868114683559624,0.8868114683559624,0.0,0,False
2024-09-06,0.8868114683559624,0.8868114683559624,0.0,0,False
2024-09-07,0.8868114683559624,0.8868114683559624,0.0,0,False
2024-09-08,0.8868114683559624,0.8868114683559624,0.0,0,False
2024-09-09,0.8868114683559624,0.8868114683559624,0.0,0,False
2024-09-10,0.8868114683559624,0.8868114683559624,0.0,0,False
2024-09-11,0.8868114683559624,0.8868114683559624,0.0,0,False
2024-09-12,0.8868114683559624,0.8868114683559624,0.0,0,False
2024-09-13,0.8868114683559624,0.8868114683559624,0.0,0,False
2024-09-14,0.8868114683559624,0.8868114683559624,0.0,0,False
2024-09-15,0.8868114683559624,0.8868114683559624,0.0,0,False
2024-09-16,0.8868114683559624,0.8868114683559624,0.0,0,False
2024-09-17,0.8868114683559624,0.8868114683559624,0.0,0,False
2024-09-18,0.8868114683559624,0.8868114683559624,0.0,0,False
2024-09-19,0.8868114683559624,0.8868114683559624,0.0,0,False
2024-09-20,0.8868114683559624,0.8868114683559624,0.0,0,False
2024-09-21,0.8868114683559624,0.8868114683559624,0.0,0,False
2024-09-22,0.8868114683559624,0.8868114683559624,0.0,0,False
2024-09-23,0.8868114683559624,0.8868114683559624,0.0,0,False
2024-09-24,0.8868114683559624,0.8868114683559624,0.0,0,False
2024-09-25,0.8868114683559624,0.8868114683559624,0.0,0,False
2024-09-26,0.8868114683559624,0.8868114683559624,0.0,0,False
2024-09-27,0.8868114683559624,0.8868114683559624,0.0,0,False
2024-09-28,0.8868114683559624,0.8868114683559624,0.0,0,False
2024-09-29,0.8868114683559624,0.8868114683559624,0.0,0,False
2024-09-30,0.8868114683559624,0.8868114683559624,0.0,0,False
2024-10-01,0.8868114683559624,0.8868114683559624,0.0,0,False
2024-10-02,0.8868114683559624,0.8868114683559624,0.0,0,False
2024-10-03,0.8868114683559624,0.8868114683559624,0.0,0,False
2024-10-04,0.8868114683559624,0.8868114683559624,0.0,0,False
2024-10-05,0.8868114683559624,0.8868114683559624,0.0,0,False
2024-10-06,0.8868114683559624,0.8868114683559624,0.0,0,False
2024-10-07,0.8868114683559624,0.8868114683559624,0.0,0,False
2024-10-08,0.8868114683559624,0.8868114683559624,0.0,0,False
2024-10-09,0.8868114683559624,0.8868114683559624,0.0,0,False
2024-10-10,0.8868114683559624,0.8868114683559624,0.0,0,False
2024-10-11,0.8868114683559624,0.8868114683559624,0.0,0,False
2024-10-12,0.8868114683559624,0.8868114683559624,0.0,0,False
2024-10-13,0.8868114683559624,0.8868114683559624,0.0,0,False
2024-10-14,0.8868114683559624,0.8868114683559624,0.0,0,False
2024-10-15,0.8868114683559624,0.8868114683559624,0.0,0,False
2024-10-16,0.8868114683559624,0.8868114683559624,0.0,0,False
2024-10-17,0.8868114683559624,0.8868114683559624,0.0,0,False
2024-10-18,0.8868114683559624,0.8868114683559624,0.0,0,False
2024-10-19,0.8868114683559624,0.8868114683559624,0.0,0,False
2024-10-20,0.8868114683559624,0.8868114683559624,0.0,0,False
2024-10-21,0.8868114683559624,0.8868114683559624,0.0,0,False
2024-10-22,0.8868114683559624,0.8868114683559624,0.0,0,False
2024-10-23,0.8868114683559624,0.8868114683559624,0.0,0,False
2024-10-24,0.8868114683559624,0.8868114683559624,0.0,0,False
2024-10-25,0.8868114683559624,0.8868114683559624,0.0,0,False
2024-10-26,0.8868114683559624,0.8868114683559624,0.0,0,False
2024-10-27,0.8868114683559624,0.8868114683559624,0.0,0,False
2024-10-28,0.8868114683559624,0.8868114683559624,0.0,0,False
2024-10-29,0.8868114683559624,0.8868114683559624,0.0,0,False
2024-10-30,0.8868114683559624,0.8868114683559624,0.0,0,False
2024-10-31,0.8868114683559624,0.8868114683559624,0.0,0,False
2024-11-01,0.8868114683559624,0.8868114683559624,0.0,0,False
2024-11-02,0.8868114683559624,0.8868114683559624,0.0,0,False
2024-11-03,0.8868114683559624,0.8868114683559624,0.0,0,False
2024-11-04,0.8868114683559624,0.8868114683559624,0.0,0,False
2024-11-05,0.8868114683559624,0.8868114683559624,0.0,0,False
2024-11-06,0.8868114683559624,0.8868114683559624,0.0,0,False
2024-11-07,0.8868114683559624,0.8868114683559624,0.0,0,False
2024-11-08,0.8868114683559624,0.8868114683559624,0.0,0,False
2024-11-09,0.8868114683559624,0.8868114683559624,0.0,0,False
2024-11-10,0.8868114683559624,0.8868114683559624,0.0,0,False
2024-11-11,0.8868114683559624,0.8868114683559624,0.0,0,False
2024-11-12,0.8868114683559624,0.8868114683559624,0.0,0,False
2024-11-13,0.8868114683559624,0.8868114683559624,0.0,0,False
2024-11-14,0.8868114683559624,0.8868114683559624,0.0,0,False
2024-11-15,0.8868114683559624,0.8868114683559624,0.0,0,False
2024-11-16,0.8868114683559624,0.8868114683559624,0.0,0,False
2024-11-17,0.8868114683559624,0.8868114683559624,0.0,0,False
2024-11-18,0.8868114683559624,0.8868114683559624,0.0,0,False
2024-11-19,0.8868114683559624,0.8868114683559624,0.0,0,False
2024-11-20,0.8868114683559624,0.8868114683559624,0.0,0,False
2024-11-21,0.8868114683559624,0.8868114683559624,0.0,0,False
2024-11-22,0.8868114683559624,0.8868114683559624,0.0,0,False
2024-11-23,0.8868114683559624,0.8868114683559624,0.0,0,False
2024-11-24,0.8868114683559624,0.8868114683559624,0.0,0,False
2024-11-25,0.8868114683559624,0.8868114683559624,0.0,0,False
2024-11-26,0.8868114683559624,0.8868114683559624,0.0,0,False
2024-11-27,0.8868114683559624,0.8868114683559624,0.0,0,False
2024-11-28,0.8868114683559624,0.8868114683559624,0.0,0,False
2024-11-29,0.8868114683559624,0.8868114683559624,0.0,0,False
2024-11-30,0.8868114683559624,0.8868114683559624,0.0,0,False
2024-12-01,0.8868114683559624,0.8868114683559624,0.0,0,False
2024-12-02,0.8868114683559624,0.8868114683559624,0.0,0,False
2024-12-03,0.8868114683559624,0.8868114683559624,0.0,0,False
2024-12-04,0.8868114683559624,0.8868114683559624,0.0,0,False
2024-12-05,0.8868114683559624,0.8868114683559624,0.0,0,False
2024-12-06,0.8868114683559624,0.8868114683559624,0.0,0,False
2024-12-07,0.8868114683559624,0.8868114683559624,0.0,0,False
2024-12-08,0.8868114683559624,0.8868114683559624,0.0,0,False
2024-12-09,0.8868114683559624,0.8868114683559624,0.0,0,False
2024-12-10,0.8868114683559624,0.8868114683559624,0.0,0,False
2024-12-11,0.8868114683559624,0.8868114683559624,0.0,0,False
2024-12-12,0.8868114683559624,0.8868114683559624,0.0,0,False
2024-12-13,0.8868114683559624,0.8868114683559624,0.0,0,False
2024-12-14,0.8868114683559624,0.8868114683559624,0.0,0,False
2024-12-15,0.8868114683559624,0.8868114683559624,0.0,0,False
2024-12-16,0.8868114683559624,0.8868114683559624,0.0,0,False
2024-12-17,0.8868114683559624,0.8868114683559624,0.0,0,False
2024-12-18,0.8868114683559624,0.8868114683559624,0.0,0,False
2024-12-19,0.8868114683559624,0.8868114683559624,0.0,0,False
2024-12-20,0.8868114683559624,0.8868114683559624,0.0,0,False
2024-12-21,0.8868114683559624,0.8868114683559624,0.0,0,False
2024-12-22,0.8868114683559624,0.8868114683559624,0.0,0,False
2024-12-23,0.8868114683559624,0.8868114683559624,0.0,0,False
2024-12-24,0.8868114683559624,0.8868114683559624,0.0,0,False
2024-12-25,0.8868114683559624,0.8868114683559624,0.0,0,False
2024-12-26,0.8868114683559624,0.8868114683559624,0.0,0,False
2024-12-27,0.8868114683559624,0.8868114683559624,0.0,0,False
2024-12-28,0.8868114683559624,0.8868114683559624,0.0,0,False
2024-12-29,0.8868114683559624,0.8868114683559624,0.0,0,False
2024-12-30,0.8868114683559624,0.8868114683559624,0.0,0,False
2024-12-31,0.8868114683559624,0.8868114683559624,0.0,0,False
