day,start_equity,end_equity,return_pct,entries,active
2021-09-02,1.0,1.0,0.0,0,False
2021-09-03,1.0,1.0,0.0,0,False
2021-09-04,1.0,1.0,0.0,0,False
2021-09-05,1.0,1.0,0.0,0,False
2021-09-06,1.0,1.0,0.0,0,False
2021-09-07,1.0,1.0,0.0,0,False
2021-09-08,1.0,1.0,0.0,0,False
2021-09-09,1.0,1.0,0.0,0,False
2021-09-10,1.0,1.0,0.0,0,False
2021-09-11,1.0,1.0,0.0,0,False
2021-09-12,1.0,1.0,0.0,0,False
2021-09-13,1.0,1.0,0.0,0,False
2021-09-14,1.0,1.0,0.0,0,False
2021-09-15,1.0,1.0,0.0,0,False
2021-09-16,1.0,1.0,0.0,0,False
2021-09-17,1.0,1.0,0.0,0,False
2021-09-18,1.0,1.0,0.0,0,False
2021-09-19,1.0,1.0,0.0,0,False
2021-09-20,1.0,1.0,0.0,0,False
2021-09-21,1.0,1.0,0.0,0,False
2021-09-22,1.0,1.0,0.0,0,False
2021-09-23,1.0,1.0,0.0,0,False
2021-09-24,1.0,1.0,0.0,0,False
2021-09-25,1.0,1.0,0.0,0,False
2021-09-26,1.0,1.0,0.0,0,False
2021-09-27,1.0,1.0,0.0,0,False
2021-09-28,1.0,1.0,0.0,0,False
2021-09-29,1.0,1.0,0.0,0,False
2021-09-30,1.0,1.0,0.0,0,False
2021-10-01,1.0,1.0,0.0,0,False
2021-10-02,1.0,1.0,0.0,0,False
2021-10-03,1.0,1.0,0.0,0,False
2021-10-04,1.0,1.0,0.0,0,False
2021-10-05,1.0,1.0,0.0,0,False
2021-10-06,1.0,0.9927723718638383,-0.7227628136161734,2,True
2021-10-07,0.9927723718638383,0.9927723718638383,0.0,0,False
2021-10-08,0.9927723718638383,0.9927723718638383,0.0,0,False
2021-10-09,0.9927723718638383,0.9927723718638383,0.0,0,False
2021-10-10,0.9927723718638383,0.9927723718638383,0.0,0,False
2021-10-11,0.9927723718638383,0.9927723718638383,0.0,0,False
2021-10-12,0.9927723718638383,0.9927723718638383,0.0,0,False
2021-10-13,0.9927723718638383,1.0005148220882278,0.7798817174831107,1,True
2021-10-14,1.0005148220882278,1.006428786225054,0.5910921064100627,0,True
2021-10-15,1.006428786225054,1.0069525320585722,0.05204002912939654,2,True
2021-10-16,1.0069525320585722,1.001985555341874,-0.4932682086358109,2,True
2021-10-17,1.001985555341874,1.001985555341874,0.0,0,False
2021-10-18,1.001985555341874,1.001985555341874,0.0,0,False
2021-10-19,1.001985555341874,1.001985555341874,0.0,0,False
2021-10-20,1.001985555341874,1.001985555341874,0.0,0,False
2021-10-21,1.001985555341874,1.001985555341874,0.0,0,False
2021-10-22,1.001985555341874,1.001985555341874,0.0,0,False
2021-10-23,1.001985555341874,1.001985555341874,0.0,0,False
2021-10-24,1.001985555341874,1.001985555341874,0.0,0,False
2021-10-25,1.001985555341874,1.0036144087333827,0.1625625621871407,1,True
2021-10-26,1.0036144087333827,1.0036144087333827,0.0,0,False
2021-10-27,1.0036144087333827,1.0247183319312276,2.1027919701231967,4,True
2021-10-28,1.0247183319312276,1.0179572029971413,-0.6598036478320801,0,True
2021-10-29,1.0179572029971413,1.0179572029971413,0.0,0,False
2021-10-30,1.0179572029971413,1.0161570595420812,-0.17683881500715204,1,True
2021-10-31,1.0161570595420812,1.0151176762581464,-0.10228569237152874,4,True
2021-11-01,1.0151176762581464,1.0041529068909816,-1.0801476147654476,2,True
2021-11-02,1.0041529068909816,1.0041529068909816,0.0,0,False
2021-11-03,1.0041529068909816,1.0041529068909816,0.0,0,False
2021-11-04,1.0041529068909816,0.9999183810998513,-0.42170129290777236,1,True
2021-11-05,0.9999183810998513,0.9999183810998513,0.0,0,False
2021-11-06,0.9999183810998513,0.9999183810998513,0.0,0,False
2021-11-07,0.9999183810998513,0.9999183810998513,0.0,0,False
2021-11-08,0.9999183810998513,0.9999183810998513,0.0,0,False
2021-11-09,0.9999183810998513,0.9999183810998513,0.0,0,False
2021-11-10,0.9999183810998513,0.9999183810998513,0.0,0,False
2021-11-11,0.9999183810998513,1.0167964923658654,1.6879488951337507,6,True
2021-11-12,1.0167964923658654,1.013217847859992,-0.35195287677937115,1,True
2021-11-13,1.013217847859992,1.013217847859992,0.0,0,False
2021-11-14,1.013217847859992,1.013217847859992,0.0,0,False
2021-11-15,1.013217847859992,1.013217847859992,0.0,0,False
2021-11-16,1.013217847859992,1.060582087633911,4.674635358423318,4,True
2021-11-17,1.060582087633911,1.0669967794255677,0.6048274684675725,0,True
2021-11-18,1.0669967794255677,1.0631262850566474,-0.3627465840153721,1,True
2021-11-19,1.0631262850566474,1.0631262850566474,0.0,0,False
2021-11-20,1.0631262850566474,1.0631262850566474,0.0,0,False
2021-11-21,1.0631262850566474,1.0631262850566474,0.0,0,False
2021-11-22,1.0631262850566474,1.0631262850566474,0.0,0,False
2021-11-23,1.0631262850566474,1.0631262850566474,0.0,0,False
2021-11-24,1.0631262850566474,1.0631262850566474,0.0,0,False
2021-11-25,1.0631262850566474,1.057817032372564,-0.49940000155301867,1,True
2021-11-26,1.057817032372564,1.056293405660324,-0.14403499524134888,6,True
2021-11-27,1.056293405660324,1.0554487284770242,-0.07996615133384344,0,True
2021-11-28,1.0554487284770242,1.0501798659999841,-0.4992059144969363,1,True
2021-11-29,1.0501798659999841,1.0501798659999841,0.0,0,False
2021-11-30,1.0501798659999841,1.0501798659999841,0.0,0,False
2021-12-01,1.0501798659999841,1.054822060568014,0.4420380468453944,1,True
2021-12-02,1.054822060568014,1.0558544472658455,0.09787306659811978,2,True
2021-12-03,1.0558544472658455,1.0523195826561018,-0.33478711188813515,1,True
2021-12-04,1.0523195826561018,1.0263777988240037,-2.4652001406853863,13,True
2021-12-05,1.0263777988240037,1.0263777988240037,0.0,0,False
2021-12-06,1.0263777988240037,1.0263777988240037,0.0,0,False
2021-12-07,1.0263777988240037,1.0263777988240037,0.0,0,False
2021-12-08,1.0263777988240037,1.0263777988240037,0.0,0,False
2021-12-09,1.0263777988240037,1.0263777988240037,0.0,0,False
2021-12-10,1.0263777988240037,1.0263777988240037,0.0,0,False
2021-12-11,1.0263777988240037,1.0263777988240037,0.0,0,False
2021-12-12,1.0263777988240037,1.0263777988240037,0.0,0,False
2021-12-13,1.0263777988240037,1.0263777988240037,0.0,0,False
2021-12-14,1.0263777988240037,1.0263777988240037,0.0,0,False
2021-12-15,1.0263777988240037,1.0263777988240037,0.0,0,False
2021-12-16,1.0263777988240037,1.0263777988240037,0.0,0,False
2021-12-17,1.0263777988240037,1.0235625897413858,-0.2742858512570612,1,True
2021-12-18,1.0235625897413858,1.0235625897413858,0.0,0,False
2021-12-19,1.0235625897413858,1.0235625897413858,0.0,0,False
2021-12-20,1.0235625897413858,1.0235625897413858,0.0,0,False
2021-12-21,1.0235625897413858,1.0235625897413858,0.0,0,False
2021-12-22,1.0235625897413858,1.0235625897413858,0.0,0,False
2021-12-23,1.0235625897413858,1.0235625897413858,0.0,0,False
2021-12-24,1.0235625897413858,1.0235625897413858,0.0,0,False
2021-12-25,1.0235625897413858,1.0235625897413858,0.0,0,False
2021-12-26,1.0235625897413858,1.0235625897413858,0.0,0,False
2021-12-27,1.0235625897413858,1.0235625897413858,0.0,0,False
2021-12-28,1.0235625897413858,1.0235625897413858,0.0,0,False
2021-12-29,1.0235625897413858,1.0235625897413858,0.0,0,False
2021-12-30,1.0235625897413858,1.0235625897413858,0.0,0,False
2021-12-31,1.0235625897413858,1.0235625897413858,0.0,0,False
2022-01-01,1.0235625897413858,1.0235625897413858,0.0,0,False
2022-01-02,1.0235625897413858,1.0235625897413858,0.0,0,False
2022-01-03,1.0235625897413858,1.0235625897413858,0.0,0,False
2022-01-04,1.0235625897413858,1.0235625897413858,0.0,0,False
2022-01-05,1.0235625897413858,1.0235625897413858,0.0,0,False
2022-01-06,1.0235625897413858,1.0184583484032637,-0.49867408102632904,1,True
2022-01-07,1.0184583484032637,1.0184583484032637,0.0,0,False
2022-01-08,1.0184583484032637,1.0184583484032637,0.0,0,False
2022-01-09,1.0184583484032637,1.0184583484032637,0.0,0,False
2022-01-10,1.0184583484032637,1.0184583484032637,0.0,0,False
2022-01-11,1.0184583484032637,1.0184583484032637,0.0,0,False
2022-01-12,1.0184583484032637,1.0184583484032637,0.0,0,False
2022-01-13,1.0184583484032637,1.0184583484032637,0.0,0,False
2022-01-14,1.0184583484032637,1.0184583484032637,0.0,0,False
2022-01-15,1.0184583484032637,1.0184583484032637,0.0,0,False
2022-01-16,1.0184583484032637,1.0184583484032637,0.0,0,False
2022-01-17,1.0184583484032637,1.0184583484032637,0.0,0,False
2022-01-18,1.0184583484032637,1.0184583484032637,0.0,0,False
2022-01-19,1.0184583484032637,1.0184583484032637,0.0,0,False
2022-01-20,1.0184583484032637,1.0184583484032637,0.0,0,False
2022-01-21,1.0184583484032637,1.0184583484032637,0.0,0,False
2022-01-22,1.0184583484032637,1.0386519196297304,1.982758672274243,3,True
2022-01-23,1.0386519196297304,1.037171450829536,-0.142537530833442,0,True
2022-01-24,1.037171450829536,1.037171450829536,0.0,0,False
2022-01-25,1.037171450829536,1.037171450829536,0.0,0,False
2022-01-26,1.037171450829536,1.037171450829536,0.0,0,False
2022-01-27,1.037171450829536,1.037171450829536,0.0,0,False
2022-01-28,1.037171450829536,1.037171450829536,0.0,0,False
2022-01-29,1.037171450829536,1.037171450829536,0.0,0,False
2022-01-30,1.037171450829536,1.037171450829536,0.0,0,False
2022-01-31,1.037171450829536,1.03855010640244,0.13292455859650332,1,True
2022-02-01,1.03855010640244,1.03855010640244,0.0,0,False
2022-02-02,1.03855010640244,1.03855010640244,0.0,0,False
2022-02-03,1.03855010640244,1.03855010640244,0.0,0,False
2022-02-04,1.03855010640244,1.03855010640244,0.0,0,False
2022-02-05,1.03855010640244,1.03855010640244,0.0,0,False
2022-02-06,1.03855010640244,1.03855010640244,0.0,0,False
2022-02-07,1.03855010640244,1.03855010640244,0.0,0,False
2022-02-08,1.03855010640244,1.03855010640244,0.0,0,False
2022-02-09,1.03855010640244,1.03855010640244,0.0,0,False
2022-02-10,1.03855010640244,1.0397008294825345,0.11080092072597303,2,True
2022-02-11,1.0397008294825345,1.0393441319807073,-0.034307705804637045,0,True
2022-02-12,1.0393441319807073,1.0393441319807073,0.0,0,False
2022-02-13,1.0393441319807073,1.0393441319807073,0.0,0,False
2022-02-14,1.0393441319807073,1.0393441319807073,0.0,0,False
2022-02-15,1.0393441319807073,1.0393441319807073,0.0,0,False
2022-02-16,1.0393441319807073,1.0393441319807073,0.0,0,False
2022-02-17,1.0393441319807073,1.0393441319807073,0.0,0,False
2022-02-18,1.0393441319807073,1.0393441319807073,0.0,0,False
2022-02-19,1.0393441319807073,1.0393441319807073,0.0,0,False
2022-02-20,1.0393441319807073,1.0393441319807073,0.0,0,False
2022-02-21,1.0393441319807073,1.0393441319807073,0.0,0,False
2022-02-22,1.0393441319807073,1.0393441319807073,0.0,0,False
2022-02-23,1.0393441319807073,1.0393441319807073,0.0,0,False
2022-02-24,1.0393441319807073,1.0393441319807073,0.0,0,False
2022-02-25,1.0393441319807073,1.0393441319807073,0.0,0,False
2022-02-26,1.0393441319807073,1.0393441319807073,0.0,0,False
2022-02-27,1.0393441319807073,1.0393441319807073,0.0,0,False
2022-02-28,1.0393441319807073,1.0393441319807073,0.0,0,False
2022-03-01,1.0393441319807073,1.0393441319807073,0.0,0,False
2022-03-02,1.0393441319807073,1.0393441319807073,0.0,0,False
2022-03-03,1.0393441319807073,1.0393441319807073,0.0,0,False
2022-03-04,1.0393441319807073,1.0393441319807073,0.0,0,False
2022-03-05,1.0393441319807073,1.0393441319807073,0.0,0,False
2022-03-06,1.0393441319807073,1.0393441319807073,0.0,0,False
2022-03-07,1.0393441319807073,1.0393441319807073,0.0,0,False
2022-03-08,1.0393441319807073,1.0393441319807073,0.0,0,False
2022-03-09,1.0393441319807073,1.0393441319807073,0.0,0,False
2022-03-10,1.0393441319807073,1.0393441319807073,0.0,0,False
2022-03-11,1.0393441319807073,1.0393441319807073,0.0,0,False
2022-03-12,1.0393441319807073,1.0393441319807073,0.0,0,False
2022-03-13,1.0393441319807073,1.0393441319807073,0.0,0,False
2022-03-14,1.0393441319807073,1.0393441319807073,0.0,0,False
2022-03-15,1.0393441319807073,1.0393441319807073,0.0,0,False
2022-03-16,1.0393441319807073,1.0393441319807073,0.0,0,False
2022-03-17,1.0393441319807073,1.0393441319807073,0.0,0,False
2022-03-18,1.0393441319807073,1.0393441319807073,0.0,0,False
2022-03-19,1.0393441319807073,1.0393441319807073,0.0,0,False
2022-03-20,1.0393441319807073,1.0393441319807073,0.0,0,False
2022-03-21,1.0393441319807073,1.0393441319807073,0.0,0,False
2022-03-22,1.0393441319807073,1.0393441319807073,0.0,0,False
2022-03-23,1.0393441319807073,1.0393441319807073,0.0,0,False
2022-03-24,1.0393441319807073,1.0393441319807073,0.0,0,False
2022-03-25,1.0393441319807073,1.0393441319807073,0.0,0,False
2022-03-26,1.0393441319807073,1.0418977790985087,0.2456979396164849,1,True
2022-03-27,1.0418977790985087,1.0418977790985087,0.0,0,False
2022-03-28,1.0418977790985087,1.0395230750611335,-0.2279210192222325,1,True
2022-03-29,1.0395230750611335,1.0395230750611335,0.0,0,False
2022-03-30,1.0395230750611335,1.036909861431065,-0.2513858222834342,1,True
2022-03-31,1.036909861431065,1.036909861431065,0.0,0,False
2022-04-01,1.036909861431065,1.0366920775518103,-0.02100316405074798,1,True
2022-04-02,1.0366920775518103,1.0366920775518103,0.0,0,False
2022-04-03,1.0366920775518103,1.0360721994600857,-0.05979384864099879,1,True
2022-04-04,1.0360721994600857,1.0309004298881115,-0.49917076963065243,1,True
2022-04-05,1.0309004298881115,1.0309004298881115,0.0,0,False
2022-04-06,1.0309004298881115,1.0347986022112363,0.3781327672496948,1,True
2022-04-07,1.0347986022112363,1.029634509957023,-0.4990432189585836,1,True
2022-04-08,1.029634509957023,1.029634509957023,0.0,0,False
2022-04-09,1.029634509957023,1.029634509957023,0.0,0,False
2022-04-10,1.029634509957023,1.029634509957023,0.0,0,False
2022-04-11,1.029634509957023,1.029634509957023,0.0,0,False
2022-04-12,1.029634509957023,1.029634509957023,0.0,0,False
2022-04-13,1.029634509957023,1.029634509957023,0.0,0,False
2022-04-14,1.029634509957023,1.029634509957023,0.0,0,False
2022-04-15,1.029634509957023,1.029634509957023,0.0,0,False
2022-04-16,1.029634509957023,1.029634509957023,0.0,0,False
2022-04-17,1.029634509957023,1.029634509957023,0.0,0,False
2022-04-18,1.029634509957023,1.0336728861121935,0.3922145301189506,1,True
2022-04-19,1.0336728861121935,1.0310619726583525,-0.2525860442814776,0,True
2022-04-20,1.0310619726583525,1.0310619726583525,0.0,0,False
2022-04-21,1.0310619726583525,1.0310619726583525,0.0,0,False
2022-04-22,1.0310619726583525,1.0310619726583525,0.0,0,False
2022-04-23,1.0310619726583525,1.0310619726583525,0.0,0,False
2022-04-24,1.0310619726583525,1.0310619726583525,0.0,0,False
2022-04-25,1.0310619726583525,1.0310619726583525,0.0,0,False
2022-04-26,1.0310619726583525,1.0310619726583525,0.0,0,False
2022-04-27,1.0310619726583525,1.0259147061866736,-0.49921989251605625,1,True
2022-04-28,1.0259147061866736,1.0259147061866736,0.0,0,False
2022-04-29,1.0259147061866736,1.0207910068414858,-0.49942741967629045,1,True
2022-04-30,1.0207910068414858,1.0207910068414858,0.0,0,False
2022-05-01,1.0207910068414858,1.0355207237438804,1.4429708729479351,5,True
2022-05-02,1.0355207237438804,1.0355207237438804,0.0,0,False
2022-05-03,1.0355207237438804,1.0355207237438804,0.0,0,False
2022-05-04,1.0355207237438804,1.0303497476957406,-0.49935997702145185,1,True
2022-05-05,1.0303497476957406,1.0303497476957406,0.0,0,False
2022-05-06,1.0303497476957406,1.0204872694748532,-0.9571971306775895,2,True
2022-05-07,1.0204872694748532,1.0204872694748532,0.0,0,False
2022-05-08,1.0204872694748532,1.0204872694748532,0.0,0,False
2022-05-09,1.0204872694748532,1.0204872694748532,0.0,0,False
2022-05-10,1.0204872694748532,1.0098168511251744,-1.0456199375392439,7,True
2022-05-11,1.0098168511251744,1.0053381764642564,-0.4435135595061368,9,True
2022-05-12,1.0053381764642564,1.014243904762662,0.8858440380456578,8,True
2022-05-13,1.014243904762662,1.0146122224293845,0.03631450630297017,0,True
2022-05-14,1.0146122224293845,1.0122251206314716,-0.23527232820015342,2,True
2022-05-15,1.0122251206314716,1.0071734623950128,-0.4990646975158386,1,True
2022-05-16,1.0071734623950128,1.0021477101379186,-0.49899569882860817,1,True
2022-05-17,1.0021477101379186,1.0021477101379186,0.0,0,False
2022-05-18,1.0021477101379186,1.0021477101379186,0.0,0,False
2022-05-19,1.0021477101379186,0.997145380307442,-0.4991609300577182,1,True
2022-05-20,0.997145380307442,0.9921709680218996,-0.49886529926144174,1,True
2022-05-21,0.9921709680218996,0.9921709680218996,0.0,0,False
2022-05-22,0.9921709680218996,0.9921709680218996,0.0,0,False
2022-05-23,0.9921709680218996,0.9872189109239865,-0.4991132836496992,1,True
2022-05-24,0.9872189109239865,0.9843710741819983,-0.2884706431851791,2,True
2022-05-25,0.9843710741819983,0.9787026021372875,-0.5758470756996981,1,True
2022-05-26,0.9787026021372875,0.9783418860804888,-0.03685655438240287,1,True
2022-05-27,0.9783418860804888,0.973455894081205,-0.49941559988383455,1,True
2022-05-28,0.973455894081205,0.973455894081205,0.0,0,False
2022-05-29,0.973455894081205,0.973455894081205,0.0,0,False
2022-05-30,0.973455894081205,0.973455894081205,0.0,0,False
2022-05-31,0.973455894081205,0.9715937620996928,-0.1912908425368176,3,True
2022-06-01,0.9715937620996928,0.9715937620996928,0.0,0,False
2022-06-02,0.9715937620996928,0.9667429199794187,-0.4992664948559433,1,True
2022-06-03,0.9667429199794187,0.9667429199794187,0.0,0,False
2022-06-04,0.9667429199794187,0.9667429199794187,0.0,0,False
2022-06-05,0.9667429199794187,0.9667429199794187,0.0,0,False
2022-06-06,0.9667429199794187,0.9667429199794187,0.0,0,False
2022-06-07,0.9667429199794187,0.967793587611645,0.10868118198876786,1,True
2022-06-08,0.967793587611645,0.9649827568310039,-0.2904370122535971,1,True
2022-06-09,0.9649827568310039,0.9649827568310039,0.0,0,False
2022-06-10,0.9649827568310039,0.9663056030808634,0.1370849624509063,2,True
2022-06-11,0.9663056030808634,0.9617916650891442,-0.46713358355032764,1,True
2022-06-12,0.9617916650891442,0.9646401160454547,0.2961609109023211,4,True
2022-06-13,0.9646401160454547,0.9583615215999189,-0.6508742836940029,3,True
2022-06-14,0.9583615215999189,0.9613496414281117,0.31179463708062016,1,True
2022-06-15,0.9613496414281117,0.9613496414281117,0.0,0,False
2022-06-16,0.9613496414281117,0.9937609189860622,3.3714349245299147,4,True
2022-06-17,0.9937609189860622,0.9912892982377257,-0.2487138205090944,1,True
2022-06-18,0.9912892982377257,0.9715747526183708,-1.9887782158450218,4,True
2022-06-19,0.9715747526183708,0.9715747526183708,0.0,0,False
2022-06-20,0.9715747526183708,0.9715747526183708,0.0,0,False
2022-06-21,0.9715747526183708,0.9715747526183708,0.0,0,False
2022-06-22,0.9715747526183708,0.9715747526183708,0.0,0,False
2022-06-23,0.9715747526183708,0.9715747526183708,0.0,0,False
2022-06-24,0.9715747526183708,0.9715747526183708,0.0,0,False
2022-06-25,0.9715747526183708,0.9715747526183708,0.0,0,False
2022-06-26,0.9715747526183708,0.9715747526183708,0.0,0,False
2022-06-27,0.9715747526183708,0.9715747526183708,0.0,0,False
2022-06-28,0.9715747526183708,0.9736653477483931,0.21517594239539584,1,True
2022-06-29,0.9736653477483931,0.9684871537332158,-0.5318248232980549,0,True
2022-06-30,0.9684871537332158,0.9684871537332158,0.0,0,False
2022-07-01,0.9684871537332158,0.9684871537332158,0.0,0,False
2022-07-02,0.9684871537332158,0.9684871537332158,0.0,0,False
2022-07-03,0.9684871537332158,0.9653615201564378,-0.3227336123901692,1,True
2022-07-04,0.9653615201564378,0.9653615201564378,0.0,0,False
2022-07-05,0.9653615201564378,0.9653615201564378,0.0,0,False
2022-07-06,0.9653615201564378,0.9653615201564378,0.0,0,False
2022-07-07,0.9653615201564378,0.9653615201564378,0.0,0,False
2022-07-08,0.9653615201564378,0.9653615201564378,0.0,0,False
2022-07-09,0.9653615201564378,0.9653615201564378,0.0,0,False
2022-07-10,0.9653615201564378,0.9653615201564378,0.0,0,False
2022-07-11,0.9653615201564378,0.9653615201564378,0.0,0,False
2022-07-12,0.9653615201564378,0.9653615201564378,0.0,0,False
2022-07-13,0.9653615201564378,0.9804583422377942,1.5638516520639634,4,True
2022-07-14,0.9804583422377942,1.0038487482223082,2.385660356678465,0,True
2022-07-15,1.0038487482223082,1.0038487482223082,0.0,0,False
2022-07-16,1.0038487482223082,1.0038487482223082,0.0,0,False
2022-07-17,1.0038487482223082,1.0038487482223082,0.0,0,False
2022-07-18,1.0038487482223082,1.0038487482223082,0.0,0,False
2022-07-19,1.0038487482223082,1.000179963493814,-0.36547186366383544,2,True
2022-07-20,1.000179963493814,1.000179963493814,0.0,0,False
2022-07-21,1.000179963493814,1.0020201180553043,0.18398234604324326,3,True
2022-07-22,1.0020201180553043,1.0020201180553043,0.0,0,False
2022-07-23,1.0020201180553043,1.0020201180553043,0.0,0,False
2022-07-24,1.0020201180553043,1.0103038729576592,0.8267054476343016,1,True
2022-07-25,1.0103038729576592,1.0101412058445538,-0.016100810603569826,1,True
2022-07-26,1.0101412058445538,1.0101412058445538,0.0,0,False
2022-07-27,1.0101412058445538,1.0101412058445538,0.0,0,False
2022-07-28,1.0101412058445538,1.0101412058445538,0.0,0,False
2022-07-29,1.0101412058445538,1.0050961064703756,-0.49944496323760523,1,True
2022-07-30,1.0050961064703756,1.0050961064703756,0.0,0,False
2022-07-31,1.0050961064703756,1.0012823112371605,-0.37944582698744567,1,True
2022-08-01,1.0012823112371605,1.0012823112371605,0.0,0,False
2022-08-02,1.0012823112371605,1.0012823112371605,0.0,0,False
2022-08-03,1.0012823112371605,0.9989814630595041,-0.22979015526735092,1,True
2022-08-04,0.9989814630595041,0.9989814630595041,0.0,0,False
2022-08-05,0.9989814630595041,0.9989814630595041,0.0,0,False
2022-08-06,0.9989814630595041,0.9989814630595041,0.0,0,False
2022-08-07,0.9989814630595041,0.9989814630595041,0.0,0,False
2022-08-08,0.9989814630595041,0.9989814630595041,0.0,0,False
2022-08-09,0.9989814630595041,1.0029448527865046,0.3967430701729002,1,True
2022-08-10,1.0029448527865046,1.0029448527865046,0.0,0,False
2022-08-11,1.0029448527865046,1.0029448527865046,0.0,0,False
2022-08-12,1.0029448527865046,1.0001429369054395,-0.2793688878586331,1,True
2022-08-13,1.0001429369054395,1.0001429369054395,0.0,0,False
2022-08-14,1.0001429369054395,1.0001429369054395,0.0,0,False
2022-08-15,1.0001429369054395,1.0001429369054395,0.0,0,False
2022-08-16,1.0001429369054395,0.998157704390519,-0.1984948792482677,1,True
2022-08-17,0.998157704390519,0.998157704390519,0.0,0,False
2022-08-18,0.998157704390519,0.998157704390519,0.0,0,False
2022-08-19,0.998157704390519,0.9781752560798589,-2.001932983411825,8,True
2022-08-20,0.9781752560798589,0.9803827369716872,0.2256733523065213,0,True
2022-08-21,0.9803827369716872,0.9803827369716872,0.0,0,False
2022-08-22,0.9803827369716872,0.9803827369716872,0.0,0,False
2022-08-23,0.9803827369716872,0.9803827369716872,0.0,0,False
2022-08-24,0.9803827369716872,0.9803827369716872,0.0,0,False
2022-08-25,0.9803827369716872,0.9803827369716872,0.0,0,False
2022-08-26,0.9803827369716872,0.9803827369716872,0.0,0,False
2022-08-27,0.9803827369716872,0.9754880562860931,-0.49926222698629674,1,True
2022-08-28,0.9754880562860931,0.976393524787297,0.09282210021630544,1,True
2022-08-29,0.976393524787297,0.9766470917787339,0.025969753485632907,0,True
2022-08-30,0.9766470917787339,0.9766470917787339,0.0,0,False
2022-08-31,0.9766470917787339,0.9766470917787339,0.0,0,False
2022-09-01,0.9766470917787339,0.9766470917787339,0.0,0,False
2022-09-02,0.9766470917787339,0.9766470917787339,0.0,0,False
2022-09-03,0.9766470917787339,0.9766470917787339,0.0,0,False
2022-09-04,0.9766470917787339,0.9766470917787339,0.0,0,False
2022-09-05,0.9766470917787339,0.9766470917787339,0.0,0,False
2022-09-06,0.9766470917787339,0.9766470917787339,0.0,0,False
2022-09-07,0.9766470917787339,0.9620170874131093,-1.4979826888113168,4,True
2022-09-08,0.9620170874131093,0.9620170874131093,0.0,0,False
2022-09-09,0.9620170874131093,0.9620170874131093,0.0,0,False
2022-09-10,0.9620170874131093,0.9620170874131093,0.0,0,False
2022-09-11,0.9620170874131093,0.9620170874131093,0.0,0,False
2022-09-12,0.9620170874131093,0.9620170874131093,0.0,0,False
2022-09-13,0.9620170874131093,0.9522026829667456,-1.0201902413973674,4,True
2022-09-14,0.9522026829667456,0.9432271080422391,-0.9426118078707413,1,True
2022-09-15,0.9432271080422391,0.9414590004716705,-0.18745300633252748,1,True
2022-09-16,0.9414590004716705,0.9414590004716705,0.0,0,False
2022-09-17,0.9414590004716705,0.9414590004716705,0.0,0,False
2022-09-18,0.9414590004716705,0.9414590004716705,0.0,0,False
2022-09-19,0.9414590004716705,0.9432597779074396,0.19127518403529997,5,True
2022-09-20,0.9432597779074396,0.9432597779074396,0.0,0,False
2022-09-21,0.9432597779074396,0.9432597779074396,0.0,0,False
2022-09-22,0.9432597779074396,0.9432597779074396,0.0,0,False
2022-09-23,0.9432597779074396,0.9432597779074396,0.0,0,False
2022-09-24,0.9432597779074396,0.9432597779074396,0.0,0,False
2022-09-25,0.9432597779074396,0.9432597779074396,0.0,0,False
2022-09-26,0.9432597779074396,0.9432597779074396,0.0,0,False
2022-09-27,0.9432597779074396,0.9432597779074396,0.0,0,False
2022-09-28,0.9432597779074396,0.9432597779074396,0.0,0,False
2022-09-29,0.9432597779074396,0.9432597779074396,0.0,0,False
2022-09-30,0.9432597779074396,0.9432597779074396,0.0,0,False
2022-10-01,0.9432597779074396,0.9432597779074396,0.0,0,False
2022-10-02,0.9432597779074396,0.9432597779074396,0.0,0,False
2022-10-03,0.9432597779074396,0.9432597779074396,0.0,0,False
2022-10-04,0.9432597779074396,0.9432597779074396,0.0,0,False
2022-10-05,0.9432597779074396,0.9432597779074396,0.0,0,False
2022-10-06,0.9432597779074396,0.9432597779074396,0.0,0,False
2022-10-07,0.9432597779074396,0.9432597779074396,0.0,0,False
2022-10-08,0.9432597779074396,0.9432597779074396,0.0,0,False
2022-10-09,0.9432597779074396,0.9432597779074396,0.0,0,False
2022-10-10,0.9432597779074396,0.9385498965231491,-0.49931964604057466,1,True
2022-10-11,0.9385498965231491,0.9619642967565399,2.4947421890012755,4,True
2022-10-12,0.9619642967565399,0.9619642967565399,0.0,0,False
2022-10-13,0.9619642967565399,0.9619642967565399,0.0,0,False
2022-10-14,0.9619642967565399,0.9619642967565399,0.0,0,False
2022-10-15,0.9619642967565399,0.9619642967565399,0.0,0,False
2022-10-16,0.9619642967565399,0.9619642967565399,0.0,0,False
2022-10-17,0.9619642967565399,0.9619642967565399,0.0,0,False
2022-10-18,0.9619642967565399,0.9619642967565399,0.0,0,False
2022-10-19,0.9619642967565399,0.9619642967565399,0.0,0,False
2022-10-20,0.9619642967565399,0.9672926547676518,0.5539039264843337,1,True
2022-10-21,0.9672926547676518,0.9672926547676518,0.0,0,False
2022-10-22,0.9672926547676518,0.9672926547676518,0.0,0,False
2022-10-23,0.9672926547676518,0.9672926547676518,0.0,0,False
2022-10-24,0.9672926547676518,0.9672926547676518,0.0,0,False
2022-10-25,0.9672926547676518,0.9672926547676518,0.0,0,False
2022-10-26,0.9672926547676518,0.9672926547676518,0.0,0,False
2022-10-27,0.9672926547676518,0.9672926547676518,0.0,0,False
2022-10-28,0.9672926547676518,0.9672926547676518,0.0,0,False
2022-10-29,0.9672926547676518,0.9672926547676518,0.0,0,False
2022-10-30,0.9672926547676518,0.9672926547676518,0.0,0,False
2022-10-31,0.9672926547676518,0.9672926547676518,0.0,0,False
2022-11-01,0.9672926547676518,0.9672926547676518,0.0,0,False
2022-11-02,0.9672926547676518,0.9766147385281891,0.9637294064614332,1,True
2022-11-03,0.9766147385281891,0.9846900614294722,0.826868834014638,3,True
2022-11-04,0.9846900614294722,0.9704189245958025,-1.4493024143000244,5,True
2022-11-05,0.9704189245958025,0.9713384923885056,0.09475987837790356,1,True
2022-11-06,0.9713384923885056,0.9713384923885056,0.0,0,False
2022-11-07,0.9713384923885056,0.9697333227551614,-0.16525337417618857,2,True
2022-11-08,0.9697333227551614,0.9629442795169224,-0.7000938380616106,5,True
2022-11-09,0.9629442795169224,0.916329359777918,-4.840874049575294,14,True
2022-11-10,0.916329359777918,0.9445738530140317,3.0823516604290724,5,True
2022-11-11,0.9445738530140317,0.9563783018434425,1.2497115807031944,5,True
2022-11-12,0.9563783018434425,0.9394767530607809,-1.767245111069904,2,True
2022-11-13,0.9394767530607809,0.9383971894374564,-0.11491115877080293,1,True
2022-11-14,0.9383971894374564,0.9367613642159801,-0.17432119787751388,2,True
2022-11-15,0.9367613642159801,0.9367613642159801,0.0,0,False
2022-11-16,0.9367613642159801,0.9367613642159801,0.0,0,False
2022-11-17,0.9367613642159801,0.9367613642159801,0.0,0,False
2022-11-18,0.9367613642159801,0.9367613642159801,0.0,0,False
2022-11-19,0.9367613642159801,0.9391145154842481,0.25120071751010276,2,True
2022-11-20,0.9391145154842481,0.936876692650373,-0.23829072993523104,1,True
2022-11-21,0.936876692650373,0.931923950980047,-0.5286439196512616,1,True
2022-11-22,0.931923950980047,0.931923950980047,0.0,0,False
2022-11-23,0.931923950980047,0.931923950980047,0.0,0,False
2022-11-24,0.931923950980047,0.931923950980047,0.0,0,False
2022-11-25,0.931923950980047,0.9285734812043465,-0.35952180134194434,1,True
2022-11-26,0.9285734812043465,0.9285734812043465,0.0,0,False
2022-11-27,0.9285734812043465,0.9285734812043465,0.0,0,False
2022-11-28,0.9285734812043465,0.922684493621281,-0.6341972608810087,2,True
2022-11-29,0.922684493621281,0.922684493621281,0.0,0,False
2022-11-30,0.922684493621281,0.922684493621281,0.0,0,False
2022-12-01,0.922684493621281,0.9223930546197565,-0.031585986709359304,1,True
2022-12-02,0.9223930546197565,0.9215170757652817,-0.09496806703904737,1,True
2022-12-03,0.9215170757652817,0.9215170757652817,0.0,0,False
2022-12-04,0.9215170757652817,0.9156108907798048,-0.6409197551300982,3,True
2022-12-05,0.9156108907798048,0.9175215348262532,0.20867423767985116,1,True
2022-12-06,0.9175215348262532,0.9165957135628656,-0.1009045813363807,0,True
2022-12-07,0.9165957135628656,0.9165957135628656,0.0,0,False
2022-12-08,0.9165957135628656,0.9120244787915496,-0.4987187593914588,1,True
2022-12-09,0.9120244787915496,0.9120244787915496,0.0,0,False
2022-12-10,0.9120244787915496,0.9120244787915496,0.0,0,False
2022-12-11,0.9120244787915496,0.9120244787915496,0.0,0,False
2022-12-12,0.9120244787915496,0.9120244787915496,0.0,0,False
2022-12-13,0.9120244787915496,0.9120244787915496,0.0,0,False
2022-12-14,0.9120244787915496,0.9120244787915496,0.0,0,False
2022-12-15,0.9120244787915496,0.9120244787915496,0.0,0,False
2022-12-16,0.9120244787915496,0.9120244787915496,0.0,0,False
2022-12-17,0.9120244787915496,0.9161271639044319,0.4498437496237573,4,True
2022-12-18,0.9161271639044319,0.9161271639044319,0.0,0,False
2022-12-19,0.9161271639044319,0.9161271639044319,0.0,0,False
2022-12-20,0.9161271639044319,0.9161271639044319,0.0,0,False
2022-12-21,0.9161271639044319,0.9161271639044319,0.0,0,False
2022-12-22,0.9161271639044319,0.9161271639044319,0.0,0,False
2022-12-23,0.9161271639044319,0.9161271639044319,0.0,0,False
2022-12-24,0.9161271639044319,0.9161271639044319,0.0,0,False
2022-12-25,0.9161271639044319,0.9161271639044319,0.0,0,False
2022-12-26,0.9161271639044319,0.9161271639044319,0.0,0,False
2022-12-27,0.9161271639044319,0.9161271639044319,0.0,0,False
2022-12-28,0.9161271639044319,0.9191355078665201,0.32837624301707,1,True
2022-12-29,0.9191355078665201,0.9178519497582044,-0.13964840845884785,0,True
2022-12-30,0.9178519497582044,0.9178519497582044,0.0,0,False
2022-12-31,0.9178519497582044,0.9178519497582044,0.0,0,False
2023-01-01,0.9178519497582044,0.9178519497582044,0.0,0,False
2023-01-02,0.9178519497582044,0.9181521323766423,0.03270490611442245,1,True
2023-01-03,0.9181521323766423,0.9182680787284586,0.012628228779054673,0,True
2023-01-04,0.9182680787284586,0.9182680787284586,0.0,0,False
2023-01-05,0.9182680787284586,0.9182680787284586,0.0,0,False
2023-01-06,0.9182680787284586,0.9182680787284586,0.0,0,False
2023-01-07,0.9182680787284586,0.9182680787284586,0.0,0,False
2023-01-08,0.9182680787284586,0.9182680787284586,0.0,0,False
2023-01-09,0.9182680787284586,0.9182680787284586,0.0,0,False
2023-01-10,0.9182680787284586,0.9165265773569672,-0.18965064906785178,2,True
2023-01-11,0.9165265773569672,0.9172729983669622,0.08144019261804303,0,True
2023-01-12,0.9172729983669622,0.9172729983669622,0.0,0,False
2023-01-13,0.9172729983669622,0.9172729983669622,0.0,0,False
2023-01-14,0.9172729983669622,0.9119048478141957,-0.5852293223853278,3,True
2023-01-15,0.9119048478141957,0.9124451141924054,0.0592459157887637,1,True
2023-01-16,0.9124451141924054,0.9124451141924054,0.0,0,False
2023-01-17,0.9124451141924054,0.9124451141924054,0.0,0,False
2023-01-18,0.9124451141924054,0.9124451141924054,0.0,0,False
2023-01-19,0.9124451141924054,0.9078905264940883,-0.4991629225115979,1,True
2023-01-20,0.9078905264940883,0.9078905264940883,0.0,0,False
2023-01-21,0.9078905264940883,0.9093762275761279,0.16364319691459794,1,True
2023-01-22,0.9093762275761279,0.9075105733138344,-0.20515758007730867,0,True
2023-01-23,0.9075105733138344,0.9075105733138344,0.0,0,False
2023-01-24,0.9075105733138344,0.9109124993896208,0.37486351959119535,1,True
2023-01-25,0.9109124993896208,0.9098343896367757,-0.11835491922304042,5,True
2023-01-26,0.9098343896367757,0.9123435148755282,0.2757782369332329,1,True
2023-01-27,0.9123435148755282,0.9123435148755282,0.0,0,False
2023-01-28,0.9123435148755282,0.9123435148755282,0.0,0,False
2023-01-29,0.9123435148755282,0.9123435148755282,0.0,0,False
2023-01-30,0.9123435148755282,0.9121217489747215,-0.024307280886071148,2,True
2023-01-31,0.9121217489747215,0.9115094678137822,-0.06712713095895495,2,True
2023-02-01,0.9115094678137822,0.9115094678137822,0.0,0,False
2023-02-02,0.9115094678137822,0.9115094678137822,0.0,0,False
2023-02-03,0.9115094678137822,0.9115094678137822,0.0,0,False
2023-02-04,0.9115094678137822,0.9115094678137822,0.0,0,False
2023-02-05,0.9115094678137822,0.9144082163927466,0.31801628851062524,5,True
2023-02-06,0.9144082163927466,0.9212841874523092,0.7519585822060693,1,True
2023-02-07,0.9212841874523092,0.9212841874523092,0.0,0,False
2023-02-08,0.9212841874523092,0.9212841874523092,0.0,0,False
2023-02-09,0.9212841874523092,0.9212841874523092,0.0,0,False
2023-02-10,0.9212841874523092,0.9235596004868982,0.24698275142238657,1,True
2023-02-11,0.9235596004868982,0.9209700542892044,-0.28038755661558,0,True
2023-02-12,0.9209700542892044,0.9163707832302902,-0.49939420261214673,1,True
2023-02-13,0.9163707832302902,0.9163707832302902,0.0,0,False
2023-02-14,0.9163707832302902,0.9163707832302902,0.0,0,False
2023-02-15,0.9163707832302902,0.9163707832302902,0.0,0,False
2023-02-16,0.9163707832302902,0.9163707832302902,0.0,0,False
2023-02-17,0.9163707832302902,0.9163707832302902,0.0,0,False
2023-02-18,0.9163707832302902,0.9163707832302902,0.0,0,False
2023-02-19,0.9163707832302902,0.9163707832302902,0.0,0,False
2023-02-20,0.9163707832302902,0.9163707832302902,0.0,0,False
2023-02-21,0.9163707832302902,0.9045446054375993,-1.2905450510984795,3,True
2023-02-22,0.9045446054375993,0.9012493105082877,-0.3643043040113425,2,True
2023-02-23,0.9012493105082877,0.9151405186774189,1.541328021798627,1,True
2023-02-24,0.9151405186774189,0.9151405186774189,0.0,0,False
2023-02-25,0.9151405186774189,0.9151405186774189,0.0,0,False
2023-02-26,0.9151405186774189,0.9166627825366817,0.16634208935069061,1,True
2023-02-27,0.9166627825366817,0.9120864086283875,-0.4992429054040959,1,True
2023-02-28,0.9120864086283875,0.9120864086283875,0.0,0,False
2023-03-01,0.9120864086283875,0.9120864086283875,0.0,0,False
2023-03-02,0.9120864086283875,0.9120864086283875,0.0,0,False
2023-03-03,0.9120864086283875,0.9091283416993431,-0.3243187159748251,6,True
2023-03-04,0.9091283416993431,0.9091283416993431,0.0,0,False
2023-03-05,0.9091283416993431,0.9091283416993431,0.0,0,False
2023-03-06,0.9091283416993431,0.9091283416993431,0.0,0,False
2023-03-07,0.9091283416993431,0.9091283416993431,0.0,0,False
2023-03-08,0.9091283416993431,0.9091283416993431,0.0,0,False
2023-03-09,0.9091283416993431,0.9091283416993431,0.0,0,False
2023-03-10,0.9091283416993431,0.9081022060929892,-0.11287026916747545,1,True
2023-03-11,0.9081022060929892,0.9211687713449745,1.4388870728772707,3,True
2023-03-12,0.9211687713449745,0.9229485633438951,0.19321019711968646,0,True
2023-03-13,0.9229485633438951,0.9229485633438951,0.0,0,False
2023-03-14,0.9229485633438951,0.9229485633438951,0.0,0,False
2023-03-15,0.9229485633438951,0.9229485633438951,0.0,0,False
2023-03-16,0.9229485633438951,0.9281022637544658,0.5583951928912034,5,True
2023-03-17,0.9281022637544658,0.9225308310293477,-0.6003037534441424,2,True
2023-03-18,0.9225308310293477,0.9225308310293477,0.0,0,False
2023-03-19,0.9225308310293477,0.9225308310293477,0.0,0,False
2023-03-20,0.9225308310293477,0.9225308310293477,0.0,0,False
2023-03-21,0.9225308310293477,0.9133447245756372,-0.9957506182704856,2,True
2023-03-22,0.9133447245756372,0.9133447245756372,0.0,0,False
2023-03-23,0.9133447245756372,0.9139356246175171,0.06469627797482946,3,True
2023-03-24,0.9139356246175171,0.9139356246175171,0.0,0,False
2023-03-25,0.9139356246175171,0.9095791701383569,-0.4766697305385592,1,True
2023-03-26,0.9095791701383569,0.9095791701383569,0.0,0,False
2023-03-27,0.9095791701383569,0.9095791701383569,0.0,0,False
2023-03-28,0.9095791701383569,0.9095791701383569,0.0,0,False
2023-03-29,0.9095791701383569,0.9095791701383569,0.0,0,False
2023-03-30,0.9095791701383569,0.9095791701383569,0.0,0,False
2023-03-31,0.9095791701383569,0.9095791701383569,0.0,0,False
2023-04-01,0.9095791701383569,0.9095791701383569,0.0,0,False
2023-04-02,0.9095791701383569,0.9095791701383569,0.0,0,False
2023-04-03,0.9095791701383569,0.9095791701383569,0.0,0,False
2023-04-04,0.9095791701383569,0.9050378206206565,-0.49928028991798046,1,True
2023-04-05,0.9050378206206565,0.9050378206206565,0.0,0,False
2023-04-06,0.9050378206206565,0.9005214958702302,-0.4990205544481152,1,True
2023-04-07,0.9005214958702302,0.8987472162372102,-0.19702801556173988,1,True
2023-04-08,0.8987472162372102,0.8987472162372102,0.0,0,False
2023-04-09,0.8987472162372102,0.8987472162372102,0.0,0,False
2023-04-10,0.8987472162372102,0.8987472162372102,0.0,0,False
2023-04-11,0.8987472162372102,0.8987472162372102,0.0,0,False
2023-04-12,0.8987472162372102,0.8987472162372102,0.0,0,False
2023-04-13,0.8987472162372102,0.8987472162372102,0.0,0,False
2023-04-14,0.8987472162372102,0.8987472162372102,0.0,0,False
2023-04-15,0.8987472162372102,0.8987472162372102,0.0,0,False
2023-04-16,0.8987472162372102,0.8987472162372102,0.0,0,False
2023-04-17,0.8987472162372102,0.8942603544266255,-0.4992351274666351,1,True
2023-04-18,0.8942603544266255,0.8942603544266255,0.0,0,False
2023-04-19,0.8942603544266255,0.8832751885482013,-1.2284080160824828,3,True
2023-04-20,0.8832751885482013,0.8832751885482013,0.0,0,False
2023-04-21,0.8832751885482013,0.8832751885482013,0.0,0,False
2023-04-22,0.8832751885482013,0.8832751885482013,0.0,0,False
2023-04-23,0.8832751885482013,0.8832751885482013,0.0,0,False
2023-04-24,0.8832751885482013,0.8832751885482013,0.0,0,False
2023-04-25,0.8832751885482013,0.8832751885482013,0.0,0,False
2023-04-26,0.8832751885482013,0.8832751885482013,0.0,0,False
2023-04-27,0.8832751885482013,0.8832751885482013,0.0,0,False
2023-04-28,0.8832751885482013,0.8832751885482013,0.0,0,False
2023-04-29,0.8832751885482013,0.8832751885482013,0.0,0,False
2023-04-30,0.8832751885482013,0.8832751885482013,0.0,0,False
2023-05-01,0.8832751885482013,0.8832751885482013,0.0,0,False
2023-05-02,0.8832751885482013,0.8832751885482013,0.0,0,False
2023-05-03,0.8832751885482013,0.8832751885482013,0.0,0,False
2023-05-04,0.8832751885482013,0.8832751885482013,0.0,0,False
2023-05-05,0.8832751885482013,0.8832751885482013,0.0,0,False
2023-05-06,0.8832751885482013,0.8832751885482013,0.0,0,False
2023-05-07,0.8832751885482013,0.8832751885482013,0.0,0,False
2023-05-08,0.8832751885482013,0.8719073280938081,-1.2870123152760593,5,True
2023-05-09,0.8719073280938081,0.8699345562047985,-0.22625935411306752,2,True
2023-05-10,0.8699345562047985,0.8712318026614534,0.14912000533859882,1,True
2023-05-11,0.8712318026614534,0.8712318026614534,0.0,0,False
2023-05-12,0.8712318026614534,0.8712318026614534,0.0,0,False
2023-05-13,0.8712318026614534,0.8712318026614534,0.0,0,False
2023-05-14,0.8712318026614534,0.8712318026614534,0.0,0,False
2023-05-15,0.8712318026614534,0.8712318026614534,0.0,0,False
2023-05-16,0.8712318026614534,0.8712318026614534,0.0,0,False
2023-05-17,0.8712318026614534,0.8712318026614534,0.0,0,False
2023-05-18,0.8712318026614534,0.8712318026614534,0.0,0,False
2023-05-19,0.8712318026614534,0.8712318026614534,0.0,0,False
2023-05-20,0.8712318026614534,0.8712318026614534,0.0,0,False
2023-05-21,0.8712318026614534,0.8712318026614534,0.0,0,False
2023-05-22,0.8712318026614534,0.8712318026614534,0.0,0,False
2023-05-23,0.8712318026614534,0.8712318026614534,0.0,0,False
2023-05-24,0.8712318026614534,0.8712318026614534,0.0,0,False
2023-05-25,0.8712318026614534,0.8712318026614534,0.0,0,False
2023-05-26,0.8712318026614534,0.8734260917803157,0.2518605395440243,1,True
2023-05-27,0.8734260917803157,0.8732127855897046,-0.024421779085659345,1,True
2023-05-28,0.8732127855897046,0.8732127855897046,0.0,0,False
2023-05-29,0.8732127855897046,0.8732127855897046,0.0,0,False
2023-05-30,0.8732127855897046,0.8832291121072472,1.1470659480527834,1,True
2023-05-31,0.8832291121072472,0.8912958547332747,0.9133239060453491,0,True
2023-06-01,0.8912958547332747,0.8912958547332747,0.0,0,False
2023-06-02,0.8912958547332747,0.90563981968737,1.6093382324085637,3,True
2023-06-03,0.90563981968737,0.900764373873972,-0.538342695121441,1,True
2023-06-04,0.900764373873972,0.900764373873972,0.0,0,False
2023-06-05,0.900764373873972,0.900764373873972,0.0,0,False
2023-06-06,0.900764373873972,0.882865528321423,-1.9870729873085913,4,True
2023-06-07,0.882865528321423,0.882865528321423,0.0,0,False
2023-06-08,0.882865528321423,0.8794784996923599,-0.3836403756190099,1,True
2023-06-09,0.8794784996923599,0.8794784996923599,0.0,0,False
2023-06-10,0.8794784996923599,0.9015946090289286,2.5146844799849966,5,True
2023-06-11,0.9015946090289286,0.9005564073456013,-0.11515171818136105,0,True
2023-06-12,0.9005564073456013,0.9005564073456013,0.0,0,False
2023-06-13,0.9005564073456013,0.8960590152178463,-0.49940149124152455,1,True
2023-06-14,0.8960590152178463,0.8960590152178463,0.0,0,False
2023-06-15,0.8960590152178463,0.8960590152178463,0.0,0,False
2023-06-16,0.8960590152178463,0.8960590152178463,0.0,0,False
2023-06-17,0.8960590152178463,0.8960590152178463,0.0,0,False
2023-06-18,0.8960590152178463,0.8960590152178463,0.0,0,False
2023-06-19,0.8960590152178463,0.9026125948452588,0.7313781253369012,1,True
2023-06-20,0.9026125948452588,0.9036664381859683,0.11675477904118381,0,True
2023-06-21,0.9036664381859683,0.9036664381859683,0.0,0,False
2023-06-22,0.9036664381859683,0.9351262121227988,3.481348051387556,2,True
2023-06-23,0.9351262121227988,0.9351262121227988,0.0,0,False
2023-06-24,0.9351262121227988,0.9351262121227988,0.0,0,False
2023-06-25,0.9351262121227988,0.9318733253640484,-0.34785537145473056,1,True
2023-06-26,0.9318733253640484,0.9318733253640484,0.0,0,False
2023-06-27,0.9318733253640484,0.9318733253640484,0.0,0,False
2023-06-28,0.9318733253640484,0.9318733253640484,0.0,0,False
2023-06-29,0.9318733253640484,0.9318733253640484,0.0,0,False
2023-06-30,0.9318733253640484,0.9133256750821332,-1.9903617559467457,4,True
2023-07-01,0.9133256750821332,0.9087669149567498,-0.49913850554715866,1,True
2023-07-02,0.9087669149567498,0.9087669149567498,0.0,0,False
2023-07-03,0.9087669149567498,0.9087669149567498,0.0,0,False
2023-07-04,0.9087669149567498,0.9087669149567498,0.0,0,False
2023-07-05,0.9087669149567498,0.9042281867679799,-0.49943809727996946,1,True
2023-07-06,0.9042281867679799,0.9042281867679799,0.0,0,False
2023-07-07,0.9042281867679799,0.9042281867679799,0.0,0,False
2023-07-08,0.9042281867679799,0.9042281867679799,0.0,0,False
2023-07-09,0.9042281867679799,0.9042281867679799,0.0,0,False
2023-07-10,0.9042281867679799,0.9042281867679799,0.0,0,False
2023-07-11,0.9042281867679799,0.9042281867679799,0.0,0,False
2023-07-12,0.9042281867679799,0.9042281867679799,0.0,0,False
2023-07-13,0.9042281867679799,0.9042281867679799,0.0,0,False
2023-07-14,0.9042281867679799,0.9042281867679799,0.0,0,False
2023-07-15,0.9042281867679799,0.9042281867679799,0.0,0,False
2023-07-16,0.9042281867679799,0.9042281867679799,0.0,0,False
2023-07-17,0.9042281867679799,0.9042281867679799,0.0,0,False
2023-07-18,0.9042281867679799,0.9042281867679799,0.0,0,False
2023-07-19,0.9042281867679799,0.9042281867679799,0.0,0,False
2023-07-20,0.9042281867679799,0.9042281867679799,0.0,0,False
2023-07-21,0.9042281867679799,0.9042281867679799,0.0,0,False
2023-07-22,0.9042281867679799,0.9042281867679799,0.0,0,False
2023-07-23,0.9042281867679799,0.9042281867679799,0.0,0,False
2023-07-24,0.9042281867679799,0.9001667341646175,-0.44916235335236143,2,True
2023-07-25,0.9001667341646175,0.8997612371396289,-0.0450468796055814,0,True
2023-07-26,0.8997612371396289,0.8997612371396289,0.0,0,False
2023-07-27,0.8997612371396289,0.8997612371396289,0.0,0,False
2023-07-28,0.8997612371396289,0.8997612371396289,0.0,0,False
2023-07-29,0.8997612371396289,0.8997612371396289,0.0,0,False
2023-07-30,0.8997612371396289,0.8997612371396289,0.0,0,False
2023-07-31,0.8997612371396289,0.8997612371396289,0.0,0,False
2023-08-01,0.8997612371396289,0.8997612371396289,0.0,0,False
2023-08-02,0.8997612371396289,0.8997612371396289,0.0,0,False
2023-08-03,0.8997612371396289,0.8997612371396289,0.0,0,False
2023-08-04,0.8997612371396289,0.8997612371396289,0.0,0,False
2023-08-05,0.8997612371396289,0.8997612371396289,0.0,0,False
2023-08-06,0.8997612371396289,0.8997612371396289,0.0,0,False
2023-08-07,0.8997612371396289,0.8997612371396289,0.0,0,False
2023-08-08,0.8997612371396289,0.8997612371396289,0.0,0,False
2023-08-09,0.8997612371396289,0.8997612371396289,0.0,0,False
2023-08-10,0.8997612371396289,0.8997612371396289,0.0,0,False
2023-08-11,0.8997612371396289,0.8997612371396289,0.0,0,False
2023-08-12,0.8997612371396289,0.8997612371396289,0.0,0,False
2023-08-13,0.8997612371396289,0.9038804220892896,0.45780866963727185,1,True
2023-08-14,0.9038804220892896,0.9041942684402877,0.03472210962072175,1,True
2023-08-15,0.9041942684402877,0.9045539370475324,0.03977780216026794,0,True
2023-08-16,0.9045539370475324,0.9139400833809332,1.0376546880153104,4,True
2023-08-17,0.9139400833809332,0.9158618877198161,0.2102768413191347,1,True
2023-08-18,0.9158618877198161,0.9722269308384971,6.1543169198808645,4,True
2023-08-19,0.9722269308384971,0.9765017259855764,0.4396910856390823,2,True
2023-08-20,0.9765017259855764,0.9754565306919384,-0.1070346591126703,0,True
2023-08-21,0.9754565306919384,0.9754565306919384,0.0,0,False
2023-08-22,0.9754565306919384,0.9754565306919384,0.0,0,False
2023-08-23,0.9754565306919384,0.9754565306919384,0.0,0,False
2023-08-24,0.9754565306919384,0.9754565306919384,0.0,0,False
2023-08-25,0.9754565306919384,0.9692192728472968,-0.6394193537478499,5,True
2023-08-26,0.9692192728472968,0.9711851919287956,0.20283532700742235,0,True
2023-08-27,0.9711851919287956,0.9711851919287956,0.0,0,False
2023-08-28,0.9711851919287956,0.9711851919287956,0.0,0,False
2023-08-29,0.9711851919287956,0.9728952329298601,0.17607774657975028,1,True
2023-08-30,0.9728952329298601,0.9728952329298601,0.0,0,False
2023-08-31,0.9728952329298601,0.9728952329298601,0.0,0,False
2023-09-01,0.9728952329298601,0.9728952329298601,0.0,0,False
2023-09-02,0.9728952329298601,1.0007122436175966,2.859198991443912,3,True
2023-09-03,1.0007122436175966,1.0004740197006659,-0.02380543642291899,0,True
2023-09-04,1.0004740197006659,0.9996283934960063,-0.08452255510967843,1,True
2023-09-05,0.9996283934960063,1.0053417673419742,0.5715497762109889,2,True
2023-09-06,1.0053417673419742,1.030251666533915,2.477754332021842,1,True
2023-09-07,1.030251666533915,1.030251666533915,0.0,0,False
2023-09-08,1.030251666533915,1.0267734561066646,-0.33760784284408984,3,True
2023-09-09,1.0267734561066646,1.0196208046949962,-0.6966143669889902,1,True
2023-09-10,1.0196208046949962,1.0169901437073614,-0.25800385550407423,3,True
2023-09-11,1.0169901437073614,1.0175280275147436,0.052889775845943454,1,True
2023-09-12,1.0175280275147436,1.0175280275147436,0.0,0,False
2023-09-13,1.0175280275147436,1.0151044285555917,-0.23818498297991653,1,True
2023-09-14,1.0151044285555917,1.0151044285555917,0.0,0,False
2023-09-15,1.0151044285555917,1.0151044285555917,0.0,0,False
2023-09-16,1.0151044285555917,1.0200684478174393,0.48901562462011494,1,True
2023-09-17,1.0200684478174393,1.0284215961678425,0.8188811611883118,1,True
2023-09-18,1.0284215961678425,1.016000475285273,-1.2077849131964746,3,True
2023-09-19,1.016000475285273,1.016000475285273,0.0,0,False
2023-09-20,1.016000475285273,1.0193984427278047,0.3344454579686795,1,True
2023-09-21,1.0193984427278047,1.0226691251654465,0.32084436276849093,0,True
2023-09-22,1.0226691251654465,1.0226691251654465,0.0,0,False
2023-09-23,1.0226691251654465,1.0226691251654465,0.0,0,False
2023-09-24,1.0226691251654465,1.0226691251654465,0.0,0,False
2023-09-25,1.0226691251654465,1.0226691251654465,0.0,0,False
2023-09-26,1.0226691251654465,1.0238125604970008,0.11180892269229137,1,True
2023-09-27,1.0238125604970008,1.0145363389210444,-0.9060468618839024,1,True
2023-09-28,1.0145363389210444,1.0145363389210444,0.0,0,False
2023-09-29,1.0145363389210444,1.0145363389210444,0.0,0,False
2023-09-30,1.0145363389210444,1.0145363389210444,0.0,0,False
2023-10-01,1.0145363389210444,1.0145363389210444,0.0,0,False
2023-10-02,1.0145363389210444,1.0145363389210444,0.0,0,False
2023-10-03,1.0145363389210444,1.0148094100330731,0.026915853237863274,1,True
2023-10-04,1.0148094100330731,1.0133324870761997,-0.14553697889195805,0,True
2023-10-05,1.0133324870761997,1.0133324870761997,0.0,0,False
2023-10-06,1.0133324870761997,1.0133324870761997,0.0,0,False
2023-10-07,1.0133324870761997,1.0133324870761997,0.0,0,False
2023-10-08,1.0133324870761997,1.0133324870761997,0.0,0,False
2023-10-09,1.0133324870761997,1.0093128253056156,-0.3966774796870687,1,True
2023-10-10,1.0093128253056156,1.0093128253056156,0.0,0,False
2023-10-11,1.0093128253056156,1.0093128253056156,0.0,0,False
2023-10-12,1.0093128253056156,1.0093128253056156,0.0,0,False
2023-10-13,1.0093128253056156,1.0093128253056156,0.0,0,False
2023-10-14,1.0093128253056156,1.0093128253056156,0.0,0,False
2023-10-15,1.0093128253056156,1.0091898892985824,-0.012180168917985679,1,True
2023-10-16,1.0091898892985824,1.0087747994061536,-0.041130999907001975,1,True
2023-10-17,1.0087747994061536,1.003462046570414,-0.5266540003643017,1,True
2023-10-18,1.003462046570414,1.003462046570414,0.0,0,False
2023-10-19,1.003462046570414,0.9934739530418633,-0.9953633585532806,2,True
2023-10-20,0.9934739530418633,0.9934739530418633,0.0,0,False
2023-10-21,0.9934739530418633,0.9936766567946732,0.020403529673762577,1,True
2023-10-22,0.9936766567946732,0.9936766567946732,0.0,0,False
2023-10-23,0.9936766567946732,0.9936766567946732,0.0,0,False
2023-10-24,0.9936766567946732,0.9887154436742822,-0.4992784208491474,1,True
2023-10-25,0.9887154436742822,0.9888098750147255,0.009550911847022725,1,True
2023-10-26,0.9888098750147255,0.9987454026866587,1.0047965663556147,5,True
2023-10-27,0.9987454026866587,0.9988792408033916,0.013400624060233568,2,True
2023-10-28,0.9988792408033916,1.0008240872450411,0.19470285918499197,1,True
2023-10-29,1.0008240872450411,1.0008240872450411,0.0,0,False
2023-10-30,1.0008240872450411,1.0008240872450411,0.0,0,False
2023-10-31,1.0008240872450411,1.0008240872450411,0.0,0,False
2023-11-01,1.0008240872450411,1.0008240872450411,0.0,0,False
2023-11-02,1.0008240872450411,1.0008240872450411,0.0,0,False
2023-11-03,1.0008240872450411,0.995827705964577,-0.49922672167269644,1,True
2023-11-04,0.995827705964577,0.995827705964577,0.0,0,False
2023-11-05,0.995827705964577,1.0107531846594102,1.4988013092461783,1,True
2023-11-06,1.0107531846594102,1.0127280019230607,0.19538076096350387,1,True
2023-11-07,1.0127280019230607,1.0062831555558969,-0.6363847306409709,1,True
2023-11-08,1.0062831555558969,1.0062831555558969,0.0,0,False
2023-11-09,1.0062831555558969,0.993123563668392,-1.3077424395755766,4,True
2023-11-10,0.993123563668392,0.9964362258678195,0.3335599235195996,4,True
2023-11-11,0.9964362258678195,0.9964362258678195,0.0,0,False
2023-11-12,0.9964362258678195,0.9964362258678195,0.0,0,False
2023-11-13,0.9964362258678195,0.9939051202584412,-0.25401581593180733,1,True
2023-11-14,0.9939051202584412,1.0018413857401354,0.798493268616074,2,True
2023-11-15,1.0018413857401354,1.0018413857401354,0.0,0,False
2023-11-16,1.0018413857401354,1.0018413857401354,0.0,0,False
2023-11-17,1.0018413857401354,1.0000749645543103,-0.17631745014407008,1,True
2023-11-18,1.0000749645543103,0.9956917482386108,-0.43828877544723754,2,True
2023-11-19,0.9956917482386108,0.9961604867445133,0.0470766687312274,0,True
2023-11-20,0.9961604867445133,0.9983988844029681,0.22470251412700648,1,True
2023-11-21,0.9983988844029681,0.9949349788731058,-0.3469460537241731,0,True
2023-11-22,0.9949349788731058,0.9920776328732503,-0.2871892194494685,1,True
2023-11-23,0.9920776328732503,0.9920776328732503,0.0,0,False
2023-11-24,0.9920776328732503,0.9920776328732503,0.0,0,False
2023-11-25,0.9920776328732503,0.9999507497741806,0.7935988717060694,1,True
2023-11-26,0.9999507497741806,0.9999507497741806,0.0,0,False
2023-11-27,0.9999507497741806,0.9936533349888108,-0.6297724949745787,2,True
2023-11-28,0.9936533349888108,0.9886908557675106,-0.499417558071813,1,True
2023-11-29,0.9886908557675106,0.9819977659517296,-0.6769648749896828,2,True
2023-11-30,0.9819977659517296,0.9815873247115755,-0.04179655538791849,1,True
2023-12-01,0.9815873247115755,0.9815873247115755,0.0,0,False
2023-12-02,0.9815873247115755,0.990904813079864,0.9492266387024051,1,True
2023-12-03,0.990904813079864,0.9917953714522479,0.0898732512577105,1,True
2023-12-04,0.9917953714522479,0.9891725040308554,-0.26445650956729017,5,True
2023-12-05,0.9891725040308554,0.9864527696548827,-0.2749504626230359,1,True
2023-12-06,0.9864527696548827,0.9864527696548827,0.0,0,False
2023-12-07,0.9864527696548827,0.9815286015463331,-0.49917930792290344,1,True
2023-12-08,0.9815286015463331,0.9815286015463331,0.0,0,False
2023-12-09,0.9815286015463331,0.9815286015463331,0.0,0,False
2023-12-10,0.9815286015463331,0.9815286015463331,0.0,0,False
2023-12-11,0.9815286015463331,0.9968648572554748,1.562486888816128,4,True
2023-12-12,0.9968648572554748,0.9968648572554748,0.0,0,False
2023-12-13,0.9968648572554748,0.9959578611202703,-0.09098486405686446,1,True
2023-12-14,0.9959578611202703,0.9959578611202703,0.0,0,False
2023-12-15,0.9959578611202703,0.9959578611202703,0.0,0,False
2023-12-16,0.9959578611202703,0.9931525544189498,-0.281669216222169,1,True
2023-12-17,0.9931525544189498,0.98819436130041,-0.4992378156284949,1,True
2023-12-18,0.98819436130041,0.9931097940703744,0.49741558568456856,1,True
2023-12-19,0.9931097940703744,0.991363685624961,-0.17582229637034263,0,True
2023-12-20,0.991363685624961,0.991363685624961,0.0,0,False
2023-12-21,0.991363685624961,0.9864138620926893,-0.4992944167761526,1,True
2023-12-22,0.9864138620926893,0.9864138620926893,0.0,0,False
2023-12-23,0.9864138620926893,0.9864138620926893,0.0,0,False
2023-12-24,0.9864138620926893,0.984229843828654,-0.22140993227750538,1,True
2023-12-25,0.984229843828654,0.9814929800881858,-0.278071606711483,0,True
2023-12-26,0.9814929800881858,0.9814929800881858,0.0,0,False
2023-12-27,0.9814929800881858,0.9776012957190898,-0.39650659230860974,2,True
2023-12-28,0.9776012957190898,0.9795494475637464,0.19927877072047906,1,True
2023-12-29,0.9795494475637464,0.9802172378784941,0.0681732113073652,1,True
2023-12-30,0.9802172378784941,0.9804581455817781,0.02457697069329079,2,True
2023-12-31,0.9804581455817781,0.9755618969740221,-0.49938374522359164,1,True
