day,start_equity,end_equity,return_pct,entries,active
2024-01-02,1.0,1.0,0.0,0,False
2024-01-03,1.0,0.9935163439506344,-0.6483656049365627,6,True
2024-01-04,0.9935163439506344,0.9997726322242819,0.6297116611861497,1,True
2024-01-05,0.9997726322242819,0.9986514516674994,-0.1121435535085813,1,True
2024-01-06,0.9986514516674994,0.9986013913468252,-0.005012792059788662,2,True
2024-01-07,0.9986013913468252,0.9967887408016007,-0.18151892846651752,1,True
2024-01-08,0.9967887408016007,1.0016909419613182,0.49179941135524263,3,True
2024-01-09,1.0016909419613182,1.0172628962926498,1.5545667509822447,0,True
2024-01-10,1.0172628962926498,1.0172628962926498,0.0,0,False
2024-01-11,1.0172628962926498,1.0180930924928304,0.08161078155963786,1,True
2024-01-12,1.0180930924928304,1.016266332784689,-0.17942953563003794,2,True
2024-01-13,1.016266332784689,1.0205582466322762,0.4223217584928607,4,True
2024-01-14,1.0205582466322762,1.025533445306309,0.48749776805492306,0,True
2024-01-15,1.025533445306309,1.025533445306309,0.0,0,False
2024-01-16,1.025533445306309,1.025208149207992,-0.03171969669109043,1,True
2024-01-17,1.025208149207992,1.0296008994191927,0.42847398497507516,0,True
2024-01-18,1.0296008994191927,1.0296008994191927,0.0,0,False
2024-01-19,1.0296008994191927,1.0296008994191927,0.0,0,False
2024-01-20,1.0296008994191927,1.0441391778629447,1.412030472385295,6,True
2024-01-21,1.0441391778629447,1.0464079121931578,0.2172827510271702,0,True
2024-01-22,1.0464079121931578,1.0464079121931578,0.0,0,False
2024-01-23,1.0464079121931578,1.024216099216075,-2.1207611982378083,8,True
2024-01-24,1.024216099216075,1.024216099216075,0.0,0,False
2024-01-25,1.024216099216075,1.0191044442900936,-0.4990797283789705,1,True
2024-01-26,1.0191044442900936,1.0191044442900936,0.0,0,False
2024-01-27,1.0191044442900936,1.0191044442900936,0.0,0,False
2024-01-28,1.0191044442900936,1.0191044442900936,0.0,0,False
2024-01-29,1.0191044442900936,1.0191044442900936,0.0,0,False
2024-01-30,1.0191044442900936,1.0191044442900936,0.0,0,False
2024-01-31,1.0191044442900936,1.0140137061040189,-0.49953056476178537,1,True
2024-02-01,1.0140137061040189,1.0140137061040189,0.0,0,False
2024-02-02,1.0140137061040189,1.0138089755434556,-0.020190117680940478,2,True
2024-02-03,1.0138089755434556,1.0221394481404604,0.8217004187144106,1,True
2024-02-04,1.0221394481404604,1.0205042518758745,-0.1599778061164625,1,True
2024-02-05,1.0205042518758745,1.0205042518758745,0.0,0,False
2024-02-06,1.0205042518758745,1.0154191419899625,-0.4982938460633135,1,True
2024-02-07,1.0154191419899625,1.0150828518310604,-0.033118359207129355,3,True
2024-02-08,1.0150828518310604,1.0269960077037685,1.1736141391038624,0,True
2024-02-09,1.0269960077037685,1.0269960077037685,0.0,0,False
2024-02-10,1.0269960077037685,1.0269960077037685,0.0,0,False
2024-02-11,1.0269960077037685,1.0269960077037685,0.0,0,False
2024-02-12,1.0269960077037685,1.0269960077037685,0.0,0,False
2024-02-13,1.0269960077037685,1.0269960077037685,0.0,0,False
2024-02-14,1.0269960077037685,1.0283388421379704,0.1307536177481694,1,True
2024-02-15,1.0283388421379704,1.0257714883398206,-0.24966029609581053,0,True
2024-02-16,1.0257714883398206,1.0310033268446217,0.5100393766323874,1,True
2024-02-17,1.0310033268446217,1.027071040845361,-0.38140381285630687,2,True
2024-02-18,1.027071040845361,1.0274501711939057,0.03691374145187165,0,True
2024-02-19,1.0274501711939057,1.0274501711939057,0.0,0,False
2024-02-20,1.0274501711939057,1.0294779598487453,0.19736126497340578,7,True
2024-02-21,1.0294779598487453,1.0154813352818748,-1.3595846742485818,5,True
2024-02-22,1.0154813352818748,1.039288157049133,2.344387921285618,2,True
2024-02-23,1.039288157049133,1.0459530709037324,0.6412960457014227,1,True
2024-02-24,1.0459530709037324,1.053187265592563,0.6916366412672792,2,True
2024-02-25,1.053187265592563,1.0510126650936384,-0.2064780471591643,1,True
2024-02-26,1.0510126650936384,1.056385148345287,0.5111720752832172,0,True
2024-02-27,1.056385148345287,1.0562900143737552,-0.009005614257340255,1,True
2024-02-28,1.0562900143737552,1.0561965636095332,-0.008847074472961847,1,True
2024-02-29,1.0561965636095332,1.0770959320812936,1.9787385408959413,5,True
2024-03-01,1.0770959320812936,1.0728007652380238,-0.39877291477372623,1,True
2024-03-02,1.0728007652380238,1.0723691396069124,-0.040233531248057286,1,True
2024-03-03,1.0723691396069124,1.0751014034780513,0.25478762584871806,6,True
2024-03-04,1.0751014034780513,1.0966987351934945,2.008864619241857,0,True
2024-03-05,1.0966987351934945,1.0906448308247683,-0.552011612164216,5,True
2024-03-06,1.0906448308247683,1.0640768033409425,-2.4359926103289298,3,True
2024-03-07,1.0640768033409425,1.0640768033409425,0.0,0,False
2024-03-08,1.0640768033409425,1.0649872883659475,0.08556572440507892,2,True
2024-03-09,1.0649872883659475,1.0624864078899912,-0.23482726068905224,3,True
2024-03-10,1.0624864078899912,1.0752543999100126,1.2017087395383763,2,True
2024-03-11,1.0752543999100126,1.0677281066349302,-0.6999546596333173,0,True
2024-03-12,1.0677281066349302,1.063785450332482,-0.3692565811416193,1,True
2024-03-13,1.063785450332482,1.068226393217254,0.4174660297698196,2,True
2024-03-14,1.068226393217254,1.0775533222242804,0.8731228760352705,1,True
2024-03-15,1.0775533222242804,1.0557212253089594,-2.0260804235891827,6,True
2024-03-16,1.0557212253089594,1.0536842565935722,-0.1929457006788038,1,True
2024-03-17,1.0536842565935722,1.0305965311345568,-2.1911426800334977,4,True
2024-03-18,1.0305965311345568,1.0305965311345568,0.0,0,False
2024-03-19,1.0305965311345568,1.0092951883076695,-2.0668944813386103,7,True
2024-03-20,1.0092951883076695,1.0092951883076695,0.0,0,False
2024-03-21,1.0092951883076695,1.0123297394809527,0.3006604220883391,2,True
2024-03-22,1.0123297394809527,1.013142027961245,0.0802395157045277,0,True
2024-03-23,1.013142027961245,1.0149140935363252,0.1749079128269937,1,True
2024-03-24,1.0149140935363252,1.0125684389501555,-0.23111853516554204,2,True
2024-03-25,1.0125684389501555,1.020849522319321,0.8178294968142152,2,True
2024-03-26,1.020849522319321,1.0348756611257965,1.373967318377023,2,True
2024-03-27,1.0348756611257965,1.0342069523094377,-0.06461731022172623,2,True
2024-03-28,1.0342069523094377,1.0299042145322144,-0.4160422406381148,0,True
2024-03-29,1.0299042145322144,1.0188976353681758,-1.0686993031713943,4,True
2024-03-30,1.0188976353681758,1.0187860166059972,-0.010954855355826965,0,True
2024-03-31,1.0187860166059972,1.0187860166059972,0.0,0,False
2024-04-01,1.0187860166059972,1.017684149777497,-0.10815488341416879,4,True
2024-04-02,1.017684149777497,0.9968097096117605,-2.0511708048416066,5,True
2024-04-03,0.9968097096117605,0.9918335509663805,-0.4992084845680478,1,True
2024-04-04,0.9918335509663805,0.991598242424596,-0.0237245999144875,1,True
2024-04-05,0.991598242424596,0.9843895728187138,-0.7269748268468157,3,True
2024-04-06,0.9843895728187138,0.9837520420873406,-0.06476406790328904,1,True
2024-04-07,0.9837520420873406,0.9913757369802311,0.7749610233809046,1,True
2024-04-08,0.9913757369802311,0.9874046187386137,-0.40056641427532735,0,True
2024-04-09,0.9874046187386137,0.984941949975534,-0.24940826853997455,1,True
2024-04-10,0.984941949975534,0.9820057997513003,-0.2981038856459062,4,True
2024-04-11,0.9820057997513003,0.986640825762398,0.4719957878325687,1,True
2024-04-12,0.986640825762398,0.9837502595929477,-0.2929704603715999,2,True
2024-04-13,0.9837502595929477,0.9704956014622769,-1.347360064347558,7,True
2024-04-14,0.9704956014622769,0.9455157132891088,-2.5739311064913784,10,True
2024-04-15,0.9455157132891088,0.9455157132891088,0.0,0,False
2024-04-16,0.9455157132891088,0.9455157132891088,0.0,0,False
2024-04-17,0.9455157132891088,0.9455157132891088,0.0,0,False
2024-04-18,0.9455157132891088,0.9455157132891088,0.0,0,False
2024-04-19,0.9455157132891088,0.9481904520364209,0.2828867579585337,4,True
2024-04-20,0.9481904520364209,0.9467098187598431,-0.15615357372540384,0,True
2024-04-21,0.9467098187598431,0.9467098187598431,0.0,0,False
2024-04-22,0.9467098187598431,0.9467098187598431,0.0,0,False
2024-04-23,0.9467098187598431,0.9476910990125522,0.10365163994967563,1,True
2024-04-24,0.9476910990125522,0.9462449836267669,-0.15259353889596206,1,True
2024-04-25,0.9462449836267669,0.9448435978796297,-0.14809967517777078,0,True
2024-04-26,0.9448435978796297,0.9448435978796297,0.0,0,False
2024-04-27,0.9448435978796297,0.9487807351125085,0.416697244042763,3,True
2024-04-28,0.9487807351125085,0.9500878369931203,0.13776648621104393,1,True
2024-04-29,0.9500878369931203,0.9515407505631769,0.15292413116820835,2,True
2024-04-30,0.9515407505631769,0.949413968819945,-0.22350926557513917,2,True
2024-05-01,0.949413968819945,0.9468393673423138,-0.2711779647429524,3,True
2024-05-02,0.9468393673423138,0.9485315515638649,0.1787192505842805,1,True
2024-05-03,0.9485315515638649,0.9474633618492002,-0.11261509571331985,1,True
2024-05-04,0.9474633618492002,0.9478310872730371,0.03881157189224993,0,True
2024-05-05,0.9478310872730371,0.9463390699429393,-0.15741384199482455,1,True
2024-05-06,0.9463390699429393,0.9470233549943813,0.07230865481262505,0,True
2024-05-07,0.9470233549943813,0.9496014300770859,0.27222930343886453,2,True
2024-05-08,0.9496014300770859,0.9508606694709648,0.13260715011524926,2,True
2024-05-09,0.9508606694709648,0.9495854908567609,-0.1341078304262333,1,True
2024-05-10,0.9495854908567609,0.9510492032460701,0.1541422445269891,0,True
2024-05-11,0.9510492032460701,0.9475357309684884,-0.36943117828075467,3,True
2024-05-12,0.9475357309684884,0.9473430424552405,-0.02033575167144086,0,True
2024-05-13,0.9473430424552405,0.9480489369269641,0.074513079221461,3,True
2024-05-14,0.9480489369269641,0.9436857453005775,-0.46022852370148915,3,True
2024-05-15,0.9436857453005775,0.9464612732158894,0.2941156978510717,1,True
2024-05-16,0.9464612732158894,0.9511669652544579,0.4971880172740084,0,True
2024-05-17,0.9511669652544579,0.9511669652544579,0.0,0,False
2024-05-18,0.9511669652544579,0.9539366279509192,0.2911857536726403,2,True
2024-05-19,0.9539366279509192,0.9535941067635383,-0.03590607356346309,0,True
2024-05-20,0.9535941067635383,0.952289180387034,-0.1368429573178842,1,True
2024-05-21,0.952289180387034,0.9496356444917994,-0.2786481196978663,2,True
2024-05-22,0.9496356444917994,0.9513800750344009,0.18369472046670943,1,True
2024-05-23,0.9513800750344009,0.9490545870756851,-0.24443311561173076,1,True
2024-05-24,0.9490545870756851,0.9517830417772982,0.2874918617716382,2,True
2024-05-25,0.9517830417772982,0.9516305850211499,-0.016018015604013502,0,True
2024-05-26,0.9516305850211499,0.9524759555630271,0.0888338978573655,2,True
2024-05-27,0.9524759555630271,0.9592645207605253,0.7127282487131348,2,True
2024-05-28,0.9592645207605253,0.9624732192808487,0.3344956944492772,1,True
2024-05-29,0.9624732192808487,0.9621823013347094,-0.030226082171580515,0,True
2024-05-30,0.9621823013347094,0.9601991905974714,-0.2061055097861475,3,True
2024-05-31,0.9601991905974714,0.9587347606257957,-0.15251314373265767,0,True
2024-06-01,0.9587347606257957,0.9577609041855066,-0.10157725371857662,2,True
2024-06-02,0.9577609041855066,0.962182770198775,0.4616878799233115,0,True
2024-06-03,0.962182770198775,0.9627207480657114,0.05591223243639476,1,True
2024-06-04,0.9627207480657114,0.968386587167437,0.5885236308773134,3,True
2024-06-05,0.968386587167437,0.9697362327805582,0.13937053972101765,0,True
2024-06-06,0.9697362327805582,0.9703355611614894,0.06180323686708622,1,True
2024-06-07,0.9703355611614894,0.9699923515772405,-0.03537019542374509,0,True
2024-06-08,0.9699923515772405,0.978148998937026,0.8408981108482427,5,True
2024-06-09,0.978148998937026,0.978286191326063,0.014025714812992973,0,True
2024-06-10,0.978286191326063,0.978286191326063,0.0,0,False
2024-06-11,0.978286191326063,0.978393738385559,0.010993414856463879,1,True
2024-06-12,0.978393738385559,0.9833647031273521,0.5080740551340446,1,True
2024-06-13,0.9833647031273521,0.9806385067272265,-0.27723146778154684,1,True
2024-06-14,0.9806385067272265,0.9762389860036079,-0.44863838136456335,4,True
2024-06-15,0.9762389860036079,0.9808861446409336,0.47602674180731164,4,True
2024-06-16,0.9808861446409336,0.9806859804931773,-0.020406460917998803,0,True
2024-06-17,0.9806859804931773,0.9758011958602814,-0.49809875230799605,2,True
2024-06-18,0.9758011958602814,0.9782415286467719,0.2500850374895336,5,True
2024-06-19,0.9782415286467719,0.9844650060145461,0.6361902644210327,0,True
2024-06-20,0.9844650060145461,0.9864072391297084,0.19728818224074018,1,True
2024-06-21,0.9864072391297084,0.9856571110279327,-0.0760464919577708,1,True
2024-06-22,0.9856571110279327,0.9859900486790556,0.03377824269696905,0,True
2024-06-23,0.9859900486790556,0.9854639632619518,-0.0533560574783265,2,True
2024-06-24,0.9854639632619518,0.9831496204493538,-0.23484804101180368,0,True
2024-06-25,0.9831496204493538,0.9831496204493538,0.0,0,False
2024-06-26,0.9831496204493538,0.9831496204493538,0.0,0,False
2024-06-27,0.9831496204493538,0.9807002240653335,-0.24913770326238094,1,True
2024-06-28,0.9807002240653335,0.9806077018262864,-0.00943430385521582,1,True
2024-06-29,0.9806077018262864,0.97469483770134,-0.6029795721504416,3,True
2024-06-30,0.97469483770134,0.9726134445346237,-0.21354305842277155,0,True
2024-07-01,0.9726134445346237,0.9694920094027478,-0.32093275590792114,2,True
2024-07-02,0.9694920094027478,0.9716073417071135,0.21818976163288095,0,True
2024-07-03,0.9716073417071135,0.9691805207333545,-0.24977384068497477,1,True
2024-07-04,0.9691805207333545,0.9626936671661861,-0.6693132423111425,4,True
2024-07-05,0.9626936671661861,0.9405384536626424,-2.301377297802365,8,True
2024-07-06,0.9405384536626424,0.9405384536626424,0.0,0,False
2024-07-07,0.9405384536626424,0.9405384536626424,0.0,0,False
2024-07-08,0.9405384536626424,0.9412358463858002,0.07414824140810072,2,True
2024-07-09,0.9412358463858002,0.9418287912293672,0.06299641538769496,1,True
2024-07-10,0.9418287912293672,0.9436174500941225,0.18991337718827772,1,True
2024-07-11,0.9436174500941225,0.938434779964404,-0.5492342399137984,2,True
2024-07-12,0.938434779964404,0.938434779964404,0.0,0,False
2024-07-13,0.938434779964404,0.938434779964404,0.0,0,False
2024-07-14,0.938434779964404,0.9388478925599807,0.04402144980093503,1,True
2024-07-15,0.9388478925599807,0.9398848018982254,0.1104448704057237,0,True
2024-07-16,0.9398848018982254,0.9398848018982254,0.0,0,False
2024-07-17,0.9398848018982254,0.9398848018982254,0.0,0,False
2024-07-18,0.9398848018982254,0.9398848018982254,0.0,0,False
2024-07-19,0.9398848018982254,0.9377276232273449,-0.22951522000609348,2,True
2024-07-20,0.9377276232273449,0.9377276232273449,0.0,0,False
2024-07-21,0.9377276232273449,0.9377276232273449,0.0,0,False
2024-07-22,0.9377276232273449,0.9377276232273449,0.0,0,False
2024-07-23,0.9377276232273449,0.9377276232273449,0.0,0,False
2024-07-24,0.9377276232273449,0.9377276232273449,0.0,0,False
2024-07-25,0.9377276232273449,0.9377276232273449,0.0,0,False
2024-07-26,0.9377276232273449,0.9377276232273449,0.0,0,False
2024-07-27,0.9377276232273449,0.9377276232273449,0.0,0,False
2024-07-28,0.9377276232273449,0.9377276232273449,0.0,0,False
2024-07-29,0.9377276232273449,0.9377276232273449,0.0,0,False
2024-07-30,0.9377276232273449,0.9377276232273449,0.0,0,False
2024-07-31,0.9377276232273449,0.9377276232273449,0.0,0,False
2024-08-01,0.9377276232273449,0.9377276232273449,0.0,0,False
2024-08-02,0.9377276232273449,0.9377276232273449,0.0,0,False
2024-08-03,0.9377276232273449,0.9377276232273449,0.0,0,False
2024-08-04,0.9377276232273449,0.9377276232273449,0.0,0,False
2024-08-05,0.9377276232273449,0.9377276232273449,0.0,0,False
2024-08-06,0.9377276232273449,0.9377276232273449,0.0,0,False
2024-08-07,0.9377276232273449,0.9377276232273449,0.0,0,False
2024-08-08,0.9377276232273449,0.9377276232273449,0.0,0,False
2024-08-09,0.9377276232273449,0.9377276232273449,0.0,0,False
2024-08-10,0.9377276232273449,0.9377276232273449,0.0,0,False
2024-08-11,0.9377276232273449,0.9377276232273449,0.0,0,False
2024-08-12,0.9377276232273449,0.9377276232273449,0.0,0,False
2024-08-13,0.9377276232273449,0.9377276232273449,0.0,0,False
2024-08-14,0.9377276232273449,0.9377276232273449,0.0,0,False
2024-08-15,0.9377276232273449,0.9377276232273449,0.0,0,False
2024-08-16,0.9377276232273449,0.9377276232273449,0.0,0,False
2024-08-17,0.9377276232273449,0.9377276232273449,0.0,0,False
2024-08-18,0.9377276232273449,0.9377276232273449,0.0,0,False
2024-08-19,0.9377276232273449,0.9377276232273449,0.0,0,False
2024-08-20,0.9377276232273449,0.9377276232273449,0.0,0,False
2024-08-21,0.9377276232273449,0.9377276232273449,0.0,0,False
2024-08-22,0.9377276232273449,0.9377276232273449,0.0,0,False
2024-08-23,0.9377276232273449,0.9377276232273449,0.0,0,False
2024-08-24,0.9377276232273449,0.9377276232273449,0.0,0,False
2024-08-25,0.9377276232273449,0.9377276232273449,0.0,0,False
2024-08-26,0.9377276232273449,0.9377276232273449,0.0,0,False
2024-08-27,0.9377276232273449,0.9377276232273449,0.0,0,False
2024-08-28,0.9377276232273449,0.9377276232273449,0.0,0,False
2024-08-29,0.9377276232273449,0.9377276232273449,0.0,0,False
2024-08-30,0.9377276232273449,0.9377276232273449,0.0,0,False
2024-08-31,0.9377276232273449,0.9377276232273449,0.0,0,False
2024-09-01,0.9377276232273449,0.9377276232273449,0.0,0,False
2024-09-02,0.9377276232273449,0.9377276232273449,0.0,0,False
2024-09-03,0.9377276232273449,0.9377276232273449,0.0,0,False
2024-09-04,0.9377276232273449,0.9377276232273449,0.0,0,False
2024-09-05,0.9377276232273449,0.9377276232273449,0.0,0,False
2024-09-06,0.9377276232273449,0.9377276232273449,0.0,0,False
2024-09-07,0.9377276232273449,0.9377276232273449,0.0,0,False
2024-09-08,0.9377276232273449,0.9377276232273449,0.0,0,False
2024-09-09,0.9377276232273449,0.9377276232273449,0.0,0,False
2024-09-10,0.9377276232273449,0.9377276232273449,0.0,0,False
2024-09-11,0.9377276232273449,0.9377276232273449,0.0,0,False
2024-09-12,0.9377276232273449,0.9377276232273449,0.0,0,False
2024-09-13,0.9377276232273449,0.9377276232273449,0.0,0,False
2024-09-14,0.9377276232273449,0.9377276232273449,0.0,0,False
2024-09-15,0.9377276232273449,0.9377276232273449,0.0,0,False
2024-09-16,0.9377276232273449,0.9377276232273449,0.0,0,False
2024-09-17,0.9377276232273449,0.9377276232273449,0.0,0,False
2024-09-18,0.9377276232273449,0.9377276232273449,0.0,0,False
2024-09-19,0.9377276232273449,0.9377276232273449,0.0,0,False
2024-09-20,0.9377276232273449,0.9377276232273449,0.0,0,False
2024-09-21,0.9377276232273449,0.9377276232273449,0.0,0,False
2024-09-22,0.9377276232273449,0.9377276232273449,0.0,0,False
2024-09-23,0.9377276232273449,0.9377276232273449,0.0,0,False
2024-09-24,0.9377276232273449,0.9377276232273449,0.0,0,False
2024-09-25,0.9377276232273449,0.9377276232273449,0.0,0,False
2024-09-26,0.9377276232273449,0.9377276232273449,0.0,0,False
2024-09-27,0.9377276232273449,0.9377276232273449,0.0,0,False
2024-09-28,0.9377276232273449,0.9377276232273449,0.0,0,False
2024-09-29,0.9377276232273449,0.9377276232273449,0.0,0,False
2024-09-30,0.9377276232273449,0.9377276232273449,0.0,0,False
2024-10-01,0.9377276232273449,0.9377276232273449,0.0,0,False
2024-10-02,0.9377276232273449,0.9377276232273449,0.0,0,False
2024-10-03,0.9377276232273449,0.9377276232273449,0.0,0,False
2024-10-04,0.9377276232273449,0.9377276232273449,0.0,0,False
2024-10-05,0.9377276232273449,0.9377276232273449,0.0,0,False
2024-10-06,0.9377276232273449,0.9377276232273449,0.0,0,False
2024-10-07,0.9377276232273449,0.9377276232273449,0.0,0,False
2024-10-08,0.9377276232273449,0.9377276232273449,0.0,0,False
2024-10-09,0.9377276232273449,0.9377276232273449,0.0,0,False
2024-10-10,0.9377276232273449,0.9377276232273449,0.0,0,False
2024-10-11,0.9377276232273449,0.9377276232273449,0.0,0,False
2024-10-12,0.9377276232273449,0.9377276232273449,0.0,0,False
2024-10-13,0.9377276232273449,0.9377276232273449,0.0,0,False
2024-10-14,0.9377276232273449,0.9377276232273449,0.0,0,False
2024-10-15,0.9377276232273449,0.9377276232273449,0.0,0,False
2024-10-16,0.9377276232273449,0.9377276232273449,0.0,0,False
2024-10-17,0.9377276232273449,0.9377276232273449,0.0,0,False
2024-10-18,0.9377276232273449,0.9377276232273449,0.0,0,False
2024-10-19,0.9377276232273449,0.9377276232273449,0.0,0,False
2024-10-20,0.9377276232273449,0.9377276232273449,0.0,0,False
2024-10-21,0.9377276232273449,0.9377276232273449,0.0,0,False
2024-10-22,0.9377276232273449,0.9377276232273449,0.0,0,False
2024-10-23,0.9377276232273449,0.9377276232273449,0.0,0,False
2024-10-24,0.9377276232273449,0.9377276232273449,0.0,0,False
2024-10-25,0.9377276232273449,0.9377276232273449,0.0,0,False
2024-10-26,0.9377276232273449,0.9377276232273449,0.0,0,False
2024-10-27,0.9377276232273449,0.9377276232273449,0.0,0,False
2024-10-28,0.9377276232273449,0.9377276232273449,0.0,0,False
2024-10-29,0.9377276232273449,0.9377276232273449,0.0,0,False
2024-10-30,0.9377276232273449,0.9377276232273449,0.0,0,False
2024-10-31,0.9377276232273449,0.9377276232273449,0.0,0,False
2024-11-01,0.9377276232273449,0.9377276232273449,0.0,0,False
2024-11-02,0.9377276232273449,0.9377276232273449,0.0,0,False
2024-11-03,0.9377276232273449,0.9377276232273449,0.0,0,False
2024-11-04,0.9377276232273449,0.9377276232273449,0.0,0,False
2024-11-05,0.9377276232273449,0.9377276232273449,0.0,0,False
2024-11-06,0.9377276232273449,0.9377276232273449,0.0,0,False
2024-11-07,0.9377276232273449,0.9377276232273449,0.0,0,False
2024-11-08,0.9377276232273449,0.9377276232273449,0.0,0,False
2024-11-09,0.9377276232273449,0.9377276232273449,0.0,0,False
2024-11-10,0.9377276232273449,0.9377276232273449,0.0,0,False
2024-11-11,0.9377276232273449,0.9377276232273449,0.0,0,False
2024-11-12,0.9377276232273449,0.9377276232273449,0.0,0,False
2024-11-13,0.9377276232273449,0.9377276232273449,0.0,0,False
2024-11-14,0.9377276232273449,0.9377276232273449,0.0,0,False
2024-11-15,0.9377276232273449,0.9377276232273449,0.0,0,False
2024-11-16,0.9377276232273449,0.9377276232273449,0.0,0,False
2024-11-17,0.9377276232273449,0.9377276232273449,0.0,0,False
2024-11-18,0.9377276232273449,0.9377276232273449,0.0,0,False
2024-11-19,0.9377276232273449,0.9377276232273449,0.0,0,False
2024-11-20,0.9377276232273449,0.9377276232273449,0.0,0,False
2024-11-21,0.9377276232273449,0.9377276232273449,0.0,0,False
2024-11-22,0.9377276232273449,0.9377276232273449,0.0,0,False
2024-11-23,0.9377276232273449,0.9377276232273449,0.0,0,False
2024-11-24,0.9377276232273449,0.9377276232273449,0.0,0,False
2024-11-25,0.9377276232273449,0.9377276232273449,0.0,0,False
2024-11-26,0.9377276232273449,0.9377276232273449,0.0,0,False
2024-11-27,0.9377276232273449,0.9377276232273449,0.0,0,False
2024-11-28,0.9377276232273449,0.9377276232273449,0.0,0,False
2024-11-29,0.9377276232273449,0.9377276232273449,0.0,0,False
2024-11-30,0.9377276232273449,0.9377276232273449,0.0,0,False
2024-12-01,0.9377276232273449,0.9377276232273449,0.0,0,False
2024-12-02,0.9377276232273449,0.9377276232273449,0.0,0,False
2024-12-03,0.9377276232273449,0.9377276232273449,0.0,0,False
2024-12-04,0.9377276232273449,0.9377276232273449,0.0,0,False
2024-12-05,0.9377276232273449,0.9377276232273449,0.0,0,False
2024-12-06,0.9377276232273449,0.9377276232273449,0.0,0,False
2024-12-07,0.9377276232273449,0.9377276232273449,0.0,0,False
2024-12-08,0.9377276232273449,0.9377276232273449,0.0,0,False
2024-12-09,0.9377276232273449,0.9377276232273449,0.0,0,False
2024-12-10,0.9377276232273449,0.9377276232273449,0.0,0,False
2024-12-11,0.9377276232273449,0.9377276232273449,0.0,0,False
2024-12-12,0.9377276232273449,0.9377276232273449,0.0,0,False
2024-12-13,0.9377276232273449,0.9377276232273449,0.0,0,False
2024-12-14,0.9377276232273449,0.9377276232273449,0.0,0,False
2024-12-15,0.9377276232273449,0.9377276232273449,0.0,0,False
2024-12-16,0.9377276232273449,0.9377276232273449,0.0,0,False
2024-12-17,0.9377276232273449,0.9377276232273449,0.0,0,False
2024-12-18,0.9377276232273449,0.9377276232273449,0.0,0,False
2024-12-19,0.9377276232273449,0.9377276232273449,0.0,0,False
2024-12-20,0.9377276232273449,0.9377276232273449,0.0,0,False
2024-12-21,0.9377276232273449,0.9377276232273449,0.0,0,False
2024-12-22,0.9377276232273449,0.9377276232273449,0.0,0,False
2024-12-23,0.9377276232273449,0.9377276232273449,0.0,0,False
2024-12-24,0.9377276232273449,0.9377276232273449,0.0,0,False
2024-12-25,0.9377276232273449,0.9377276232273449,0.0,0,False
2024-12-26,0.9377276232273449,0.9377276232273449,0.0,0,False
2024-12-27,0.9377276232273449,0.9377276232273449,0.0,0,False
2024-12-28,0.9377276232273449,0.9377276232273449,0.0,0,False
2024-12-29,0.9377276232273449,0.9377276232273449,0.0,0,False
2024-12-30,0.9377276232273449,0.9377276232273449,0.0,0,False
2024-12-31,0.9377276232273449,0.9377276232273449,0.0,0,False
