day,start_equity,end_equity,return_pct,entries,active
2021-09-02,1.0,1.0,0.0,0,False
2021-09-03,1.0,1.0,0.0,0,False
2021-09-04,1.0,1.0,0.0,0,False
2021-09-05,1.0,1.0,0.0,0,False
2021-09-06,1.0,1.0,0.0,0,False
2021-09-07,1.0,1.0,0.0,0,False
2021-09-08,1.0,1.0,0.0,0,False
2021-09-09,1.0,1.0,0.0,0,False
2021-09-10,1.0,1.0,0.0,0,False
2021-09-11,1.0,1.0,0.0,0,False
2021-09-12,1.0,1.0,0.0,0,False
2021-09-13,1.0,1.0,0.0,0,False
2021-09-14,1.0,1.0,0.0,0,False
2021-09-15,1.0,1.0,0.0,0,False
2021-09-16,1.0,1.0,0.0,0,False
2021-09-17,1.0,1.0,0.0,0,False
2021-09-18,1.0,1.0,0.0,0,False
2021-09-19,1.0,1.0,0.0,0,False
2021-09-20,1.0,1.0,0.0,0,False
2021-09-21,1.0,1.0,0.0,0,False
2021-09-22,1.0,1.0,0.0,0,False
2021-09-23,1.0,1.0,0.0,0,False
2021-09-24,1.0,1.0,0.0,0,False
2021-09-25,1.0,1.0,0.0,0,False
2021-09-26,1.0,1.0,0.0,0,False
2021-09-27,1.0,1.0,0.0,0,False
2021-09-28,1.0,1.0,0.0,0,False
2021-09-29,1.0,1.0,0.0,0,False
2021-09-30,1.0,1.0,0.0,0,False
2021-10-01,1.0,1.0,0.0,0,False
2021-10-02,1.0,1.0,0.0,0,False
2021-10-03,1.0,1.0,0.0,0,False
2021-10-04,1.0,1.0,0.0,0,False
2021-10-05,1.0,0.9993073753491394,-0.06926246508606182,1,True
2021-10-06,0.9993073753491394,1.0084778852151444,0.9176865989606986,5,True
2021-10-07,1.0084778852151444,0.9942975550949092,-1.406112154577388,2,True
2021-10-08,0.9942975550949092,0.9936231489553186,-0.0678273959475173,1,True
2021-10-09,0.9936231489553186,1.000700726417933,0.7122999771146388,4,True
2021-10-10,1.000700726417933,0.9880851896336613,-1.2606702934482517,1,True
2021-10-11,0.9880851896336613,0.9855098507706057,-0.2606393547919139,0,True
2021-10-12,0.9855098507706057,0.9855098507706057,0.0,0,False
2021-10-13,0.9855098507706057,1.0123303087182618,2.721480452649372,4,True
2021-10-14,1.0123303087182618,1.0294855603273605,1.694629851675522,1,True
2021-10-15,1.0294855603273605,1.0487833751196554,1.8745104871755958,7,True
2021-10-16,1.0487833751196554,1.050807405193374,0.1929883827046508,3,True
2021-10-17,1.050807405193374,1.050807405193374,0.0,0,False
2021-10-18,1.050807405193374,1.054632674028179,0.364031392993569,2,True
2021-10-19,1.054632674028179,1.054632674028179,0.0,0,False
2021-10-20,1.054632674028179,1.054632674028179,0.0,0,False
2021-10-21,1.054632674028179,1.054632674028179,0.0,0,False
2021-10-22,1.054632674028179,1.054632674028179,0.0,0,False
2021-10-23,1.054632674028179,1.054632674028179,0.0,0,False
2021-10-24,1.054632674028179,1.059134627877517,0.4268741107880558,1,True
2021-10-25,1.059134627877517,1.0512311792687459,-0.7462175629749379,2,True
2021-10-26,1.0512311792687459,1.0512311792687459,0.0,0,False
2021-10-27,1.0512311792687459,1.0486959007680627,-0.24117230830679182,7,True
2021-10-28,1.0486959007680627,1.0429294418882062,-0.5498694974999996,6,True
2021-10-29,1.0429294418882062,1.0390054793558092,-0.37624429561531336,3,True
2021-10-30,1.0390054793558092,1.0495567675293518,1.0155180490563298,3,True
2021-10-31,1.0495567675293518,1.0429412674272311,-0.6303137006770432,13,True
2021-11-01,1.0429412674272311,1.034538116808006,-0.8057165711693903,8,True
2021-11-02,1.034538116808006,1.060786398630072,2.537198136599672,3,True
2021-11-03,1.060786398630072,1.054862882676328,-0.5584079849999868,2,True
2021-11-04,1.054862882676328,1.0658557649981748,1.0421148096477095,7,True
2021-11-05,1.0658557649981748,1.053707255862707,-1.1397892223708794,6,True
2021-11-06,1.053707255862707,1.0522631789705486,-0.13704725711279897,2,True
2021-11-07,1.0522631789705486,1.0522631789705486,0.0,0,False
2021-11-08,1.0522631789705486,1.0522631789705486,0.0,0,False
2021-11-09,1.0522631789705486,1.0604624499282205,0.7792034465839093,2,True
2021-11-10,1.0604624499282205,1.0823191349684942,2.0610522363854633,1,True
2021-11-11,1.0823191349684942,1.0506133222983884,-2.929432885895411,7,True
2021-11-12,1.0506133222983884,1.0255033905447792,-2.3900260182002198,7,True
2021-11-13,1.0255033905447792,1.0234512676466063,-0.20010883602079588,1,True
2021-11-14,1.0234512676466063,1.0286072932749577,0.5037880934191996,2,True
2021-11-15,1.0286072932749577,1.0286072932749577,0.0,0,False
2021-11-16,1.0286072932749577,1.0399155381673044,1.0993743643740617,9,True
2021-11-17,1.0399155381673044,1.0387282669624884,-0.11416996489045372,1,True
2021-11-18,1.0387282669624884,1.0263158632537062,-1.194961579805598,4,True
2021-11-19,1.0263158632537062,1.0339488723818038,0.7437290410672315,7,True
2021-11-20,1.0339488723818038,1.044237783710238,0.9951083272360162,0,True
2021-11-21,1.044237783710238,1.0339518630352678,-0.9850170943272785,3,True
2021-11-22,1.0339518630352678,1.0130184941566107,-2.024598013412837,9,True
2021-11-23,1.0130184941566107,1.0130184941566107,0.0,0,False
2021-11-24,1.0130184941566107,0.9985088408874816,-1.4323186943599797,4,True
2021-11-25,0.9985088408874816,1.0043317647349705,0.5831619720375825,11,True
2021-11-26,1.0043317647349705,0.9784744594683468,-2.574578060213717,9,True
2021-11-27,0.9784744594683468,0.982551901813246,0.4167142336157337,7,True
2021-11-28,0.982551901813246,0.9620548280023987,-2.086105962750784,9,True
2021-11-29,0.9620548280023987,0.9607343821004728,-0.1372526662194229,2,True
2021-11-30,0.9607343821004728,0.9555321118566535,-0.5414889214691576,3,True
2021-12-01,0.9555321118566535,0.9514861913197958,-0.4234206769876403,1,True
2021-12-02,0.9514861913197958,0.9481899543980464,-0.3464303477885733,8,True
2021-12-03,0.9481899543980464,0.9373226678957085,-1.1461085884670652,3,True
2021-12-04,0.9373226678957085,0.9236608599470439,-1.4575352134964747,6,True
2021-12-05,0.9236608599470439,0.9236608599470439,0.0,0,False
2021-12-06,0.9236608599470439,0.9236608599470439,0.0,0,False
2021-12-07,0.9236608599470439,0.9236608599470439,0.0,0,False
2021-12-08,0.9236608599470439,0.9236608599470439,0.0,0,False
2021-12-09,0.9236608599470439,0.9236608599470439,0.0,0,False
2021-12-10,0.9236608599470439,0.9236608599470439,0.0,0,False
2021-12-11,0.9236608599470439,0.9236608599470439,0.0,0,False
2021-12-12,0.9236608599470439,0.9236608599470439,0.0,0,False
2021-12-13,0.9236608599470439,0.9236608599470439,0.0,0,False
2021-12-14,0.9236608599470439,0.9236608599470439,0.0,0,False
2021-12-15,0.9236608599470439,0.9236608599470439,0.0,0,False
2021-12-16,0.9236608599470439,0.9236608599470439,0.0,0,False
2021-12-17,0.9236608599470439,0.9236608599470439,0.0,0,False
2021-12-18,0.9236608599470439,0.9236608599470439,0.0,0,False
2021-12-19,0.9236608599470439,0.9236608599470439,0.0,0,False
2021-12-20,0.9236608599470439,0.9236608599470439,0.0,0,False
2021-12-21,0.9236608599470439,0.9236608599470439,0.0,0,False
2021-12-22,0.9236608599470439,0.9236608599470439,0.0,0,False
2021-12-23,0.9236608599470439,0.9236608599470439,0.0,0,False
2021-12-24,0.9236608599470439,0.9236608599470439,0.0,0,False
2021-12-25,0.9236608599470439,0.9236608599470439,0.0,0,False
2021-12-26,0.9236608599470439,0.9236608599470439,0.0,0,False
2021-12-27,0.9236608599470439,0.9236608599470439,0.0,0,False
2021-12-28,0.9236608599470439,0.9236608599470439,0.0,0,False
2021-12-29,0.9236608599470439,0.9236608599470439,0.0,0,False
2021-12-30,0.9236608599470439,0.9236608599470439,0.0,0,False
2021-12-31,0.9236608599470439,0.9236608599470439,0.0,0,False
2022-01-01,0.9236608599470439,0.9236608599470439,0.0,0,False
2022-01-02,0.9236608599470439,0.9236608599470439,0.0,0,False
2022-01-03,0.9236608599470439,0.9236608599470439,0.0,0,False
2022-01-04,0.9236608599470439,0.9236608599470439,0.0,0,False
2022-01-05,0.9236608599470439,0.9236608599470439,0.0,0,False
2022-01-06,0.9236608599470439,0.9236608599470439,0.0,0,False
2022-01-07,0.9236608599470439,0.9236608599470439,0.0,0,False
2022-01-08,0.9236608599470439,0.9236608599470439,0.0,0,False
2022-01-09,0.9236608599470439,0.9236608599470439,0.0,0,False
2022-01-10,0.9236608599470439,0.9236608599470439,0.0,0,False
2022-01-11,0.9236608599470439,0.9236608599470439,0.0,0,False
2022-01-12,0.9236608599470439,0.9236608599470439,0.0,0,False
2022-01-13,0.9236608599470439,0.9236608599470439,0.0,0,False
2022-01-14,0.9236608599470439,0.9236608599470439,0.0,0,False
2022-01-15,0.9236608599470439,0.9236608599470439,0.0,0,False
2022-01-16,0.9236608599470439,0.9236608599470439,0.0,0,False
2022-01-17,0.9236608599470439,0.9236608599470439,0.0,0,False
2022-01-18,0.9236608599470439,0.9236608599470439,0.0,0,False
2022-01-19,0.9236608599470439,0.9236608599470439,0.0,0,False
2022-01-20,0.9236608599470439,0.9236608599470439,0.0,0,False
2022-01-21,0.9236608599470439,0.9236608599470439,0.0,0,False
2022-01-22,0.9236608599470439,0.9236608599470439,0.0,0,False
2022-01-23,0.9236608599470439,0.9236608599470439,0.0,0,False
2022-01-24,0.9236608599470439,0.9236608599470439,0.0,0,False
2022-01-25,0.9236608599470439,0.9236608599470439,0.0,0,False
2022-01-26,0.9236608599470439,0.9236608599470439,0.0,0,False
2022-01-27,0.9236608599470439,0.9236608599470439,0.0,0,False
2022-01-28,0.9236608599470439,0.9236608599470439,0.0,0,False
2022-01-29,0.9236608599470439,0.9236608599470439,0.0,0,False
2022-01-30,0.9236608599470439,0.9236608599470439,0.0,0,False
2022-01-31,0.9236608599470439,0.9236608599470439,0.0,0,False
2022-02-01,0.9236608599470439,0.9236608599470439,0.0,0,False
2022-02-02,0.9236608599470439,0.9236608599470439,0.0,0,False
2022-02-03,0.9236608599470439,0.9236608599470439,0.0,0,False
2022-02-04,0.9236608599470439,0.9236608599470439,0.0,0,False
2022-02-05,0.9236608599470439,0.9236608599470439,0.0,0,False
2022-02-06,0.9236608599470439,0.9236608599470439,0.0,0,False
2022-02-07,0.9236608599470439,0.9236608599470439,0.0,0,False
2022-02-08,0.9236608599470439,0.9236608599470439,0.0,0,False
2022-02-09,0.9236608599470439,0.9236608599470439,0.0,0,False
2022-02-10,0.9236608599470439,0.9236608599470439,0.0,0,False
2022-02-11,0.9236608599470439,0.9236608599470439,0.0,0,False
2022-02-12,0.9236608599470439,0.9236608599470439,0.0,0,False
2022-02-13,0.9236608599470439,0.9236608599470439,0.0,0,False
2022-02-14,0.9236608599470439,0.9236608599470439,0.0,0,False
2022-02-15,0.9236608599470439,0.9236608599470439,0.0,0,False
2022-02-16,0.9236608599470439,0.9236608599470439,0.0,0,False
2022-02-17,0.9236608599470439,0.9236608599470439,0.0,0,False
2022-02-18,0.9236608599470439,0.9236608599470439,0.0,0,False
2022-02-19,0.9236608599470439,0.9236608599470439,0.0,0,False
2022-02-20,0.9236608599470439,0.9236608599470439,0.0,0,False
2022-02-21,0.9236608599470439,0.9236608599470439,0.0,0,False
2022-02-22,0.9236608599470439,0.9236608599470439,0.0,0,False
2022-02-23,0.9236608599470439,0.9236608599470439,0.0,0,False
2022-02-24,0.9236608599470439,0.9236608599470439,0.0,0,False
2022-02-25,0.9236608599470439,0.9236608599470439,0.0,0,False
2022-02-26,0.9236608599470439,0.9236608599470439,0.0,0,False
2022-02-27,0.9236608599470439,0.9236608599470439,0.0,0,False
2022-02-28,0.9236608599470439,0.9236608599470439,0.0,0,False
2022-03-01,0.9236608599470439,0.9236608599470439,0.0,0,False
2022-03-02,0.9236608599470439,0.9236608599470439,0.0,0,False
2022-03-03,0.9236608599470439,0.9236608599470439,0.0,0,False
2022-03-04,0.9236608599470439,0.9236608599470439,0.0,0,False
2022-03-05,0.9236608599470439,0.9236608599470439,0.0,0,False
2022-03-06,0.9236608599470439,0.9236608599470439,0.0,0,False
2022-03-07,0.9236608599470439,0.9236608599470439,0.0,0,False
2022-03-08,0.9236608599470439,0.9236608599470439,0.0,0,False
2022-03-09,0.9236608599470439,0.9236608599470439,0.0,0,False
2022-03-10,0.9236608599470439,0.9236608599470439,0.0,0,False
2022-03-11,0.9236608599470439,0.9236608599470439,0.0,0,False
2022-03-12,0.9236608599470439,0.9236608599470439,0.0,0,False
2022-03-13,0.9236608599470439,0.9236608599470439,0.0,0,False
2022-03-14,0.9236608599470439,0.9236608599470439,0.0,0,False
2022-03-15,0.9236608599470439,0.9236608599470439,0.0,0,False
2022-03-16,0.9236608599470439,0.9236608599470439,0.0,0,False
2022-03-17,0.9236608599470439,0.9236608599470439,0.0,0,False
2022-03-18,0.9236608599470439,0.9236608599470439,0.0,0,False
2022-03-19,0.9236608599470439,0.9236608599470439,0.0,0,False
2022-03-20,0.9236608599470439,0.9236608599470439,0.0,0,False
2022-03-21,0.9236608599470439,0.9236608599470439,0.0,0,False
2022-03-22,0.9236608599470439,0.9236608599470439,0.0,0,False
2022-03-23,0.9236608599470439,0.9236608599470439,0.0,0,False
2022-03-24,0.9236608599470439,0.9236608599470439,0.0,0,False
2022-03-25,0.9236608599470439,0.9236608599470439,0.0,0,False
2022-03-26,0.9236608599470439,0.9236608599470439,0.0,0,False
2022-03-27,0.9236608599470439,0.9236608599470439,0.0,0,False
2022-03-28,0.9236608599470439,0.9236608599470439,0.0,0,False
2022-03-29,0.9236608599470439,0.9236608599470439,0.0,0,False
2022-03-30,0.9236608599470439,0.9236608599470439,0.0,0,False
2022-03-31,0.9236608599470439,0.9236608599470439,0.0,0,False
2022-04-01,0.9236608599470439,0.9236608599470439,0.0,0,False
2022-04-02,0.9236608599470439,0.9236608599470439,0.0,0,False
2022-04-03,0.9236608599470439,0.9236608599470439,0.0,0,False
2022-04-04,0.9236608599470439,0.9236608599470439,0.0,0,False
2022-04-05,0.9236608599470439,0.9236608599470439,0.0,0,False
2022-04-06,0.9236608599470439,0.9236608599470439,0.0,0,False
2022-04-07,0.9236608599470439,0.9236608599470439,0.0,0,False
2022-04-08,0.9236608599470439,0.9236608599470439,0.0,0,False
2022-04-09,0.9236608599470439,0.9236608599470439,0.0,0,False
2022-04-10,0.9236608599470439,0.9236608599470439,0.0,0,False
2022-04-11,0.9236608599470439,0.9236608599470439,0.0,0,False
2022-04-12,0.9236608599470439,0.9236608599470439,0.0,0,False
2022-04-13,0.9236608599470439,0.9236608599470439,0.0,0,False
2022-04-14,0.9236608599470439,0.9236608599470439,0.0,0,False
2022-04-15,0.9236608599470439,0.9236608599470439,0.0,0,False
2022-04-16,0.9236608599470439,0.9236608599470439,0.0,0,False
2022-04-17,0.9236608599470439,0.9236608599470439,0.0,0,False
2022-04-18,0.9236608599470439,0.9236608599470439,0.0,0,False
2022-04-19,0.9236608599470439,0.9236608599470439,0.0,0,False
2022-04-20,0.9236608599470439,0.9236608599470439,0.0,0,False
2022-04-21,0.9236608599470439,0.9236608599470439,0.0,0,False
2022-04-22,0.9236608599470439,0.9236608599470439,0.0,0,False
2022-04-23,0.9236608599470439,0.9236608599470439,0.0,0,False
2022-04-24,0.9236608599470439,0.9236608599470439,0.0,0,False
2022-04-25,0.9236608599470439,0.9236608599470439,0.0,0,False
2022-04-26,0.9236608599470439,0.9236608599470439,0.0,0,False
2022-04-27,0.9236608599470439,0.9236608599470439,0.0,0,False
2022-04-28,0.9236608599470439,0.9236608599470439,0.0,0,False
2022-04-29,0.9236608599470439,0.9236608599470439,0.0,0,False
2022-04-30,0.9236608599470439,0.9236608599470439,0.0,0,False
2022-05-01,0.9236608599470439,0.9236608599470439,0.0,0,False
2022-05-02,0.9236608599470439,0.9236608599470439,0.0,0,False
2022-05-03,0.9236608599470439,0.9236608599470439,0.0,0,False
2022-05-04,0.9236608599470439,0.9236608599470439,0.0,0,False
2022-05-05,0.9236608599470439,0.9236608599470439,0.0,0,False
2022-05-06,0.9236608599470439,0.9236608599470439,0.0,0,False
2022-05-07,0.9236608599470439,0.9236608599470439,0.0,0,False
2022-05-08,0.9236608599470439,0.9236608599470439,0.0,0,False
2022-05-09,0.9236608599470439,0.9236608599470439,0.0,0,False
2022-05-10,0.9236608599470439,0.9236608599470439,0.0,0,False
2022-05-11,0.9236608599470439,0.9236608599470439,0.0,0,False
2022-05-12,0.9236608599470439,0.9236608599470439,0.0,0,False
2022-05-13,0.9236608599470439,0.9236608599470439,0.0,0,False
2022-05-14,0.9236608599470439,0.9236608599470439,0.0,0,False
2022-05-15,0.9236608599470439,0.9236608599470439,0.0,0,False
2022-05-16,0.9236608599470439,0.9236608599470439,0.0,0,False
2022-05-17,0.9236608599470439,0.9236608599470439,0.0,0,False
2022-05-18,0.9236608599470439,0.9236608599470439,0.0,0,False
2022-05-19,0.9236608599470439,0.9236608599470439,0.0,0,False
2022-05-20,0.9236608599470439,0.9236608599470439,0.0,0,False
2022-05-21,0.9236608599470439,0.9236608599470439,0.0,0,False
2022-05-22,0.9236608599470439,0.9236608599470439,0.0,0,False
2022-05-23,0.9236608599470439,0.9236608599470439,0.0,0,False
2022-05-24,0.9236608599470439,0.9236608599470439,0.0,0,False
2022-05-25,0.9236608599470439,0.9236608599470439,0.0,0,False
2022-05-26,0.9236608599470439,0.9236608599470439,0.0,0,False
2022-05-27,0.9236608599470439,0.9236608599470439,0.0,0,False
2022-05-28,0.9236608599470439,0.9236608599470439,0.0,0,False
2022-05-29,0.9236608599470439,0.9236608599470439,0.0,0,False
2022-05-30,0.9236608599470439,0.9236608599470439,0.0,0,False
2022-05-31,0.9236608599470439,0.9236608599470439,0.0,0,False
2022-06-01,0.9236608599470439,0.9236608599470439,0.0,0,False
2022-06-02,0.9236608599470439,0.9236608599470439,0.0,0,False
2022-06-03,0.9236608599470439,0.9236608599470439,0.0,0,False
2022-06-04,0.9236608599470439,0.9236608599470439,0.0,0,False
2022-06-05,0.9236608599470439,0.9236608599470439,0.0,0,False
2022-06-06,0.9236608599470439,0.9236608599470439,0.0,0,False
2022-06-07,0.9236608599470439,0.9236608599470439,0.0,0,False
2022-06-08,0.9236608599470439,0.9236608599470439,0.0,0,False
2022-06-09,0.9236608599470439,0.9236608599470439,0.0,0,False
2022-06-10,0.9236608599470439,0.9236608599470439,0.0,0,False
2022-06-11,0.9236608599470439,0.9236608599470439,0.0,0,False
2022-06-12,0.9236608599470439,0.9236608599470439,0.0,0,False
2022-06-13,0.9236608599470439,0.9236608599470439,0.0,0,False
2022-06-14,0.9236608599470439,0.9236608599470439,0.0,0,False
2022-06-15,0.9236608599470439,0.9236608599470439,0.0,0,False
2022-06-16,0.9236608599470439,0.9236608599470439,0.0,0,False
2022-06-17,0.9236608599470439,0.9236608599470439,0.0,0,False
2022-06-18,0.9236608599470439,0.9236608599470439,0.0,0,False
2022-06-19,0.9236608599470439,0.9236608599470439,0.0,0,False
2022-06-20,0.9236608599470439,0.9236608599470439,0.0,0,False
2022-06-21,0.9236608599470439,0.9236608599470439,0.0,0,False
2022-06-22,0.9236608599470439,0.9236608599470439,0.0,0,False
2022-06-23,0.9236608599470439,0.9236608599470439,0.0,0,False
2022-06-24,0.9236608599470439,0.9236608599470439,0.0,0,False
2022-06-25,0.9236608599470439,0.9236608599470439,0.0,0,False
2022-06-26,0.9236608599470439,0.9236608599470439,0.0,0,False
2022-06-27,0.9236608599470439,0.9236608599470439,0.0,0,False
2022-06-28,0.9236608599470439,0.9236608599470439,0.0,0,False
2022-06-29,0.9236608599470439,0.9236608599470439,0.0,0,False
2022-06-30,0.9236608599470439,0.9236608599470439,0.0,0,False
2022-07-01,0.9236608599470439,0.9236608599470439,0.0,0,False
2022-07-02,0.9236608599470439,0.9236608599470439,0.0,0,False
2022-07-03,0.9236608599470439,0.9236608599470439,0.0,0,False
2022-07-04,0.9236608599470439,0.9236608599470439,0.0,0,False
2022-07-05,0.9236608599470439,0.9236608599470439,0.0,0,False
2022-07-06,0.9236608599470439,0.9236608599470439,0.0,0,False
2022-07-07,0.9236608599470439,0.9236608599470439,0.0,0,False
2022-07-08,0.9236608599470439,0.9236608599470439,0.0,0,False
2022-07-09,0.9236608599470439,0.9236608599470439,0.0,0,False
2022-07-10,0.9236608599470439,0.9236608599470439,0.0,0,False
2022-07-11,0.9236608599470439,0.9236608599470439,0.0,0,False
2022-07-12,0.9236608599470439,0.9236608599470439,0.0,0,False
2022-07-13,0.9236608599470439,0.9236608599470439,0.0,0,False
2022-07-14,0.9236608599470439,0.9236608599470439,0.0,0,False
2022-07-15,0.9236608599470439,0.9236608599470439,0.0,0,False
2022-07-16,0.9236608599470439,0.9236608599470439,0.0,0,False
2022-07-17,0.9236608599470439,0.9236608599470439,0.0,0,False
2022-07-18,0.9236608599470439,0.9236608599470439,0.0,0,False
2022-07-19,0.9236608599470439,0.9236608599470439,0.0,0,False
2022-07-20,0.9236608599470439,0.9236608599470439,0.0,0,False
2022-07-21,0.9236608599470439,0.9236608599470439,0.0,0,False
2022-07-22,0.9236608599470439,0.9236608599470439,0.0,0,False
2022-07-23,0.9236608599470439,0.9236608599470439,0.0,0,False
2022-07-24,0.9236608599470439,0.9236608599470439,0.0,0,False
2022-07-25,0.9236608599470439,0.9236608599470439,0.0,0,False
2022-07-26,0.9236608599470439,0.9236608599470439,0.0,0,False
2022-07-27,0.9236608599470439,0.9236608599470439,0.0,0,False
2022-07-28,0.9236608599470439,0.9236608599470439,0.0,0,False
2022-07-29,0.9236608599470439,0.9236608599470439,0.0,0,False
2022-07-30,0.9236608599470439,0.9236608599470439,0.0,0,False
2022-07-31,0.9236608599470439,0.9236608599470439,0.0,0,False
2022-08-01,0.9236608599470439,0.9236608599470439,0.0,0,False
2022-08-02,0.9236608599470439,0.9236608599470439,0.0,0,False
2022-08-03,0.9236608599470439,0.9236608599470439,0.0,0,False
2022-08-04,0.9236608599470439,0.9236608599470439,0.0,0,False
2022-08-05,0.9236608599470439,0.9236608599470439,0.0,0,False
2022-08-06,0.9236608599470439,0.9236608599470439,0.0,0,False
2022-08-07,0.9236608599470439,0.9236608599470439,0.0,0,False
2022-08-08,0.9236608599470439,0.9236608599470439,0.0,0,False
2022-08-09,0.9236608599470439,0.9236608599470439,0.0,0,False
2022-08-10,0.9236608599470439,0.9236608599470439,0.0,0,False
2022-08-11,0.9236608599470439,0.9236608599470439,0.0,0,False
2022-08-12,0.9236608599470439,0.9236608599470439,0.0,0,False
2022-08-13,0.9236608599470439,0.9236608599470439,0.0,0,False
2022-08-14,0.9236608599470439,0.9236608599470439,0.0,0,False
2022-08-15,0.9236608599470439,0.9236608599470439,0.0,0,False
2022-08-16,0.9236608599470439,0.9236608599470439,0.0,0,False
2022-08-17,0.9236608599470439,0.9236608599470439,0.0,0,False
2022-08-18,0.9236608599470439,0.9236608599470439,0.0,0,False
2022-08-19,0.9236608599470439,0.9236608599470439,0.0,0,False
2022-08-20,0.9236608599470439,0.9236608599470439,0.0,0,False
2022-08-21,0.9236608599470439,0.9236608599470439,0.0,0,False
2022-08-22,0.9236608599470439,0.9236608599470439,0.0,0,False
2022-08-23,0.9236608599470439,0.9236608599470439,0.0,0,False
2022-08-24,0.9236608599470439,0.9236608599470439,0.0,0,False
2022-08-25,0.9236608599470439,0.9236608599470439,0.0,0,False
2022-08-26,0.9236608599470439,0.9236608599470439,0.0,0,False
2022-08-27,0.9236608599470439,0.9236608599470439,0.0,0,False
2022-08-28,0.9236608599470439,0.9236608599470439,0.0,0,False
2022-08-29,0.9236608599470439,0.9236608599470439,0.0,0,False
2022-08-30,0.9236608599470439,0.9236608599470439,0.0,0,False
2022-08-31,0.9236608599470439,0.9236608599470439,0.0,0,False
2022-09-01,0.9236608599470439,0.9236608599470439,0.0,0,False
2022-09-02,0.9236608599470439,0.9236608599470439,0.0,0,False
2022-09-03,0.9236608599470439,0.9236608599470439,0.0,0,False
2022-09-04,0.9236608599470439,0.9236608599470439,0.0,0,False
2022-09-05,0.9236608599470439,0.9236608599470439,0.0,0,False
2022-09-06,0.9236608599470439,0.9236608599470439,0.0,0,False
2022-09-07,0.9236608599470439,0.9236608599470439,0.0,0,False
2022-09-08,0.9236608599470439,0.9236608599470439,0.0,0,False
2022-09-09,0.9236608599470439,0.9236608599470439,0.0,0,False
2022-09-10,0.9236608599470439,0.9236608599470439,0.0,0,False
2022-09-11,0.9236608599470439,0.9236608599470439,0.0,0,False
2022-09-12,0.9236608599470439,0.9236608599470439,0.0,0,False
2022-09-13,0.9236608599470439,0.9236608599470439,0.0,0,False
2022-09-14,0.9236608599470439,0.9236608599470439,0.0,0,False
2022-09-15,0.9236608599470439,0.9236608599470439,0.0,0,False
2022-09-16,0.9236608599470439,0.9236608599470439,0.0,0,False
2022-09-17,0.9236608599470439,0.9236608599470439,0.0,0,False
2022-09-18,0.9236608599470439,0.9236608599470439,0.0,0,False
2022-09-19,0.9236608599470439,0.9236608599470439,0.0,0,False
2022-09-20,0.9236608599470439,0.9236608599470439,0.0,0,False
2022-09-21,0.9236608599470439,0.9236608599470439,0.0,0,False
2022-09-22,0.9236608599470439,0.9236608599470439,0.0,0,False
2022-09-23,0.9236608599470439,0.9236608599470439,0.0,0,False
2022-09-24,0.9236608599470439,0.9236608599470439,0.0,0,False
2022-09-25,0.9236608599470439,0.9236608599470439,0.0,0,False
2022-09-26,0.9236608599470439,0.9236608599470439,0.0,0,False
2022-09-27,0.9236608599470439,0.9236608599470439,0.0,0,False
2022-09-28,0.9236608599470439,0.9236608599470439,0.0,0,False
2022-09-29,0.9236608599470439,0.9236608599470439,0.0,0,False
2022-09-30,0.9236608599470439,0.9236608599470439,0.0,0,False
2022-10-01,0.9236608599470439,0.9236608599470439,0.0,0,False
2022-10-02,0.9236608599470439,0.9236608599470439,0.0,0,False
2022-10-03,0.9236608599470439,0.9236608599470439,0.0,0,False
2022-10-04,0.9236608599470439,0.9236608599470439,0.0,0,False
2022-10-05,0.9236608599470439,0.9236608599470439,0.0,0,False
2022-10-06,0.9236608599470439,0.9236608599470439,0.0,0,False
2022-10-07,0.9236608599470439,0.9236608599470439,0.0,0,False
2022-10-08,0.9236608599470439,0.9236608599470439,0.0,0,False
2022-10-09,0.9236608599470439,0.9236608599470439,0.0,0,False
2022-10-10,0.9236608599470439,0.9236608599470439,0.0,0,False
2022-10-11,0.9236608599470439,0.9236608599470439,0.0,0,False
2022-10-12,0.9236608599470439,0.9236608599470439,0.0,0,False
2022-10-13,0.9236608599470439,0.9236608599470439,0.0,0,False
2022-10-14,0.9236608599470439,0.9236608599470439,0.0,0,False
2022-10-15,0.9236608599470439,0.9236608599470439,0.0,0,False
2022-10-16,0.9236608599470439,0.9236608599470439,0.0,0,False
2022-10-17,0.9236608599470439,0.9236608599470439,0.0,0,False
2022-10-18,0.9236608599470439,0.9236608599470439,0.0,0,False
2022-10-19,0.9236608599470439,0.9236608599470439,0.0,0,False
2022-10-20,0.9236608599470439,0.9236608599470439,0.0,0,False
2022-10-21,0.9236608599470439,0.9236608599470439,0.0,0,False
2022-10-22,0.9236608599470439,0.9236608599470439,0.0,0,False
2022-10-23,0.9236608599470439,0.9236608599470439,0.0,0,False
2022-10-24,0.9236608599470439,0.9236608599470439,0.0,0,False
2022-10-25,0.9236608599470439,0.9236608599470439,0.0,0,False
2022-10-26,0.9236608599470439,0.9236608599470439,0.0,0,False
2022-10-27,0.9236608599470439,0.9236608599470439,0.0,0,False
2022-10-28,0.9236608599470439,0.9236608599470439,0.0,0,False
2022-10-29,0.9236608599470439,0.9236608599470439,0.0,0,False
2022-10-30,0.9236608599470439,0.9236608599470439,0.0,0,False
2022-10-31,0.9236608599470439,0.9236608599470439,0.0,0,False
2022-11-01,0.9236608599470439,0.9236608599470439,0.0,0,False
2022-11-02,0.9236608599470439,0.9236608599470439,0.0,0,False
2022-11-03,0.9236608599470439,0.9236608599470439,0.0,0,False
2022-11-04,0.9236608599470439,0.9236608599470439,0.0,0,False
2022-11-05,0.9236608599470439,0.9236608599470439,0.0,0,False
2022-11-06,0.9236608599470439,0.9236608599470439,0.0,0,False
2022-11-07,0.9236608599470439,0.9236608599470439,0.0,0,False
2022-11-08,0.9236608599470439,0.9236608599470439,0.0,0,False
2022-11-09,0.9236608599470439,0.9236608599470439,0.0,0,False
2022-11-10,0.9236608599470439,0.9236608599470439,0.0,0,False
2022-11-11,0.9236608599470439,0.9236608599470439,0.0,0,False
2022-11-12,0.9236608599470439,0.9236608599470439,0.0,0,False
2022-11-13,0.9236608599470439,0.9236608599470439,0.0,0,False
2022-11-14,0.9236608599470439,0.9236608599470439,0.0,0,False
2022-11-15,0.9236608599470439,0.9236608599470439,0.0,0,False
2022-11-16,0.9236608599470439,0.9236608599470439,0.0,0,False
2022-11-17,0.9236608599470439,0.9236608599470439,0.0,0,False
2022-11-18,0.9236608599470439,0.9236608599470439,0.0,0,False
2022-11-19,0.9236608599470439,0.9236608599470439,0.0,0,False
2022-11-20,0.9236608599470439,0.9236608599470439,0.0,0,False
2022-11-21,0.9236608599470439,0.9236608599470439,0.0,0,False
2022-11-22,0.9236608599470439,0.9236608599470439,0.0,0,False
2022-11-23,0.9236608599470439,0.9236608599470439,0.0,0,False
2022-11-24,0.9236608599470439,0.9236608599470439,0.0,0,False
2022-11-25,0.9236608599470439,0.9236608599470439,0.0,0,False
2022-11-26,0.9236608599470439,0.9236608599470439,0.0,0,False
2022-11-27,0.9236608599470439,0.9236608599470439,0.0,0,False
2022-11-28,0.9236608599470439,0.9236608599470439,0.0,0,False
2022-11-29,0.9236608599470439,0.9236608599470439,0.0,0,False
2022-11-30,0.9236608599470439,0.9236608599470439,0.0,0,False
2022-12-01,0.9236608599470439,0.9236608599470439,0.0,0,False
2022-12-02,0.9236608599470439,0.9236608599470439,0.0,0,False
2022-12-03,0.9236608599470439,0.9236608599470439,0.0,0,False
2022-12-04,0.9236608599470439,0.9236608599470439,0.0,0,False
2022-12-05,0.9236608599470439,0.9236608599470439,0.0,0,False
2022-12-06,0.9236608599470439,0.9236608599470439,0.0,0,False
2022-12-07,0.9236608599470439,0.9236608599470439,0.0,0,False
2022-12-08,0.9236608599470439,0.9236608599470439,0.0,0,False
2022-12-09,0.9236608599470439,0.9236608599470439,0.0,0,False
2022-12-10,0.9236608599470439,0.9236608599470439,0.0,0,False
2022-12-11,0.9236608599470439,0.9236608599470439,0.0,0,False
2022-12-12,0.9236608599470439,0.9236608599470439,0.0,0,False
2022-12-13,0.9236608599470439,0.9236608599470439,0.0,0,False
2022-12-14,0.9236608599470439,0.9236608599470439,0.0,0,False
2022-12-15,0.9236608599470439,0.9236608599470439,0.0,0,False
2022-12-16,0.9236608599470439,0.9236608599470439,0.0,0,False
2022-12-17,0.9236608599470439,0.9236608599470439,0.0,0,False
2022-12-18,0.9236608599470439,0.9236608599470439,0.0,0,False
2022-12-19,0.9236608599470439,0.9236608599470439,0.0,0,False
2022-12-20,0.9236608599470439,0.9236608599470439,0.0,0,False
2022-12-21,0.9236608599470439,0.9236608599470439,0.0,0,False
2022-12-22,0.9236608599470439,0.9236608599470439,0.0,0,False
2022-12-23,0.9236608599470439,0.9236608599470439,0.0,0,False
2022-12-24,0.9236608599470439,0.9236608599470439,0.0,0,False
2022-12-25,0.9236608599470439,0.9236608599470439,0.0,0,False
2022-12-26,0.9236608599470439,0.9236608599470439,0.0,0,False
2022-12-27,0.9236608599470439,0.9236608599470439,0.0,0,False
2022-12-28,0.9236608599470439,0.9236608599470439,0.0,0,False
2022-12-29,0.9236608599470439,0.9236608599470439,0.0,0,False
2022-12-30,0.9236608599470439,0.9236608599470439,0.0,0,False
2022-12-31,0.9236608599470439,0.9236608599470439,0.0,0,False
2023-01-01,0.9236608599470439,0.9236608599470439,0.0,0,False
2023-01-02,0.9236608599470439,0.9236608599470439,0.0,0,False
2023-01-03,0.9236608599470439,0.9236608599470439,0.0,0,False
2023-01-04,0.9236608599470439,0.9236608599470439,0.0,0,False
2023-01-05,0.9236608599470439,0.9236608599470439,0.0,0,False
2023-01-06,0.9236608599470439,0.9236608599470439,0.0,0,False
2023-01-07,0.9236608599470439,0.9236608599470439,0.0,0,False
2023-01-08,0.9236608599470439,0.9236608599470439,0.0,0,False
2023-01-09,0.9236608599470439,0.9236608599470439,0.0,0,False
2023-01-10,0.9236608599470439,0.9236608599470439,0.0,0,False
2023-01-11,0.9236608599470439,0.9236608599470439,0.0,0,False
2023-01-12,0.9236608599470439,0.9236608599470439,0.0,0,False
2023-01-13,0.9236608599470439,0.9236608599470439,0.0,0,False
2023-01-14,0.9236608599470439,0.9236608599470439,0.0,0,False
2023-01-15,0.9236608599470439,0.9236608599470439,0.0,0,False
2023-01-16,0.9236608599470439,0.9236608599470439,0.0,0,False
2023-01-17,0.9236608599470439,0.9236608599470439,0.0,0,False
2023-01-18,0.9236608599470439,0.9236608599470439,0.0,0,False
2023-01-19,0.9236608599470439,0.9236608599470439,0.0,0,False
2023-01-20,0.9236608599470439,0.9236608599470439,0.0,0,False
2023-01-21,0.9236608599470439,0.9236608599470439,0.0,0,False
2023-01-22,0.9236608599470439,0.9236608599470439,0.0,0,False
2023-01-23,0.9236608599470439,0.9236608599470439,0.0,0,False
2023-01-24,0.9236608599470439,0.9236608599470439,0.0,0,False
2023-01-25,0.9236608599470439,0.9236608599470439,0.0,0,False
2023-01-26,0.9236608599470439,0.9236608599470439,0.0,0,False
2023-01-27,0.9236608599470439,0.9236608599470439,0.0,0,False
2023-01-28,0.9236608599470439,0.9236608599470439,0.0,0,False
2023-01-29,0.9236608599470439,0.9236608599470439,0.0,0,False
2023-01-30,0.9236608599470439,0.9236608599470439,0.0,0,False
2023-01-31,0.9236608599470439,0.9236608599470439,0.0,0,False
2023-02-01,0.9236608599470439,0.9236608599470439,0.0,0,False
2023-02-02,0.9236608599470439,0.9236608599470439,0.0,0,False
2023-02-03,0.9236608599470439,0.9236608599470439,0.0,0,False
2023-02-04,0.9236608599470439,0.9236608599470439,0.0,0,False
2023-02-05,0.9236608599470439,0.9236608599470439,0.0,0,False
2023-02-06,0.9236608599470439,0.9236608599470439,0.0,0,False
2023-02-07,0.9236608599470439,0.9236608599470439,0.0,0,False
2023-02-08,0.9236608599470439,0.9236608599470439,0.0,0,False
2023-02-09,0.9236608599470439,0.9236608599470439,0.0,0,False
2023-02-10,0.9236608599470439,0.9236608599470439,0.0,0,False
2023-02-11,0.9236608599470439,0.9236608599470439,0.0,0,False
2023-02-12,0.9236608599470439,0.9236608599470439,0.0,0,False
2023-02-13,0.9236608599470439,0.9236608599470439,0.0,0,False
2023-02-14,0.9236608599470439,0.9236608599470439,0.0,0,False
2023-02-15,0.9236608599470439,0.9236608599470439,0.0,0,False
2023-02-16,0.9236608599470439,0.9236608599470439,0.0,0,False
2023-02-17,0.9236608599470439,0.9236608599470439,0.0,0,False
2023-02-18,0.9236608599470439,0.9236608599470439,0.0,0,False
2023-02-19,0.9236608599470439,0.9236608599470439,0.0,0,False
2023-02-20,0.9236608599470439,0.9236608599470439,0.0,0,False
2023-02-21,0.9236608599470439,0.9236608599470439,0.0,0,False
2023-02-22,0.9236608599470439,0.9236608599470439,0.0,0,False
2023-02-23,0.9236608599470439,0.9236608599470439,0.0,0,False
2023-02-24,0.9236608599470439,0.9236608599470439,0.0,0,False
2023-02-25,0.9236608599470439,0.9236608599470439,0.0,0,False
2023-02-26,0.9236608599470439,0.9236608599470439,0.0,0,False
2023-02-27,0.9236608599470439,0.9236608599470439,0.0,0,False
2023-02-28,0.9236608599470439,0.9236608599470439,0.0,0,False
2023-03-01,0.9236608599470439,0.9236608599470439,0.0,0,False
2023-03-02,0.9236608599470439,0.9236608599470439,0.0,0,False
2023-03-03,0.9236608599470439,0.9236608599470439,0.0,0,False
2023-03-04,0.9236608599470439,0.9236608599470439,0.0,0,False
2023-03-05,0.9236608599470439,0.9236608599470439,0.0,0,False
2023-03-06,0.9236608599470439,0.9236608599470439,0.0,0,False
2023-03-07,0.9236608599470439,0.9236608599470439,0.0,0,False
2023-03-08,0.9236608599470439,0.9236608599470439,0.0,0,False
2023-03-09,0.9236608599470439,0.9236608599470439,0.0,0,False
2023-03-10,0.9236608599470439,0.9236608599470439,0.0,0,False
2023-03-11,0.9236608599470439,0.9236608599470439,0.0,0,False
2023-03-12,0.9236608599470439,0.9236608599470439,0.0,0,False
2023-03-13,0.9236608599470439,0.9236608599470439,0.0,0,False
2023-03-14,0.9236608599470439,0.9236608599470439,0.0,0,False
2023-03-15,0.9236608599470439,0.9236608599470439,0.0,0,False
2023-03-16,0.9236608599470439,0.9236608599470439,0.0,0,False
2023-03-17,0.9236608599470439,0.9236608599470439,0.0,0,False
2023-03-18,0.9236608599470439,0.9236608599470439,0.0,0,False
2023-03-19,0.9236608599470439,0.9236608599470439,0.0,0,False
2023-03-20,0.9236608599470439,0.9236608599470439,0.0,0,False
2023-03-21,0.9236608599470439,0.9236608599470439,0.0,0,False
2023-03-22,0.9236608599470439,0.9236608599470439,0.0,0,False
2023-03-23,0.9236608599470439,0.9236608599470439,0.0,0,False
2023-03-24,0.9236608599470439,0.9236608599470439,0.0,0,False
2023-03-25,0.9236608599470439,0.9236608599470439,0.0,0,False
2023-03-26,0.9236608599470439,0.9236608599470439,0.0,0,False
2023-03-27,0.9236608599470439,0.9236608599470439,0.0,0,False
2023-03-28,0.9236608599470439,0.9236608599470439,0.0,0,False
2023-03-29,0.9236608599470439,0.9236608599470439,0.0,0,False
2023-03-30,0.9236608599470439,0.9236608599470439,0.0,0,False
2023-03-31,0.9236608599470439,0.9236608599470439,0.0,0,False
2023-04-01,0.9236608599470439,0.9236608599470439,0.0,0,False
2023-04-02,0.9236608599470439,0.9236608599470439,0.0,0,False
2023-04-03,0.9236608599470439,0.9236608599470439,0.0,0,False
2023-04-04,0.9236608599470439,0.9236608599470439,0.0,0,False
2023-04-05,0.9236608599470439,0.9236608599470439,0.0,0,False
2023-04-06,0.9236608599470439,0.9236608599470439,0.0,0,False
2023-04-07,0.9236608599470439,0.9236608599470439,0.0,0,False
2023-04-08,0.9236608599470439,0.9236608599470439,0.0,0,False
2023-04-09,0.9236608599470439,0.9236608599470439,0.0,0,False
2023-04-10,0.9236608599470439,0.9236608599470439,0.0,0,False
2023-04-11,0.9236608599470439,0.9236608599470439,0.0,0,False
2023-04-12,0.9236608599470439,0.9236608599470439,0.0,0,False
2023-04-13,0.9236608599470439,0.9236608599470439,0.0,0,False
2023-04-14,0.9236608599470439,0.9236608599470439,0.0,0,False
2023-04-15,0.9236608599470439,0.9236608599470439,0.0,0,False
2023-04-16,0.9236608599470439,0.9236608599470439,0.0,0,False
2023-04-17,0.9236608599470439,0.9236608599470439,0.0,0,False
2023-04-18,0.9236608599470439,0.9236608599470439,0.0,0,False
2023-04-19,0.9236608599470439,0.9236608599470439,0.0,0,False
2023-04-20,0.9236608599470439,0.9236608599470439,0.0,0,False
2023-04-21,0.9236608599470439,0.9236608599470439,0.0,0,False
2023-04-22,0.9236608599470439,0.9236608599470439,0.0,0,False
2023-04-23,0.9236608599470439,0.9236608599470439,0.0,0,False
2023-04-24,0.9236608599470439,0.9236608599470439,0.0,0,False
2023-04-25,0.9236608599470439,0.9236608599470439,0.0,0,False
2023-04-26,0.9236608599470439,0.9236608599470439,0.0,0,False
2023-04-27,0.9236608599470439,0.9236608599470439,0.0,0,False
2023-04-28,0.9236608599470439,0.9236608599470439,0.0,0,False
2023-04-29,0.9236608599470439,0.9236608599470439,0.0,0,False
2023-04-30,0.9236608599470439,0.9236608599470439,0.0,0,False
2023-05-01,0.9236608599470439,0.9236608599470439,0.0,0,False
2023-05-02,0.9236608599470439,0.9236608599470439,0.0,0,False
2023-05-03,0.9236608599470439,0.9236608599470439,0.0,0,False
2023-05-04,0.9236608599470439,0.9236608599470439,0.0,0,False
2023-05-05,0.9236608599470439,0.9236608599470439,0.0,0,False
2023-05-06,0.9236608599470439,0.9236608599470439,0.0,0,False
2023-05-07,0.9236608599470439,0.9236608599470439,0.0,0,False
2023-05-08,0.9236608599470439,0.9236608599470439,0.0,0,False
2023-05-09,0.9236608599470439,0.9236608599470439,0.0,0,False
2023-05-10,0.9236608599470439,0.9236608599470439,0.0,0,False
2023-05-11,0.9236608599470439,0.9236608599470439,0.0,0,False
2023-05-12,0.9236608599470439,0.9236608599470439,0.0,0,False
2023-05-13,0.9236608599470439,0.9236608599470439,0.0,0,False
2023-05-14,0.9236608599470439,0.9236608599470439,0.0,0,False
2023-05-15,0.9236608599470439,0.9236608599470439,0.0,0,False
2023-05-16,0.9236608599470439,0.9236608599470439,0.0,0,False
2023-05-17,0.9236608599470439,0.9236608599470439,0.0,0,False
2023-05-18,0.9236608599470439,0.9236608599470439,0.0,0,False
2023-05-19,0.9236608599470439,0.9236608599470439,0.0,0,False
2023-05-20,0.9236608599470439,0.9236608599470439,0.0,0,False
2023-05-21,0.9236608599470439,0.9236608599470439,0.0,0,False
2023-05-22,0.9236608599470439,0.9236608599470439,0.0,0,False
2023-05-23,0.9236608599470439,0.9236608599470439,0.0,0,False
2023-05-24,0.9236608599470439,0.9236608599470439,0.0,0,False
2023-05-25,0.9236608599470439,0.9236608599470439,0.0,0,False
2023-05-26,0.9236608599470439,0.9236608599470439,0.0,0,False
2023-05-27,0.9236608599470439,0.9236608599470439,0.0,0,False
2023-05-28,0.9236608599470439,0.9236608599470439,0.0,0,False
2023-05-29,0.9236608599470439,0.9236608599470439,0.0,0,False
2023-05-30,0.9236608599470439,0.9236608599470439,0.0,0,False
2023-05-31,0.9236608599470439,0.9236608599470439,0.0,0,False
2023-06-01,0.9236608599470439,0.9236608599470439,0.0,0,False
2023-06-02,0.9236608599470439,0.9236608599470439,0.0,0,False
2023-06-03,0.9236608599470439,0.9236608599470439,0.0,0,False
2023-06-04,0.9236608599470439,0.9236608599470439,0.0,0,False
2023-06-05,0.9236608599470439,0.9236608599470439,0.0,0,False
2023-06-06,0.9236608599470439,0.9236608599470439,0.0,0,False
2023-06-07,0.9236608599470439,0.9236608599470439,0.0,0,False
2023-06-08,0.9236608599470439,0.9236608599470439,0.0,0,False
2023-06-09,0.9236608599470439,0.9236608599470439,0.0,0,False
2023-06-10,0.9236608599470439,0.9236608599470439,0.0,0,False
2023-06-11,0.9236608599470439,0.9236608599470439,0.0,0,False
2023-06-12,0.9236608599470439,0.9236608599470439,0.0,0,False
2023-06-13,0.9236608599470439,0.9236608599470439,0.0,0,False
2023-06-14,0.9236608599470439,0.9236608599470439,0.0,0,False
2023-06-15,0.9236608599470439,0.9236608599470439,0.0,0,False
2023-06-16,0.9236608599470439,0.9236608599470439,0.0,0,False
2023-06-17,0.9236608599470439,0.9236608599470439,0.0,0,False
2023-06-18,0.9236608599470439,0.9236608599470439,0.0,0,False
2023-06-19,0.9236608599470439,0.9236608599470439,0.0,0,False
2023-06-20,0.9236608599470439,0.9236608599470439,0.0,0,False
2023-06-21,0.9236608599470439,0.9236608599470439,0.0,0,False
2023-06-22,0.9236608599470439,0.9236608599470439,0.0,0,False
2023-06-23,0.9236608599470439,0.9236608599470439,0.0,0,False
2023-06-24,0.9236608599470439,0.9236608599470439,0.0,0,False
2023-06-25,0.9236608599470439,0.9236608599470439,0.0,0,False
2023-06-26,0.9236608599470439,0.9236608599470439,0.0,0,False
2023-06-27,0.9236608599470439,0.9236608599470439,0.0,0,False
2023-06-28,0.9236608599470439,0.9236608599470439,0.0,0,False
2023-06-29,0.9236608599470439,0.9236608599470439,0.0,0,False
2023-06-30,0.9236608599470439,0.9236608599470439,0.0,0,False
2023-07-01,0.9236608599470439,0.9236608599470439,0.0,0,False
2023-07-02,0.9236608599470439,0.9236608599470439,0.0,0,False
2023-07-03,0.9236608599470439,0.9236608599470439,0.0,0,False
2023-07-04,0.9236608599470439,0.9236608599470439,0.0,0,False
2023-07-05,0.9236608599470439,0.9236608599470439,0.0,0,False
2023-07-06,0.9236608599470439,0.9236608599470439,0.0,0,False
2023-07-07,0.9236608599470439,0.9236608599470439,0.0,0,False
2023-07-08,0.9236608599470439,0.9236608599470439,0.0,0,False
2023-07-09,0.9236608599470439,0.9236608599470439,0.0,0,False
2023-07-10,0.9236608599470439,0.9236608599470439,0.0,0,False
2023-07-11,0.9236608599470439,0.9236608599470439,0.0,0,False
2023-07-12,0.9236608599470439,0.9236608599470439,0.0,0,False
2023-07-13,0.9236608599470439,0.9236608599470439,0.0,0,False
2023-07-14,0.9236608599470439,0.9236608599470439,0.0,0,False
2023-07-15,0.9236608599470439,0.9236608599470439,0.0,0,False
2023-07-16,0.9236608599470439,0.9236608599470439,0.0,0,False
2023-07-17,0.9236608599470439,0.9236608599470439,0.0,0,False
2023-07-18,0.9236608599470439,0.9236608599470439,0.0,0,False
2023-07-19,0.9236608599470439,0.9236608599470439,0.0,0,False
2023-07-20,0.9236608599470439,0.9236608599470439,0.0,0,False
2023-07-21,0.9236608599470439,0.9236608599470439,0.0,0,False
2023-07-22,0.9236608599470439,0.9236608599470439,0.0,0,False
2023-07-23,0.9236608599470439,0.9236608599470439,0.0,0,False
2023-07-24,0.9236608599470439,0.9236608599470439,0.0,0,False
2023-07-25,0.9236608599470439,0.9236608599470439,0.0,0,False
2023-07-26,0.9236608599470439,0.9236608599470439,0.0,0,False
2023-07-27,0.9236608599470439,0.9236608599470439,0.0,0,False
2023-07-28,0.9236608599470439,0.9236608599470439,0.0,0,False
2023-07-29,0.9236608599470439,0.9236608599470439,0.0,0,False
2023-07-30,0.9236608599470439,0.9236608599470439,0.0,0,False
2023-07-31,0.9236608599470439,0.9236608599470439,0.0,0,False
2023-08-01,0.9236608599470439,0.9236608599470439,0.0,0,False
2023-08-02,0.9236608599470439,0.9236608599470439,0.0,0,False
2023-08-03,0.9236608599470439,0.9236608599470439,0.0,0,False
2023-08-04,0.9236608599470439,0.9236608599470439,0.0,0,False
2023-08-05,0.9236608599470439,0.9236608599470439,0.0,0,False
2023-08-06,0.9236608599470439,0.9236608599470439,0.0,0,False
2023-08-07,0.9236608599470439,0.9236608599470439,0.0,0,False
2023-08-08,0.9236608599470439,0.9236608599470439,0.0,0,False
2023-08-09,0.9236608599470439,0.9236608599470439,0.0,0,False
2023-08-10,0.9236608599470439,0.9236608599470439,0.0,0,False
2023-08-11,0.9236608599470439,0.9236608599470439,0.0,0,False
2023-08-12,0.9236608599470439,0.9236608599470439,0.0,0,False
2023-08-13,0.9236608599470439,0.9236608599470439,0.0,0,False
2023-08-14,0.9236608599470439,0.9236608599470439,0.0,0,False
2023-08-15,0.9236608599470439,0.9236608599470439,0.0,0,False
2023-08-16,0.9236608599470439,0.9236608599470439,0.0,0,False
2023-08-17,0.9236608599470439,0.9236608599470439,0.0,0,False
2023-08-18,0.9236608599470439,0.9236608599470439,0.0,0,False
2023-08-19,0.9236608599470439,0.9236608599470439,0.0,0,False
2023-08-20,0.9236608599470439,0.9236608599470439,0.0,0,False
2023-08-21,0.9236608599470439,0.9236608599470439,0.0,0,False
2023-08-22,0.9236608599470439,0.9236608599470439,0.0,0,False
2023-08-23,0.9236608599470439,0.9236608599470439,0.0,0,False
2023-08-24,0.9236608599470439,0.9236608599470439,0.0,0,False
2023-08-25,0.9236608599470439,0.9236608599470439,0.0,0,False
2023-08-26,0.9236608599470439,0.9236608599470439,0.0,0,False
2023-08-27,0.9236608599470439,0.9236608599470439,0.0,0,False
2023-08-28,0.9236608599470439,0.9236608599470439,0.0,0,False
2023-08-29,0.9236608599470439,0.9236608599470439,0.0,0,False
2023-08-30,0.9236608599470439,0.9236608599470439,0.0,0,False
2023-08-31,0.9236608599470439,0.9236608599470439,0.0,0,False
2023-09-01,0.9236608599470439,0.9236608599470439,0.0,0,False
2023-09-02,0.9236608599470439,0.9236608599470439,0.0,0,False
2023-09-03,0.9236608599470439,0.9236608599470439,0.0,0,False
2023-09-04,0.9236608599470439,0.9236608599470439,0.0,0,False
2023-09-05,0.9236608599470439,0.9236608599470439,0.0,0,False
2023-09-06,0.9236608599470439,0.9236608599470439,0.0,0,False
2023-09-07,0.9236608599470439,0.9236608599470439,0.0,0,False
2023-09-08,0.9236608599470439,0.9236608599470439,0.0,0,False
2023-09-09,0.9236608599470439,0.9236608599470439,0.0,0,False
2023-09-10,0.9236608599470439,0.9236608599470439,0.0,0,False
2023-09-11,0.9236608599470439,0.9236608599470439,0.0,0,False
2023-09-12,0.9236608599470439,0.9236608599470439,0.0,0,False
2023-09-13,0.9236608599470439,0.9236608599470439,0.0,0,False
2023-09-14,0.9236608599470439,0.9236608599470439,0.0,0,False
2023-09-15,0.9236608599470439,0.9236608599470439,0.0,0,False
2023-09-16,0.9236608599470439,0.9236608599470439,0.0,0,False
2023-09-17,0.9236608599470439,0.9236608599470439,0.0,0,False
2023-09-18,0.9236608599470439,0.9236608599470439,0.0,0,False
2023-09-19,0.9236608599470439,0.9236608599470439,0.0,0,False
2023-09-20,0.9236608599470439,0.9236608599470439,0.0,0,False
2023-09-21,0.9236608599470439,0.9236608599470439,0.0,0,False
2023-09-22,0.9236608599470439,0.9236608599470439,0.0,0,False
2023-09-23,0.9236608599470439,0.9236608599470439,0.0,0,False
2023-09-24,0.9236608599470439,0.9236608599470439,0.0,0,False
2023-09-25,0.9236608599470439,0.9236608599470439,0.0,0,False
2023-09-26,0.9236608599470439,0.9236608599470439,0.0,0,False
2023-09-27,0.9236608599470439,0.9236608599470439,0.0,0,False
2023-09-28,0.9236608599470439,0.9236608599470439,0.0,0,False
2023-09-29,0.9236608599470439,0.9236608599470439,0.0,0,False
2023-09-30,0.9236608599470439,0.9236608599470439,0.0,0,False
2023-10-01,0.9236608599470439,0.9236608599470439,0.0,0,False
2023-10-02,0.9236608599470439,0.9236608599470439,0.0,0,False
2023-10-03,0.9236608599470439,0.9236608599470439,0.0,0,False
2023-10-04,0.9236608599470439,0.9236608599470439,0.0,0,False
2023-10-05,0.9236608599470439,0.9236608599470439,0.0,0,False
2023-10-06,0.9236608599470439,0.9236608599470439,0.0,0,False
2023-10-07,0.9236608599470439,0.9236608599470439,0.0,0,False
2023-10-08,0.9236608599470439,0.9236608599470439,0.0,0,False
2023-10-09,0.9236608599470439,0.9236608599470439,0.0,0,False
2023-10-10,0.9236608599470439,0.9236608599470439,0.0,0,False
2023-10-11,0.9236608599470439,0.9236608599470439,0.0,0,False
2023-10-12,0.9236608599470439,0.9236608599470439,0.0,0,False
2023-10-13,0.9236608599470439,0.9236608599470439,0.0,0,False
2023-10-14,0.9236608599470439,0.9236608599470439,0.0,0,False
2023-10-15,0.9236608599470439,0.9236608599470439,0.0,0,False
2023-10-16,0.9236608599470439,0.9236608599470439,0.0,0,False
2023-10-17,0.9236608599470439,0.9236608599470439,0.0,0,False
2023-10-18,0.9236608599470439,0.9236608599470439,0.0,0,False
2023-10-19,0.9236608599470439,0.9236608599470439,0.0,0,False
2023-10-20,0.9236608599470439,0.9236608599470439,0.0,0,False
2023-10-21,0.9236608599470439,0.9236608599470439,0.0,0,False
2023-10-22,0.9236608599470439,0.9236608599470439,0.0,0,False
2023-10-23,0.9236608599470439,0.9236608599470439,0.0,0,False
2023-10-24,0.9236608599470439,0.9236608599470439,0.0,0,False
2023-10-25,0.9236608599470439,0.9236608599470439,0.0,0,False
2023-10-26,0.9236608599470439,0.9236608599470439,0.0,0,False
2023-10-27,0.9236608599470439,0.9236608599470439,0.0,0,False
2023-10-28,0.9236608599470439,0.9236608599470439,0.0,0,False
2023-10-29,0.9236608599470439,0.9236608599470439,0.0,0,False
2023-10-30,0.9236608599470439,0.9236608599470439,0.0,0,False
2023-10-31,0.9236608599470439,0.9236608599470439,0.0,0,False
2023-11-01,0.9236608599470439,0.9236608599470439,0.0,0,False
2023-11-02,0.9236608599470439,0.9236608599470439,0.0,0,False
2023-11-03,0.9236608599470439,0.9236608599470439,0.0,0,False
2023-11-04,0.9236608599470439,0.9236608599470439,0.0,0,False
2023-11-05,0.9236608599470439,0.9236608599470439,0.0,0,False
2023-11-06,0.9236608599470439,0.9236608599470439,0.0,0,False
2023-11-07,0.9236608599470439,0.9236608599470439,0.0,0,False
2023-11-08,0.9236608599470439,0.9236608599470439,0.0,0,False
2023-11-09,0.9236608599470439,0.9236608599470439,0.0,0,False
2023-11-10,0.9236608599470439,0.9236608599470439,0.0,0,False
2023-11-11,0.9236608599470439,0.9236608599470439,0.0,0,False
2023-11-12,0.9236608599470439,0.9236608599470439,0.0,0,False
2023-11-13,0.9236608599470439,0.9236608599470439,0.0,0,False
2023-11-14,0.9236608599470439,0.9236608599470439,0.0,0,False
2023-11-15,0.9236608599470439,0.9236608599470439,0.0,0,False
2023-11-16,0.9236608599470439,0.9236608599470439,0.0,0,False
2023-11-17,0.9236608599470439,0.9236608599470439,0.0,0,False
2023-11-18,0.9236608599470439,0.9236608599470439,0.0,0,False
2023-11-19,0.9236608599470439,0.9236608599470439,0.0,0,False
2023-11-20,0.9236608599470439,0.9236608599470439,0.0,0,False
2023-11-21,0.9236608599470439,0.9236608599470439,0.0,0,False
2023-11-22,0.9236608599470439,0.9236608599470439,0.0,0,False
2023-11-23,0.9236608599470439,0.9236608599470439,0.0,0,False
2023-11-24,0.9236608599470439,0.9236608599470439,0.0,0,False
2023-11-25,0.9236608599470439,0.9236608599470439,0.0,0,False
2023-11-26,0.9236608599470439,0.9236608599470439,0.0,0,False
2023-11-27,0.9236608599470439,0.9236608599470439,0.0,0,False
2023-11-28,0.9236608599470439,0.9236608599470439,0.0,0,False
2023-11-29,0.9236608599470439,0.9236608599470439,0.0,0,False
2023-11-30,0.9236608599470439,0.9236608599470439,0.0,0,False
2023-12-01,0.9236608599470439,0.9236608599470439,0.0,0,False
2023-12-02,0.9236608599470439,0.9236608599470439,0.0,0,False
2023-12-03,0.9236608599470439,0.9236608599470439,0.0,0,False
2023-12-04,0.9236608599470439,0.9236608599470439,0.0,0,False
2023-12-05,0.9236608599470439,0.9236608599470439,0.0,0,False
2023-12-06,0.9236608599470439,0.9236608599470439,0.0,0,False
2023-12-07,0.9236608599470439,0.9236608599470439,0.0,0,False
2023-12-08,0.9236608599470439,0.9236608599470439,0.0,0,False
2023-12-09,0.9236608599470439,0.9236608599470439,0.0,0,False
2023-12-10,0.9236608599470439,0.9236608599470439,0.0,0,False
2023-12-11,0.9236608599470439,0.9236608599470439,0.0,0,False
2023-12-12,0.9236608599470439,0.9236608599470439,0.0,0,False
2023-12-13,0.9236608599470439,0.9236608599470439,0.0,0,False
2023-12-14,0.9236608599470439,0.9236608599470439,0.0,0,False
2023-12-15,0.9236608599470439,0.9236608599470439,0.0,0,False
2023-12-16,0.9236608599470439,0.9236608599470439,0.0,0,False
2023-12-17,0.9236608599470439,0.9236608599470439,0.0,0,False
2023-12-18,0.9236608599470439,0.9236608599470439,0.0,0,False
2023-12-19,0.9236608599470439,0.9236608599470439,0.0,0,False
2023-12-20,0.9236608599470439,0.9236608599470439,0.0,0,False
2023-12-21,0.9236608599470439,0.9236608599470439,0.0,0,False
2023-12-22,0.9236608599470439,0.9236608599470439,0.0,0,False
2023-12-23,0.9236608599470439,0.9236608599470439,0.0,0,False
2023-12-24,0.9236608599470439,0.9236608599470439,0.0,0,False
2023-12-25,0.9236608599470439,0.9236608599470439,0.0,0,False
2023-12-26,0.9236608599470439,0.9236608599470439,0.0,0,False
2023-12-27,0.9236608599470439,0.9236608599470439,0.0,0,False
2023-12-28,0.9236608599470439,0.9236608599470439,0.0,0,False
2023-12-29,0.9236608599470439,0.9236608599470439,0.0,0,False
2023-12-30,0.9236608599470439,0.9236608599470439,0.0,0,False
2023-12-31,0.9236608599470439,0.9236608599470439,0.0,0,False
