day,start_equity,end_equity,return_pct,entries,active
2021-09-02,1.0,1.0,0.0,0,False
2021-09-03,1.0,1.0,0.0,0,False
2021-09-04,1.0,1.0,0.0,0,False
2021-09-05,1.0,1.0,0.0,0,False
2021-09-06,1.0,1.0,0.0,0,False
2021-09-07,1.0,1.0,0.0,0,False
2021-09-08,1.0,1.0,0.0,0,False
2021-09-09,1.0,1.0,0.0,0,False
2021-09-10,1.0,1.0,0.0,0,False
2021-09-11,1.0,1.0,0.0,0,False
2021-09-12,1.0,1.0,0.0,0,False
2021-09-13,1.0,1.0,0.0,0,False
2021-09-14,1.0,1.0,0.0,0,False
2021-09-15,1.0,1.0,0.0,0,False
2021-09-16,1.0,1.0,0.0,0,False
2021-09-17,1.0,1.0,0.0,0,False
2021-09-18,1.0,1.0,0.0,0,False
2021-09-19,1.0,1.0,0.0,0,False
2021-09-20,1.0,1.0,0.0,0,False
2021-09-21,1.0,1.0,0.0,0,False
2021-09-22,1.0,1.0,0.0,0,False
2021-09-23,1.0,1.0,0.0,0,False
2021-09-24,1.0,1.0,0.0,0,False
2021-09-25,1.0,1.0,0.0,0,False
2021-09-26,1.0,1.0,0.0,0,False
2021-09-27,1.0,1.0,0.0,0,False
2021-09-28,1.0,1.0,0.0,0,False
2021-09-29,1.0,1.0,0.0,0,False
2021-09-30,1.0,1.0,0.0,0,False
2021-10-01,1.0,1.0,0.0,0,False
2021-10-02,1.0,1.0,0.0,0,False
2021-10-03,1.0,1.0,0.0,0,False
2021-10-04,1.0,1.0,0.0,0,False
2021-10-05,1.0,0.9991229226558256,-0.08770773441744151,1,True
2021-10-06,0.9991229226558256,1.0033725966581526,0.4253404567108321,5,True
2021-10-07,1.0033725966581526,0.9914056055286204,-1.1926766955156598,2,True
2021-10-08,0.9914056055286204,0.9905678565864424,-0.08450113026456929,1,True
2021-10-09,0.9905678565864424,0.9913983547343971,0.08384061146669008,4,True
2021-10-10,0.9913983547343971,0.985979954229814,-0.5465412040183137,1,True
2021-10-11,0.985979954229814,0.985979954229814,0.0,0,False
2021-10-12,0.985979954229814,0.985979954229814,0.0,0,False
2021-10-13,0.985979954229814,1.0033611785091094,1.762837490227942,4,True
2021-10-14,1.0033611785091094,1.0181662251607615,1.4755450947036675,1,True
2021-10-15,1.0181662251607615,1.0190498273482689,0.08678368675683057,6,True
2021-10-16,1.0190498273482689,1.0543111568615888,3.460216425832252,4,True
2021-10-17,1.0543111568615888,1.0543111568615888,0.0,0,False
2021-10-18,1.0543111568615888,1.055040853395839,0.0692107381678797,2,True
2021-10-19,1.055040853395839,1.055040853395839,0.0,0,False
2021-10-20,1.055040853395839,1.055040853395839,0.0,0,False
2021-10-21,1.055040853395839,1.055040853395839,0.0,0,False
2021-10-22,1.055040853395839,1.055040853395839,0.0,0,False
2021-10-23,1.055040853395839,1.055040853395839,0.0,0,False
2021-10-24,1.055040853395839,1.0592436207586944,0.3983511490884828,1,True
2021-10-25,1.0592436207586944,1.051021638965553,-0.77621253807999,3,True
2021-10-26,1.051021638965553,1.051021638965553,0.0,0,False
2021-10-27,1.051021638965553,1.0590440402429304,0.763295538355746,7,True
2021-10-28,1.0590440402429304,1.0335066946200187,-2.411358229923455,8,True
2021-10-29,1.0335066946200187,1.037530007263965,0.38928752613698325,3,True
2021-10-30,1.037530007263965,1.0405946237619192,0.2953761796283594,2,True
2021-10-31,1.0405946237619192,1.031582556853483,-0.8660497279772694,11,True
2021-11-01,1.031582556853483,1.0160929721357244,-1.5015361218402967,9,True
2021-11-02,1.0160929721357244,1.022715639750037,0.6517777207328157,3,True
2021-11-03,1.022715639750037,1.018538454921058,-0.4084404957373944,2,True
2021-11-04,1.018538454921058,1.0105461928797554,-0.7846794593457052,6,True
2021-11-05,1.0105461928797554,0.9956934567870885,-1.4697730986785507,7,True
2021-11-06,0.9956934567870885,0.9933631657163722,-0.23403699751485263,3,True
2021-11-07,0.9933631657163722,0.9933631657163722,0.0,0,False
2021-11-08,0.9933631657163722,0.9933631657163722,0.0,0,False
2021-11-09,0.9933631657163722,0.9993381354437066,0.6014889552528935,2,True
2021-11-10,0.9993381354437066,1.03197575819725,3.265923874610488,1,True
2021-11-11,1.03197575819725,1.006709143241263,-2.448372915282926,4,True
2021-11-12,1.006709143241263,0.9863812319096852,-2.019243737682641,6,True
2021-11-13,0.9863812319096852,0.9863118770310934,-0.007031244750832499,1,True
2021-11-14,0.9863118770310934,0.9773704077686227,-0.9065559759237063,2,True
2021-11-15,0.9773704077686227,0.9773704077686227,0.0,0,False
2021-11-16,0.9773704077686227,1.0155645535157307,3.9078475717621464,9,True
2021-11-17,1.0155645535157307,1.0062747156561258,-0.9147461702404769,1,True
2021-11-18,1.0062747156561258,0.9942034385912323,-1.1996005541113686,4,True
2021-11-19,0.9942034385912323,1.0040906247595878,0.9944831997730219,8,True
2021-11-20,1.0040906247595878,1.0125126378594003,0.8387702157690136,0,True
2021-11-21,1.0125126378594003,1.0053571523314557,-0.7067057990577053,3,True
2021-11-22,1.0053571523314557,0.9835129180437115,-2.1727834965998616,7,True
2021-11-23,0.9835129180437115,0.9835129180437115,0.0,0,False
2021-11-24,0.9835129180437115,0.9699329775557171,-1.3807587311619796,4,True
2021-11-25,0.9699329775557171,0.9881708897802539,1.8803270583187537,11,True
2021-11-26,0.9881708897802539,0.9580432392987702,-3.048829994190927,10,True
2021-11-27,0.9580432392987702,0.9605255356594633,0.2591006604785395,9,True
2021-11-28,0.9605255356594633,0.941048834199219,-2.02771303179069,11,True
2021-11-29,0.941048834199219,0.9402045006771202,-0.08972260433405266,2,True
2021-11-30,0.9402045006771202,0.9352897593860956,-0.5227310959993403,3,True
2021-12-01,0.9352897593860956,0.938573611167471,0.35110528565294175,3,True
2021-12-02,0.938573611167471,0.9391360389685881,0.05992367507727803,7,True
2021-12-03,0.9391360389685881,0.9343210996013845,-0.512698817574031,3,True
2021-12-04,0.9343210996013845,0.9142056464834201,-2.1529486090538286,14,True
2021-12-05,0.9142056464834201,0.9169144828664245,0.2963049280459318,4,True
2021-12-06,0.9169144828664245,0.9090387695944718,-0.8589365114325509,19,True
2021-12-07,0.9090387695944718,0.9091702918768582,0.014468280868262795,1,True
2021-12-08,0.9091702918768582,0.9061837356179618,-0.3284925041634357,3,True
2021-12-09,0.9061837356179618,0.9061837356179618,0.0,0,False
2021-12-10,0.9061837356179618,0.9061837356179618,0.0,0,False
2021-12-11,0.9061837356179618,0.9061837356179618,0.0,0,False
2021-12-12,0.9061837356179618,0.9061837356179618,0.0,0,False
2021-12-13,0.9061837356179618,0.9061837356179618,0.0,0,False
2021-12-14,0.9061837356179618,0.9061837356179618,0.0,0,False
2021-12-15,0.9061837356179618,0.9061837356179618,0.0,0,False
2021-12-16,0.9061837356179618,0.9061837356179618,0.0,0,False
2021-12-17,0.9061837356179618,0.9061837356179618,0.0,0,False
2021-12-18,0.9061837356179618,0.9061837356179618,0.0,0,False
2021-12-19,0.9061837356179618,0.9061837356179618,0.0,0,False
2021-12-20,0.9061837356179618,0.9061837356179618,0.0,0,False
2021-12-21,0.9061837356179618,0.9061837356179618,0.0,0,False
2021-12-22,0.9061837356179618,0.9061837356179618,0.0,0,False
2021-12-23,0.9061837356179618,0.9061837356179618,0.0,0,False
2021-12-24,0.9061837356179618,0.9061837356179618,0.0,0,False
2021-12-25,0.9061837356179618,0.9061837356179618,0.0,0,False
2021-12-26,0.9061837356179618,0.9061837356179618,0.0,0,False
2021-12-27,0.9061837356179618,0.9061837356179618,0.0,0,False
2021-12-28,0.9061837356179618,0.9061837356179618,0.0,0,False
2021-12-29,0.9061837356179618,0.9061837356179618,0.0,0,False
2021-12-30,0.9061837356179618,0.9061837356179618,0.0,0,False
2021-12-31,0.9061837356179618,0.9061837356179618,0.0,0,False
2022-01-01,0.9061837356179618,0.9061837356179618,0.0,0,False
2022-01-02,0.9061837356179618,0.9061837356179618,0.0,0,False
2022-01-03,0.9061837356179618,0.9061837356179618,0.0,0,False
2022-01-04,0.9061837356179618,0.9061837356179618,0.0,0,False
2022-01-05,0.9061837356179618,0.9061837356179618,0.0,0,False
2022-01-06,0.9061837356179618,0.9061837356179618,0.0,0,False
2022-01-07,0.9061837356179618,0.9061837356179618,0.0,0,False
2022-01-08,0.9061837356179618,0.9061837356179618,0.0,0,False
2022-01-09,0.9061837356179618,0.9061837356179618,0.0,0,False
2022-01-10,0.9061837356179618,0.9061837356179618,0.0,0,False
2022-01-11,0.9061837356179618,0.9061837356179618,0.0,0,False
2022-01-12,0.9061837356179618,0.9061837356179618,0.0,0,False
2022-01-13,0.9061837356179618,0.9061837356179618,0.0,0,False
2022-01-14,0.9061837356179618,0.9061837356179618,0.0,0,False
2022-01-15,0.9061837356179618,0.9061837356179618,0.0,0,False
2022-01-16,0.9061837356179618,0.9061837356179618,0.0,0,False
2022-01-17,0.9061837356179618,0.9061837356179618,0.0,0,False
2022-01-18,0.9061837356179618,0.9061837356179618,0.0,0,False
2022-01-19,0.9061837356179618,0.9061837356179618,0.0,0,False
2022-01-20,0.9061837356179618,0.9061837356179618,0.0,0,False
2022-01-21,0.9061837356179618,0.9061837356179618,0.0,0,False
2022-01-22,0.9061837356179618,0.9061837356179618,0.0,0,False
2022-01-23,0.9061837356179618,0.9061837356179618,0.0,0,False
2022-01-24,0.9061837356179618,0.9061837356179618,0.0,0,False
2022-01-25,0.9061837356179618,0.9061837356179618,0.0,0,False
2022-01-26,0.9061837356179618,0.9061837356179618,0.0,0,False
2022-01-27,0.9061837356179618,0.9061837356179618,0.0,0,False
2022-01-28,0.9061837356179618,0.9061837356179618,0.0,0,False
2022-01-29,0.9061837356179618,0.9061837356179618,0.0,0,False
2022-01-30,0.9061837356179618,0.9061837356179618,0.0,0,False
2022-01-31,0.9061837356179618,0.9061837356179618,0.0,0,False
2022-02-01,0.9061837356179618,0.9061837356179618,0.0,0,False
2022-02-02,0.9061837356179618,0.9061837356179618,0.0,0,False
2022-02-03,0.9061837356179618,0.9061837356179618,0.0,0,False
2022-02-04,0.9061837356179618,0.9061837356179618,0.0,0,False
2022-02-05,0.9061837356179618,0.9061837356179618,0.0,0,False
2022-02-06,0.9061837356179618,0.9061837356179618,0.0,0,False
2022-02-07,0.9061837356179618,0.9061837356179618,0.0,0,False
2022-02-08,0.9061837356179618,0.9061837356179618,0.0,0,False
2022-02-09,0.9061837356179618,0.9061837356179618,0.0,0,False
2022-02-10,0.9061837356179618,0.9061837356179618,0.0,0,False
2022-02-11,0.9061837356179618,0.9061837356179618,0.0,0,False
2022-02-12,0.9061837356179618,0.9061837356179618,0.0,0,False
2022-02-13,0.9061837356179618,0.9061837356179618,0.0,0,False
2022-02-14,0.9061837356179618,0.9061837356179618,0.0,0,False
2022-02-15,0.9061837356179618,0.9061837356179618,0.0,0,False
2022-02-16,0.9061837356179618,0.9061837356179618,0.0,0,False
2022-02-17,0.9061837356179618,0.9061837356179618,0.0,0,False
2022-02-18,0.9061837356179618,0.9061837356179618,0.0,0,False
2022-02-19,0.9061837356179618,0.9061837356179618,0.0,0,False
2022-02-20,0.9061837356179618,0.9061837356179618,0.0,0,False
2022-02-21,0.9061837356179618,0.9061837356179618,0.0,0,False
2022-02-22,0.9061837356179618,0.9061837356179618,0.0,0,False
2022-02-23,0.9061837356179618,0.9061837356179618,0.0,0,False
2022-02-24,0.9061837356179618,0.9061837356179618,0.0,0,False
2022-02-25,0.9061837356179618,0.9061837356179618,0.0,0,False
2022-02-26,0.9061837356179618,0.9061837356179618,0.0,0,False
2022-02-27,0.9061837356179618,0.9061837356179618,0.0,0,False
2022-02-28,0.9061837356179618,0.9061837356179618,0.0,0,False
2022-03-01,0.9061837356179618,0.9061837356179618,0.0,0,False
2022-03-02,0.9061837356179618,0.9061837356179618,0.0,0,False
2022-03-03,0.9061837356179618,0.9061837356179618,0.0,0,False
2022-03-04,0.9061837356179618,0.9061837356179618,0.0,0,False
2022-03-05,0.9061837356179618,0.9061837356179618,0.0,0,False
2022-03-06,0.9061837356179618,0.9061837356179618,0.0,0,False
2022-03-07,0.9061837356179618,0.9061837356179618,0.0,0,False
2022-03-08,0.9061837356179618,0.9061837356179618,0.0,0,False
2022-03-09,0.9061837356179618,0.9061837356179618,0.0,0,False
2022-03-10,0.9061837356179618,0.9061837356179618,0.0,0,False
2022-03-11,0.9061837356179618,0.9061837356179618,0.0,0,False
2022-03-12,0.9061837356179618,0.9061837356179618,0.0,0,False
2022-03-13,0.9061837356179618,0.9061837356179618,0.0,0,False
2022-03-14,0.9061837356179618,0.9061837356179618,0.0,0,False
2022-03-15,0.9061837356179618,0.9061837356179618,0.0,0,False
2022-03-16,0.9061837356179618,0.9061837356179618,0.0,0,False
2022-03-17,0.9061837356179618,0.9061837356179618,0.0,0,False
2022-03-18,0.9061837356179618,0.9061837356179618,0.0,0,False
2022-03-19,0.9061837356179618,0.9061837356179618,0.0,0,False
2022-03-20,0.9061837356179618,0.9061837356179618,0.0,0,False
2022-03-21,0.9061837356179618,0.9061837356179618,0.0,0,False
2022-03-22,0.9061837356179618,0.9061837356179618,0.0,0,False
2022-03-23,0.9061837356179618,0.9061837356179618,0.0,0,False
2022-03-24,0.9061837356179618,0.9061837356179618,0.0,0,False
2022-03-25,0.9061837356179618,0.9061837356179618,0.0,0,False
2022-03-26,0.9061837356179618,0.9061837356179618,0.0,0,False
2022-03-27,0.9061837356179618,0.9061837356179618,0.0,0,False
2022-03-28,0.9061837356179618,0.9061837356179618,0.0,0,False
2022-03-29,0.9061837356179618,0.9061837356179618,0.0,0,False
2022-03-30,0.9061837356179618,0.9061837356179618,0.0,0,False
2022-03-31,0.9061837356179618,0.9061837356179618,0.0,0,False
2022-04-01,0.9061837356179618,0.9061837356179618,0.0,0,False
2022-04-02,0.9061837356179618,0.9061837356179618,0.0,0,False
2022-04-03,0.9061837356179618,0.9061837356179618,0.0,0,False
2022-04-04,0.9061837356179618,0.9061837356179618,0.0,0,False
2022-04-05,0.9061837356179618,0.9061837356179618,0.0,0,False
2022-04-06,0.9061837356179618,0.9061837356179618,0.0,0,False
2022-04-07,0.9061837356179618,0.9061837356179618,0.0,0,False
2022-04-08,0.9061837356179618,0.9061837356179618,0.0,0,False
2022-04-09,0.9061837356179618,0.9061837356179618,0.0,0,False
2022-04-10,0.9061837356179618,0.9061837356179618,0.0,0,False
2022-04-11,0.9061837356179618,0.9061837356179618,0.0,0,False
2022-04-12,0.9061837356179618,0.9061837356179618,0.0,0,False
2022-04-13,0.9061837356179618,0.9061837356179618,0.0,0,False
2022-04-14,0.9061837356179618,0.9061837356179618,0.0,0,False
2022-04-15,0.9061837356179618,0.9061837356179618,0.0,0,False
2022-04-16,0.9061837356179618,0.9061837356179618,0.0,0,False
2022-04-17,0.9061837356179618,0.9061837356179618,0.0,0,False
2022-04-18,0.9061837356179618,0.9061837356179618,0.0,0,False
2022-04-19,0.9061837356179618,0.9061837356179618,0.0,0,False
2022-04-20,0.9061837356179618,0.9061837356179618,0.0,0,False
2022-04-21,0.9061837356179618,0.9061837356179618,0.0,0,False
2022-04-22,0.9061837356179618,0.9061837356179618,0.0,0,False
2022-04-23,0.9061837356179618,0.9061837356179618,0.0,0,False
2022-04-24,0.9061837356179618,0.9061837356179618,0.0,0,False
2022-04-25,0.9061837356179618,0.9061837356179618,0.0,0,False
2022-04-26,0.9061837356179618,0.9061837356179618,0.0,0,False
2022-04-27,0.9061837356179618,0.9061837356179618,0.0,0,False
2022-04-28,0.9061837356179618,0.9061837356179618,0.0,0,False
2022-04-29,0.9061837356179618,0.9061837356179618,0.0,0,False
2022-04-30,0.9061837356179618,0.9061837356179618,0.0,0,False
2022-05-01,0.9061837356179618,0.9061837356179618,0.0,0,False
2022-05-02,0.9061837356179618,0.9061837356179618,0.0,0,False
2022-05-03,0.9061837356179618,0.9061837356179618,0.0,0,False
2022-05-04,0.9061837356179618,0.9061837356179618,0.0,0,False
2022-05-05,0.9061837356179618,0.9061837356179618,0.0,0,False
2022-05-06,0.9061837356179618,0.9061837356179618,0.0,0,False
2022-05-07,0.9061837356179618,0.9061837356179618,0.0,0,False
2022-05-08,0.9061837356179618,0.9061837356179618,0.0,0,False
2022-05-09,0.9061837356179618,0.9061837356179618,0.0,0,False
2022-05-10,0.9061837356179618,0.9061837356179618,0.0,0,False
2022-05-11,0.9061837356179618,0.9061837356179618,0.0,0,False
2022-05-12,0.9061837356179618,0.9061837356179618,0.0,0,False
2022-05-13,0.9061837356179618,0.9061837356179618,0.0,0,False
2022-05-14,0.9061837356179618,0.9061837356179618,0.0,0,False
2022-05-15,0.9061837356179618,0.9061837356179618,0.0,0,False
2022-05-16,0.9061837356179618,0.9061837356179618,0.0,0,False
2022-05-17,0.9061837356179618,0.9061837356179618,0.0,0,False
2022-05-18,0.9061837356179618,0.9061837356179618,0.0,0,False
2022-05-19,0.9061837356179618,0.9061837356179618,0.0,0,False
2022-05-20,0.9061837356179618,0.9061837356179618,0.0,0,False
2022-05-21,0.9061837356179618,0.9061837356179618,0.0,0,False
2022-05-22,0.9061837356179618,0.9061837356179618,0.0,0,False
2022-05-23,0.9061837356179618,0.9061837356179618,0.0,0,False
2022-05-24,0.9061837356179618,0.9061837356179618,0.0,0,False
2022-05-25,0.9061837356179618,0.9061837356179618,0.0,0,False
2022-05-26,0.9061837356179618,0.9061837356179618,0.0,0,False
2022-05-27,0.9061837356179618,0.9061837356179618,0.0,0,False
2022-05-28,0.9061837356179618,0.9061837356179618,0.0,0,False
2022-05-29,0.9061837356179618,0.9061837356179618,0.0,0,False
2022-05-30,0.9061837356179618,0.9061837356179618,0.0,0,False
2022-05-31,0.9061837356179618,0.9061837356179618,0.0,0,False
2022-06-01,0.9061837356179618,0.9061837356179618,0.0,0,False
2022-06-02,0.9061837356179618,0.9061837356179618,0.0,0,False
2022-06-03,0.9061837356179618,0.9061837356179618,0.0,0,False
2022-06-04,0.9061837356179618,0.9061837356179618,0.0,0,False
2022-06-05,0.9061837356179618,0.9061837356179618,0.0,0,False
2022-06-06,0.9061837356179618,0.9061837356179618,0.0,0,False
2022-06-07,0.9061837356179618,0.9061837356179618,0.0,0,False
2022-06-08,0.9061837356179618,0.9061837356179618,0.0,0,False
2022-06-09,0.9061837356179618,0.9061837356179618,0.0,0,False
2022-06-10,0.9061837356179618,0.9061837356179618,0.0,0,False
2022-06-11,0.9061837356179618,0.9061837356179618,0.0,0,False
2022-06-12,0.9061837356179618,0.9061837356179618,0.0,0,False
2022-06-13,0.9061837356179618,0.9061837356179618,0.0,0,False
2022-06-14,0.9061837356179618,0.9061837356179618,0.0,0,False
2022-06-15,0.9061837356179618,0.9061837356179618,0.0,0,False
2022-06-16,0.9061837356179618,0.9061837356179618,0.0,0,False
2022-06-17,0.9061837356179618,0.9061837356179618,0.0,0,False
2022-06-18,0.9061837356179618,0.9061837356179618,0.0,0,False
2022-06-19,0.9061837356179618,0.9061837356179618,0.0,0,False
2022-06-20,0.9061837356179618,0.9061837356179618,0.0,0,False
2022-06-21,0.9061837356179618,0.9061837356179618,0.0,0,False
2022-06-22,0.9061837356179618,0.9061837356179618,0.0,0,False
2022-06-23,0.9061837356179618,0.9061837356179618,0.0,0,False
2022-06-24,0.9061837356179618,0.9061837356179618,0.0,0,False
2022-06-25,0.9061837356179618,0.9061837356179618,0.0,0,False
2022-06-26,0.9061837356179618,0.9061837356179618,0.0,0,False
2022-06-27,0.9061837356179618,0.9061837356179618,0.0,0,False
2022-06-28,0.9061837356179618,0.9061837356179618,0.0,0,False
2022-06-29,0.9061837356179618,0.9061837356179618,0.0,0,False
2022-06-30,0.9061837356179618,0.9061837356179618,0.0,0,False
2022-07-01,0.9061837356179618,0.9061837356179618,0.0,0,False
2022-07-02,0.9061837356179618,0.9061837356179618,0.0,0,False
2022-07-03,0.9061837356179618,0.9061837356179618,0.0,0,False
2022-07-04,0.9061837356179618,0.9061837356179618,0.0,0,False
2022-07-05,0.9061837356179618,0.9061837356179618,0.0,0,False
2022-07-06,0.9061837356179618,0.9061837356179618,0.0,0,False
2022-07-07,0.9061837356179618,0.9061837356179618,0.0,0,False
2022-07-08,0.9061837356179618,0.9061837356179618,0.0,0,False
2022-07-09,0.9061837356179618,0.9061837356179618,0.0,0,False
2022-07-10,0.9061837356179618,0.9061837356179618,0.0,0,False
2022-07-11,0.9061837356179618,0.9061837356179618,0.0,0,False
2022-07-12,0.9061837356179618,0.9061837356179618,0.0,0,False
2022-07-13,0.9061837356179618,0.9061837356179618,0.0,0,False
2022-07-14,0.9061837356179618,0.9061837356179618,0.0,0,False
2022-07-15,0.9061837356179618,0.9061837356179618,0.0,0,False
2022-07-16,0.9061837356179618,0.9061837356179618,0.0,0,False
2022-07-17,0.9061837356179618,0.9061837356179618,0.0,0,False
2022-07-18,0.9061837356179618,0.9061837356179618,0.0,0,False
2022-07-19,0.9061837356179618,0.9061837356179618,0.0,0,False
2022-07-20,0.9061837356179618,0.9061837356179618,0.0,0,False
2022-07-21,0.9061837356179618,0.9061837356179618,0.0,0,False
2022-07-22,0.9061837356179618,0.9061837356179618,0.0,0,False
2022-07-23,0.9061837356179618,0.9061837356179618,0.0,0,False
2022-07-24,0.9061837356179618,0.9061837356179618,0.0,0,False
2022-07-25,0.9061837356179618,0.9061837356179618,0.0,0,False
2022-07-26,0.9061837356179618,0.9061837356179618,0.0,0,False
2022-07-27,0.9061837356179618,0.9061837356179618,0.0,0,False
2022-07-28,0.9061837356179618,0.9061837356179618,0.0,0,False
2022-07-29,0.9061837356179618,0.9061837356179618,0.0,0,False
2022-07-30,0.9061837356179618,0.9061837356179618,0.0,0,False
2022-07-31,0.9061837356179618,0.9061837356179618,0.0,0,False
2022-08-01,0.9061837356179618,0.9061837356179618,0.0,0,False
2022-08-02,0.9061837356179618,0.9061837356179618,0.0,0,False
2022-08-03,0.9061837356179618,0.9061837356179618,0.0,0,False
2022-08-04,0.9061837356179618,0.9061837356179618,0.0,0,False
2022-08-05,0.9061837356179618,0.9061837356179618,0.0,0,False
2022-08-06,0.9061837356179618,0.9061837356179618,0.0,0,False
2022-08-07,0.9061837356179618,0.9061837356179618,0.0,0,False
2022-08-08,0.9061837356179618,0.9061837356179618,0.0,0,False
2022-08-09,0.9061837356179618,0.9061837356179618,0.0,0,False
2022-08-10,0.9061837356179618,0.9061837356179618,0.0,0,False
2022-08-11,0.9061837356179618,0.9061837356179618,0.0,0,False
2022-08-12,0.9061837356179618,0.9061837356179618,0.0,0,False
2022-08-13,0.9061837356179618,0.9061837356179618,0.0,0,False
2022-08-14,0.9061837356179618,0.9061837356179618,0.0,0,False
2022-08-15,0.9061837356179618,0.9061837356179618,0.0,0,False
2022-08-16,0.9061837356179618,0.9061837356179618,0.0,0,False
2022-08-17,0.9061837356179618,0.9061837356179618,0.0,0,False
2022-08-18,0.9061837356179618,0.9061837356179618,0.0,0,False
2022-08-19,0.9061837356179618,0.9061837356179618,0.0,0,False
2022-08-20,0.9061837356179618,0.9061837356179618,0.0,0,False
2022-08-21,0.9061837356179618,0.9061837356179618,0.0,0,False
2022-08-22,0.9061837356179618,0.9061837356179618,0.0,0,False
2022-08-23,0.9061837356179618,0.9061837356179618,0.0,0,False
2022-08-24,0.9061837356179618,0.9061837356179618,0.0,0,False
2022-08-25,0.9061837356179618,0.9061837356179618,0.0,0,False
2022-08-26,0.9061837356179618,0.9061837356179618,0.0,0,False
2022-08-27,0.9061837356179618,0.9061837356179618,0.0,0,False
2022-08-28,0.9061837356179618,0.9061837356179618,0.0,0,False
2022-08-29,0.9061837356179618,0.9061837356179618,0.0,0,False
2022-08-30,0.9061837356179618,0.9061837356179618,0.0,0,False
2022-08-31,0.9061837356179618,0.9061837356179618,0.0,0,False
2022-09-01,0.9061837356179618,0.9061837356179618,0.0,0,False
2022-09-02,0.9061837356179618,0.9061837356179618,0.0,0,False
2022-09-03,0.9061837356179618,0.9061837356179618,0.0,0,False
2022-09-04,0.9061837356179618,0.9061837356179618,0.0,0,False
2022-09-05,0.9061837356179618,0.9061837356179618,0.0,0,False
2022-09-06,0.9061837356179618,0.9061837356179618,0.0,0,False
2022-09-07,0.9061837356179618,0.9061837356179618,0.0,0,False
2022-09-08,0.9061837356179618,0.9061837356179618,0.0,0,False
2022-09-09,0.9061837356179618,0.9061837356179618,0.0,0,False
2022-09-10,0.9061837356179618,0.9061837356179618,0.0,0,False
2022-09-11,0.9061837356179618,0.9061837356179618,0.0,0,False
2022-09-12,0.9061837356179618,0.9061837356179618,0.0,0,False
2022-09-13,0.9061837356179618,0.9061837356179618,0.0,0,False
2022-09-14,0.9061837356179618,0.9061837356179618,0.0,0,False
2022-09-15,0.9061837356179618,0.9061837356179618,0.0,0,False
2022-09-16,0.9061837356179618,0.9061837356179618,0.0,0,False
2022-09-17,0.9061837356179618,0.9061837356179618,0.0,0,False
2022-09-18,0.9061837356179618,0.9061837356179618,0.0,0,False
2022-09-19,0.9061837356179618,0.9061837356179618,0.0,0,False
2022-09-20,0.9061837356179618,0.9061837356179618,0.0,0,False
2022-09-21,0.9061837356179618,0.9061837356179618,0.0,0,False
2022-09-22,0.9061837356179618,0.9061837356179618,0.0,0,False
2022-09-23,0.9061837356179618,0.9061837356179618,0.0,0,False
2022-09-24,0.9061837356179618,0.9061837356179618,0.0,0,False
2022-09-25,0.9061837356179618,0.9061837356179618,0.0,0,False
2022-09-26,0.9061837356179618,0.9061837356179618,0.0,0,False
2022-09-27,0.9061837356179618,0.9061837356179618,0.0,0,False
2022-09-28,0.9061837356179618,0.9061837356179618,0.0,0,False
2022-09-29,0.9061837356179618,0.9061837356179618,0.0,0,False
2022-09-30,0.9061837356179618,0.9061837356179618,0.0,0,False
2022-10-01,0.9061837356179618,0.9061837356179618,0.0,0,False
2022-10-02,0.9061837356179618,0.9061837356179618,0.0,0,False
2022-10-03,0.9061837356179618,0.9061837356179618,0.0,0,False
2022-10-04,0.9061837356179618,0.9061837356179618,0.0,0,False
2022-10-05,0.9061837356179618,0.9061837356179618,0.0,0,False
2022-10-06,0.9061837356179618,0.9061837356179618,0.0,0,False
2022-10-07,0.9061837356179618,0.9061837356179618,0.0,0,False
2022-10-08,0.9061837356179618,0.9061837356179618,0.0,0,False
2022-10-09,0.9061837356179618,0.9061837356179618,0.0,0,False
2022-10-10,0.9061837356179618,0.9061837356179618,0.0,0,False
2022-10-11,0.9061837356179618,0.9061837356179618,0.0,0,False
2022-10-12,0.9061837356179618,0.9061837356179618,0.0,0,False
2022-10-13,0.9061837356179618,0.9061837356179618,0.0,0,False
2022-10-14,0.9061837356179618,0.9061837356179618,0.0,0,False
2022-10-15,0.9061837356179618,0.9061837356179618,0.0,0,False
2022-10-16,0.9061837356179618,0.9061837356179618,0.0,0,False
2022-10-17,0.9061837356179618,0.9061837356179618,0.0,0,False
2022-10-18,0.9061837356179618,0.9061837356179618,0.0,0,False
2022-10-19,0.9061837356179618,0.9061837356179618,0.0,0,False
2022-10-20,0.9061837356179618,0.9061837356179618,0.0,0,False
2022-10-21,0.9061837356179618,0.9061837356179618,0.0,0,False
2022-10-22,0.9061837356179618,0.9061837356179618,0.0,0,False
2022-10-23,0.9061837356179618,0.9061837356179618,0.0,0,False
2022-10-24,0.9061837356179618,0.9061837356179618,0.0,0,False
2022-10-25,0.9061837356179618,0.9061837356179618,0.0,0,False
2022-10-26,0.9061837356179618,0.9061837356179618,0.0,0,False
2022-10-27,0.9061837356179618,0.9061837356179618,0.0,0,False
2022-10-28,0.9061837356179618,0.9061837356179618,0.0,0,False
2022-10-29,0.9061837356179618,0.9061837356179618,0.0,0,False
2022-10-30,0.9061837356179618,0.9061837356179618,0.0,0,False
2022-10-31,0.9061837356179618,0.9061837356179618,0.0,0,False
2022-11-01,0.9061837356179618,0.9061837356179618,0.0,0,False
2022-11-02,0.9061837356179618,0.9061837356179618,0.0,0,False
2022-11-03,0.9061837356179618,0.9061837356179618,0.0,0,False
2022-11-04,0.9061837356179618,0.9061837356179618,0.0,0,False
2022-11-05,0.9061837356179618,0.9061837356179618,0.0,0,False
2022-11-06,0.9061837356179618,0.9061837356179618,0.0,0,False
2022-11-07,0.9061837356179618,0.9061837356179618,0.0,0,False
2022-11-08,0.9061837356179618,0.9061837356179618,0.0,0,False
2022-11-09,0.9061837356179618,0.9061837356179618,0.0,0,False
2022-11-10,0.9061837356179618,0.9061837356179618,0.0,0,False
2022-11-11,0.9061837356179618,0.9061837356179618,0.0,0,False
2022-11-12,0.9061837356179618,0.9061837356179618,0.0,0,False
2022-11-13,0.9061837356179618,0.9061837356179618,0.0,0,False
2022-11-14,0.9061837356179618,0.9061837356179618,0.0,0,False
2022-11-15,0.9061837356179618,0.9061837356179618,0.0,0,False
2022-11-16,0.9061837356179618,0.9061837356179618,0.0,0,False
2022-11-17,0.9061837356179618,0.9061837356179618,0.0,0,False
2022-11-18,0.9061837356179618,0.9061837356179618,0.0,0,False
2022-11-19,0.9061837356179618,0.9061837356179618,0.0,0,False
2022-11-20,0.9061837356179618,0.9061837356179618,0.0,0,False
2022-11-21,0.9061837356179618,0.9061837356179618,0.0,0,False
2022-11-22,0.9061837356179618,0.9061837356179618,0.0,0,False
2022-11-23,0.9061837356179618,0.9061837356179618,0.0,0,False
2022-11-24,0.9061837356179618,0.9061837356179618,0.0,0,False
2022-11-25,0.9061837356179618,0.9061837356179618,0.0,0,False
2022-11-26,0.9061837356179618,0.9061837356179618,0.0,0,False
2022-11-27,0.9061837356179618,0.9061837356179618,0.0,0,False
2022-11-28,0.9061837356179618,0.9061837356179618,0.0,0,False
2022-11-29,0.9061837356179618,0.9061837356179618,0.0,0,False
2022-11-30,0.9061837356179618,0.9061837356179618,0.0,0,False
2022-12-01,0.9061837356179618,0.9061837356179618,0.0,0,False
2022-12-02,0.9061837356179618,0.9061837356179618,0.0,0,False
2022-12-03,0.9061837356179618,0.9061837356179618,0.0,0,False
2022-12-04,0.9061837356179618,0.9061837356179618,0.0,0,False
2022-12-05,0.9061837356179618,0.9061837356179618,0.0,0,False
2022-12-06,0.9061837356179618,0.9061837356179618,0.0,0,False
2022-12-07,0.9061837356179618,0.9061837356179618,0.0,0,False
2022-12-08,0.9061837356179618,0.9061837356179618,0.0,0,False
2022-12-09,0.9061837356179618,0.9061837356179618,0.0,0,False
2022-12-10,0.9061837356179618,0.9061837356179618,0.0,0,False
2022-12-11,0.9061837356179618,0.9061837356179618,0.0,0,False
2022-12-12,0.9061837356179618,0.9061837356179618,0.0,0,False
2022-12-13,0.9061837356179618,0.9061837356179618,0.0,0,False
2022-12-14,0.9061837356179618,0.9061837356179618,0.0,0,False
2022-12-15,0.9061837356179618,0.9061837356179618,0.0,0,False
2022-12-16,0.9061837356179618,0.9061837356179618,0.0,0,False
2022-12-17,0.9061837356179618,0.9061837356179618,0.0,0,False
2022-12-18,0.9061837356179618,0.9061837356179618,0.0,0,False
2022-12-19,0.9061837356179618,0.9061837356179618,0.0,0,False
2022-12-20,0.9061837356179618,0.9061837356179618,0.0,0,False
2022-12-21,0.9061837356179618,0.9061837356179618,0.0,0,False
2022-12-22,0.9061837356179618,0.9061837356179618,0.0,0,False
2022-12-23,0.9061837356179618,0.9061837356179618,0.0,0,False
2022-12-24,0.9061837356179618,0.9061837356179618,0.0,0,False
2022-12-25,0.9061837356179618,0.9061837356179618,0.0,0,False
2022-12-26,0.9061837356179618,0.9061837356179618,0.0,0,False
2022-12-27,0.9061837356179618,0.9061837356179618,0.0,0,False
2022-12-28,0.9061837356179618,0.9061837356179618,0.0,0,False
2022-12-29,0.9061837356179618,0.9061837356179618,0.0,0,False
2022-12-30,0.9061837356179618,0.9061837356179618,0.0,0,False
2022-12-31,0.9061837356179618,0.9061837356179618,0.0,0,False
2023-01-01,0.9061837356179618,0.9061837356179618,0.0,0,False
2023-01-02,0.9061837356179618,0.9061837356179618,0.0,0,False
2023-01-03,0.9061837356179618,0.9061837356179618,0.0,0,False
2023-01-04,0.9061837356179618,0.9061837356179618,0.0,0,False
2023-01-05,0.9061837356179618,0.9061837356179618,0.0,0,False
2023-01-06,0.9061837356179618,0.9061837356179618,0.0,0,False
2023-01-07,0.9061837356179618,0.9061837356179618,0.0,0,False
2023-01-08,0.9061837356179618,0.9061837356179618,0.0,0,False
2023-01-09,0.9061837356179618,0.9061837356179618,0.0,0,False
2023-01-10,0.9061837356179618,0.9061837356179618,0.0,0,False
2023-01-11,0.9061837356179618,0.9061837356179618,0.0,0,False
2023-01-12,0.9061837356179618,0.9061837356179618,0.0,0,False
2023-01-13,0.9061837356179618,0.9061837356179618,0.0,0,False
2023-01-14,0.9061837356179618,0.9061837356179618,0.0,0,False
2023-01-15,0.9061837356179618,0.9061837356179618,0.0,0,False
2023-01-16,0.9061837356179618,0.9061837356179618,0.0,0,False
2023-01-17,0.9061837356179618,0.9061837356179618,0.0,0,False
2023-01-18,0.9061837356179618,0.9061837356179618,0.0,0,False
2023-01-19,0.9061837356179618,0.9061837356179618,0.0,0,False
2023-01-20,0.9061837356179618,0.9061837356179618,0.0,0,False
2023-01-21,0.9061837356179618,0.9061837356179618,0.0,0,False
2023-01-22,0.9061837356179618,0.9061837356179618,0.0,0,False
2023-01-23,0.9061837356179618,0.9061837356179618,0.0,0,False
2023-01-24,0.9061837356179618,0.9061837356179618,0.0,0,False
2023-01-25,0.9061837356179618,0.9061837356179618,0.0,0,False
2023-01-26,0.9061837356179618,0.9061837356179618,0.0,0,False
2023-01-27,0.9061837356179618,0.9061837356179618,0.0,0,False
2023-01-28,0.9061837356179618,0.9061837356179618,0.0,0,False
2023-01-29,0.9061837356179618,0.9061837356179618,0.0,0,False
2023-01-30,0.9061837356179618,0.9061837356179618,0.0,0,False
2023-01-31,0.9061837356179618,0.9061837356179618,0.0,0,False
2023-02-01,0.9061837356179618,0.9061837356179618,0.0,0,False
2023-02-02,0.9061837356179618,0.9061837356179618,0.0,0,False
2023-02-03,0.9061837356179618,0.9061837356179618,0.0,0,False
2023-02-04,0.9061837356179618,0.9061837356179618,0.0,0,False
2023-02-05,0.9061837356179618,0.9061837356179618,0.0,0,False
2023-02-06,0.9061837356179618,0.9061837356179618,0.0,0,False
2023-02-07,0.9061837356179618,0.9061837356179618,0.0,0,False
2023-02-08,0.9061837356179618,0.9061837356179618,0.0,0,False
2023-02-09,0.9061837356179618,0.9061837356179618,0.0,0,False
2023-02-10,0.9061837356179618,0.9061837356179618,0.0,0,False
2023-02-11,0.9061837356179618,0.9061837356179618,0.0,0,False
2023-02-12,0.9061837356179618,0.9061837356179618,0.0,0,False
2023-02-13,0.9061837356179618,0.9061837356179618,0.0,0,False
2023-02-14,0.9061837356179618,0.9061837356179618,0.0,0,False
2023-02-15,0.9061837356179618,0.9061837356179618,0.0,0,False
2023-02-16,0.9061837356179618,0.9061837356179618,0.0,0,False
2023-02-17,0.9061837356179618,0.9061837356179618,0.0,0,False
2023-02-18,0.9061837356179618,0.9061837356179618,0.0,0,False
2023-02-19,0.9061837356179618,0.9061837356179618,0.0,0,False
2023-02-20,0.9061837356179618,0.9061837356179618,0.0,0,False
2023-02-21,0.9061837356179618,0.9061837356179618,0.0,0,False
2023-02-22,0.9061837356179618,0.9061837356179618,0.0,0,False
2023-02-23,0.9061837356179618,0.9061837356179618,0.0,0,False
2023-02-24,0.9061837356179618,0.9061837356179618,0.0,0,False
2023-02-25,0.9061837356179618,0.9061837356179618,0.0,0,False
2023-02-26,0.9061837356179618,0.9061837356179618,0.0,0,False
2023-02-27,0.9061837356179618,0.9061837356179618,0.0,0,False
2023-02-28,0.9061837356179618,0.9061837356179618,0.0,0,False
2023-03-01,0.9061837356179618,0.9061837356179618,0.0,0,False
2023-03-02,0.9061837356179618,0.9061837356179618,0.0,0,False
2023-03-03,0.9061837356179618,0.9061837356179618,0.0,0,False
2023-03-04,0.9061837356179618,0.9061837356179618,0.0,0,False
2023-03-05,0.9061837356179618,0.9061837356179618,0.0,0,False
2023-03-06,0.9061837356179618,0.9061837356179618,0.0,0,False
2023-03-07,0.9061837356179618,0.9061837356179618,0.0,0,False
2023-03-08,0.9061837356179618,0.9061837356179618,0.0,0,False
2023-03-09,0.9061837356179618,0.9061837356179618,0.0,0,False
2023-03-10,0.9061837356179618,0.9061837356179618,0.0,0,False
2023-03-11,0.9061837356179618,0.9061837356179618,0.0,0,False
2023-03-12,0.9061837356179618,0.9061837356179618,0.0,0,False
2023-03-13,0.9061837356179618,0.9061837356179618,0.0,0,False
2023-03-14,0.9061837356179618,0.9061837356179618,0.0,0,False
2023-03-15,0.9061837356179618,0.9061837356179618,0.0,0,False
2023-03-16,0.9061837356179618,0.9061837356179618,0.0,0,False
2023-03-17,0.9061837356179618,0.9061837356179618,0.0,0,False
2023-03-18,0.9061837356179618,0.9061837356179618,0.0,0,False
2023-03-19,0.9061837356179618,0.9061837356179618,0.0,0,False
2023-03-20,0.9061837356179618,0.9061837356179618,0.0,0,False
2023-03-21,0.9061837356179618,0.9061837356179618,0.0,0,False
2023-03-22,0.9061837356179618,0.9061837356179618,0.0,0,False
2023-03-23,0.9061837356179618,0.9061837356179618,0.0,0,False
2023-03-24,0.9061837356179618,0.9061837356179618,0.0,0,False
2023-03-25,0.9061837356179618,0.9061837356179618,0.0,0,False
2023-03-26,0.9061837356179618,0.9061837356179618,0.0,0,False
2023-03-27,0.9061837356179618,0.9061837356179618,0.0,0,False
2023-03-28,0.9061837356179618,0.9061837356179618,0.0,0,False
2023-03-29,0.9061837356179618,0.9061837356179618,0.0,0,False
2023-03-30,0.9061837356179618,0.9061837356179618,0.0,0,False
2023-03-31,0.9061837356179618,0.9061837356179618,0.0,0,False
2023-04-01,0.9061837356179618,0.9061837356179618,0.0,0,False
2023-04-02,0.9061837356179618,0.9061837356179618,0.0,0,False
2023-04-03,0.9061837356179618,0.9061837356179618,0.0,0,False
2023-04-04,0.9061837356179618,0.9061837356179618,0.0,0,False
2023-04-05,0.9061837356179618,0.9061837356179618,0.0,0,False
2023-04-06,0.9061837356179618,0.9061837356179618,0.0,0,False
2023-04-07,0.9061837356179618,0.9061837356179618,0.0,0,False
2023-04-08,0.9061837356179618,0.9061837356179618,0.0,0,False
2023-04-09,0.9061837356179618,0.9061837356179618,0.0,0,False
2023-04-10,0.9061837356179618,0.9061837356179618,0.0,0,False
2023-04-11,0.9061837356179618,0.9061837356179618,0.0,0,False
2023-04-12,0.9061837356179618,0.9061837356179618,0.0,0,False
2023-04-13,0.9061837356179618,0.9061837356179618,0.0,0,False
2023-04-14,0.9061837356179618,0.9061837356179618,0.0,0,False
2023-04-15,0.9061837356179618,0.9061837356179618,0.0,0,False
2023-04-16,0.9061837356179618,0.9061837356179618,0.0,0,False
2023-04-17,0.9061837356179618,0.9061837356179618,0.0,0,False
2023-04-18,0.9061837356179618,0.9061837356179618,0.0,0,False
2023-04-19,0.9061837356179618,0.9061837356179618,0.0,0,False
2023-04-20,0.9061837356179618,0.9061837356179618,0.0,0,False
2023-04-21,0.9061837356179618,0.9061837356179618,0.0,0,False
2023-04-22,0.9061837356179618,0.9061837356179618,0.0,0,False
2023-04-23,0.9061837356179618,0.9061837356179618,0.0,0,False
2023-04-24,0.9061837356179618,0.9061837356179618,0.0,0,False
2023-04-25,0.9061837356179618,0.9061837356179618,0.0,0,False
2023-04-26,0.9061837356179618,0.9061837356179618,0.0,0,False
2023-04-27,0.9061837356179618,0.9061837356179618,0.0,0,False
2023-04-28,0.9061837356179618,0.9061837356179618,0.0,0,False
2023-04-29,0.9061837356179618,0.9061837356179618,0.0,0,False
2023-04-30,0.9061837356179618,0.9061837356179618,0.0,0,False
2023-05-01,0.9061837356179618,0.9061837356179618,0.0,0,False
2023-05-02,0.9061837356179618,0.9061837356179618,0.0,0,False
2023-05-03,0.9061837356179618,0.9061837356179618,0.0,0,False
2023-05-04,0.9061837356179618,0.9061837356179618,0.0,0,False
2023-05-05,0.9061837356179618,0.9061837356179618,0.0,0,False
2023-05-06,0.9061837356179618,0.9061837356179618,0.0,0,False
2023-05-07,0.9061837356179618,0.9061837356179618,0.0,0,False
2023-05-08,0.9061837356179618,0.9061837356179618,0.0,0,False
2023-05-09,0.9061837356179618,0.9061837356179618,0.0,0,False
2023-05-10,0.9061837356179618,0.9061837356179618,0.0,0,False
2023-05-11,0.9061837356179618,0.9061837356179618,0.0,0,False
2023-05-12,0.9061837356179618,0.9061837356179618,0.0,0,False
2023-05-13,0.9061837356179618,0.9061837356179618,0.0,0,False
2023-05-14,0.9061837356179618,0.9061837356179618,0.0,0,False
2023-05-15,0.9061837356179618,0.9061837356179618,0.0,0,False
2023-05-16,0.9061837356179618,0.9061837356179618,0.0,0,False
2023-05-17,0.9061837356179618,0.9061837356179618,0.0,0,False
2023-05-18,0.9061837356179618,0.9061837356179618,0.0,0,False
2023-05-19,0.9061837356179618,0.9061837356179618,0.0,0,False
2023-05-20,0.9061837356179618,0.9061837356179618,0.0,0,False
2023-05-21,0.9061837356179618,0.9061837356179618,0.0,0,False
2023-05-22,0.9061837356179618,0.9061837356179618,0.0,0,False
2023-05-23,0.9061837356179618,0.9061837356179618,0.0,0,False
2023-05-24,0.9061837356179618,0.9061837356179618,0.0,0,False
2023-05-25,0.9061837356179618,0.9061837356179618,0.0,0,False
2023-05-26,0.9061837356179618,0.9061837356179618,0.0,0,False
2023-05-27,0.9061837356179618,0.9061837356179618,0.0,0,False
2023-05-28,0.9061837356179618,0.9061837356179618,0.0,0,False
2023-05-29,0.9061837356179618,0.9061837356179618,0.0,0,False
2023-05-30,0.9061837356179618,0.9061837356179618,0.0,0,False
2023-05-31,0.9061837356179618,0.9061837356179618,0.0,0,False
2023-06-01,0.9061837356179618,0.9061837356179618,0.0,0,False
2023-06-02,0.9061837356179618,0.9061837356179618,0.0,0,False
2023-06-03,0.9061837356179618,0.9061837356179618,0.0,0,False
2023-06-04,0.9061837356179618,0.9061837356179618,0.0,0,False
2023-06-05,0.9061837356179618,0.9061837356179618,0.0,0,False
2023-06-06,0.9061837356179618,0.9061837356179618,0.0,0,False
2023-06-07,0.9061837356179618,0.9061837356179618,0.0,0,False
2023-06-08,0.9061837356179618,0.9061837356179618,0.0,0,False
2023-06-09,0.9061837356179618,0.9061837356179618,0.0,0,False
2023-06-10,0.9061837356179618,0.9061837356179618,0.0,0,False
2023-06-11,0.9061837356179618,0.9061837356179618,0.0,0,False
2023-06-12,0.9061837356179618,0.9061837356179618,0.0,0,False
2023-06-13,0.9061837356179618,0.9061837356179618,0.0,0,False
2023-06-14,0.9061837356179618,0.9061837356179618,0.0,0,False
2023-06-15,0.9061837356179618,0.9061837356179618,0.0,0,False
2023-06-16,0.9061837356179618,0.9061837356179618,0.0,0,False
2023-06-17,0.9061837356179618,0.9061837356179618,0.0,0,False
2023-06-18,0.9061837356179618,0.9061837356179618,0.0,0,False
2023-06-19,0.9061837356179618,0.9061837356179618,0.0,0,False
2023-06-20,0.9061837356179618,0.9061837356179618,0.0,0,False
2023-06-21,0.9061837356179618,0.9061837356179618,0.0,0,False
2023-06-22,0.9061837356179618,0.9061837356179618,0.0,0,False
2023-06-23,0.9061837356179618,0.9061837356179618,0.0,0,False
2023-06-24,0.9061837356179618,0.9061837356179618,0.0,0,False
2023-06-25,0.9061837356179618,0.9061837356179618,0.0,0,False
2023-06-26,0.9061837356179618,0.9061837356179618,0.0,0,False
2023-06-27,0.9061837356179618,0.9061837356179618,0.0,0,False
2023-06-28,0.9061837356179618,0.9061837356179618,0.0,0,False
2023-06-29,0.9061837356179618,0.9061837356179618,0.0,0,False
2023-06-30,0.9061837356179618,0.9061837356179618,0.0,0,False
2023-07-01,0.9061837356179618,0.9061837356179618,0.0,0,False
2023-07-02,0.9061837356179618,0.9061837356179618,0.0,0,False
2023-07-03,0.9061837356179618,0.9061837356179618,0.0,0,False
2023-07-04,0.9061837356179618,0.9061837356179618,0.0,0,False
2023-07-05,0.9061837356179618,0.9061837356179618,0.0,0,False
2023-07-06,0.9061837356179618,0.9061837356179618,0.0,0,False
2023-07-07,0.9061837356179618,0.9061837356179618,0.0,0,False
2023-07-08,0.9061837356179618,0.9061837356179618,0.0,0,False
2023-07-09,0.9061837356179618,0.9061837356179618,0.0,0,False
2023-07-10,0.9061837356179618,0.9061837356179618,0.0,0,False
2023-07-11,0.9061837356179618,0.9061837356179618,0.0,0,False
2023-07-12,0.9061837356179618,0.9061837356179618,0.0,0,False
2023-07-13,0.9061837356179618,0.9061837356179618,0.0,0,False
2023-07-14,0.9061837356179618,0.9061837356179618,0.0,0,False
2023-07-15,0.9061837356179618,0.9061837356179618,0.0,0,False
2023-07-16,0.9061837356179618,0.9061837356179618,0.0,0,False
2023-07-17,0.9061837356179618,0.9061837356179618,0.0,0,False
2023-07-18,0.9061837356179618,0.9061837356179618,0.0,0,False
2023-07-19,0.9061837356179618,0.9061837356179618,0.0,0,False
2023-07-20,0.9061837356179618,0.9061837356179618,0.0,0,False
2023-07-21,0.9061837356179618,0.9061837356179618,0.0,0,False
2023-07-22,0.9061837356179618,0.9061837356179618,0.0,0,False
2023-07-23,0.9061837356179618,0.9061837356179618,0.0,0,False
2023-07-24,0.9061837356179618,0.9061837356179618,0.0,0,False
2023-07-25,0.9061837356179618,0.9061837356179618,0.0,0,False
2023-07-26,0.9061837356179618,0.9061837356179618,0.0,0,False
2023-07-27,0.9061837356179618,0.9061837356179618,0.0,0,False
2023-07-28,0.9061837356179618,0.9061837356179618,0.0,0,False
2023-07-29,0.9061837356179618,0.9061837356179618,0.0,0,False
2023-07-30,0.9061837356179618,0.9061837356179618,0.0,0,False
2023-07-31,0.9061837356179618,0.9061837356179618,0.0,0,False
2023-08-01,0.9061837356179618,0.9061837356179618,0.0,0,False
2023-08-02,0.9061837356179618,0.9061837356179618,0.0,0,False
2023-08-03,0.9061837356179618,0.9061837356179618,0.0,0,False
2023-08-04,0.9061837356179618,0.9061837356179618,0.0,0,False
2023-08-05,0.9061837356179618,0.9061837356179618,0.0,0,False
2023-08-06,0.9061837356179618,0.9061837356179618,0.0,0,False
2023-08-07,0.9061837356179618,0.9061837356179618,0.0,0,False
2023-08-08,0.9061837356179618,0.9061837356179618,0.0,0,False
2023-08-09,0.9061837356179618,0.9061837356179618,0.0,0,False
2023-08-10,0.9061837356179618,0.9061837356179618,0.0,0,False
2023-08-11,0.9061837356179618,0.9061837356179618,0.0,0,False
2023-08-12,0.9061837356179618,0.9061837356179618,0.0,0,False
2023-08-13,0.9061837356179618,0.9061837356179618,0.0,0,False
2023-08-14,0.9061837356179618,0.9061837356179618,0.0,0,False
2023-08-15,0.9061837356179618,0.9061837356179618,0.0,0,False
2023-08-16,0.9061837356179618,0.9061837356179618,0.0,0,False
2023-08-17,0.9061837356179618,0.9061837356179618,0.0,0,False
2023-08-18,0.9061837356179618,0.9061837356179618,0.0,0,False
2023-08-19,0.9061837356179618,0.9061837356179618,0.0,0,False
2023-08-20,0.9061837356179618,0.9061837356179618,0.0,0,False
2023-08-21,0.9061837356179618,0.9061837356179618,0.0,0,False
2023-08-22,0.9061837356179618,0.9061837356179618,0.0,0,False
2023-08-23,0.9061837356179618,0.9061837356179618,0.0,0,False
2023-08-24,0.9061837356179618,0.9061837356179618,0.0,0,False
2023-08-25,0.9061837356179618,0.9061837356179618,0.0,0,False
2023-08-26,0.9061837356179618,0.9061837356179618,0.0,0,False
2023-08-27,0.9061837356179618,0.9061837356179618,0.0,0,False
2023-08-28,0.9061837356179618,0.9061837356179618,0.0,0,False
2023-08-29,0.9061837356179618,0.9061837356179618,0.0,0,False
2023-08-30,0.9061837356179618,0.9061837356179618,0.0,0,False
2023-08-31,0.9061837356179618,0.9061837356179618,0.0,0,False
2023-09-01,0.9061837356179618,0.9061837356179618,0.0,0,False
2023-09-02,0.9061837356179618,0.9061837356179618,0.0,0,False
2023-09-03,0.9061837356179618,0.9061837356179618,0.0,0,False
2023-09-04,0.9061837356179618,0.9061837356179618,0.0,0,False
2023-09-05,0.9061837356179618,0.9061837356179618,0.0,0,False
2023-09-06,0.9061837356179618,0.9061837356179618,0.0,0,False
2023-09-07,0.9061837356179618,0.9061837356179618,0.0,0,False
2023-09-08,0.9061837356179618,0.9061837356179618,0.0,0,False
2023-09-09,0.9061837356179618,0.9061837356179618,0.0,0,False
2023-09-10,0.9061837356179618,0.9061837356179618,0.0,0,False
2023-09-11,0.9061837356179618,0.9061837356179618,0.0,0,False
2023-09-12,0.9061837356179618,0.9061837356179618,0.0,0,False
2023-09-13,0.9061837356179618,0.9061837356179618,0.0,0,False
2023-09-14,0.9061837356179618,0.9061837356179618,0.0,0,False
2023-09-15,0.9061837356179618,0.9061837356179618,0.0,0,False
2023-09-16,0.9061837356179618,0.9061837356179618,0.0,0,False
2023-09-17,0.9061837356179618,0.9061837356179618,0.0,0,False
2023-09-18,0.9061837356179618,0.9061837356179618,0.0,0,False
2023-09-19,0.9061837356179618,0.9061837356179618,0.0,0,False
2023-09-20,0.9061837356179618,0.9061837356179618,0.0,0,False
2023-09-21,0.9061837356179618,0.9061837356179618,0.0,0,False
2023-09-22,0.9061837356179618,0.9061837356179618,0.0,0,False
2023-09-23,0.9061837356179618,0.9061837356179618,0.0,0,False
2023-09-24,0.9061837356179618,0.9061837356179618,0.0,0,False
2023-09-25,0.9061837356179618,0.9061837356179618,0.0,0,False
2023-09-26,0.9061837356179618,0.9061837356179618,0.0,0,False
2023-09-27,0.9061837356179618,0.9061837356179618,0.0,0,False
2023-09-28,0.9061837356179618,0.9061837356179618,0.0,0,False
2023-09-29,0.9061837356179618,0.9061837356179618,0.0,0,False
2023-09-30,0.9061837356179618,0.9061837356179618,0.0,0,False
2023-10-01,0.9061837356179618,0.9061837356179618,0.0,0,False
2023-10-02,0.9061837356179618,0.9061837356179618,0.0,0,False
2023-10-03,0.9061837356179618,0.9061837356179618,0.0,0,False
2023-10-04,0.9061837356179618,0.9061837356179618,0.0,0,False
2023-10-05,0.9061837356179618,0.9061837356179618,0.0,0,False
2023-10-06,0.9061837356179618,0.9061837356179618,0.0,0,False
2023-10-07,0.9061837356179618,0.9061837356179618,0.0,0,False
2023-10-08,0.9061837356179618,0.9061837356179618,0.0,0,False
2023-10-09,0.9061837356179618,0.9061837356179618,0.0,0,False
2023-10-10,0.9061837356179618,0.9061837356179618,0.0,0,False
2023-10-11,0.9061837356179618,0.9061837356179618,0.0,0,False
2023-10-12,0.9061837356179618,0.9061837356179618,0.0,0,False
2023-10-13,0.9061837356179618,0.9061837356179618,0.0,0,False
2023-10-14,0.9061837356179618,0.9061837356179618,0.0,0,False
2023-10-15,0.9061837356179618,0.9061837356179618,0.0,0,False
2023-10-16,0.9061837356179618,0.9061837356179618,0.0,0,False
2023-10-17,0.9061837356179618,0.9061837356179618,0.0,0,False
2023-10-18,0.9061837356179618,0.9061837356179618,0.0,0,False
2023-10-19,0.9061837356179618,0.9061837356179618,0.0,0,False
2023-10-20,0.9061837356179618,0.9061837356179618,0.0,0,False
2023-10-21,0.9061837356179618,0.9061837356179618,0.0,0,False
2023-10-22,0.9061837356179618,0.9061837356179618,0.0,0,False
2023-10-23,0.9061837356179618,0.9061837356179618,0.0,0,False
2023-10-24,0.9061837356179618,0.9061837356179618,0.0,0,False
2023-10-25,0.9061837356179618,0.9061837356179618,0.0,0,False
2023-10-26,0.9061837356179618,0.9061837356179618,0.0,0,False
2023-10-27,0.9061837356179618,0.9061837356179618,0.0,0,False
2023-10-28,0.9061837356179618,0.9061837356179618,0.0,0,False
2023-10-29,0.9061837356179618,0.9061837356179618,0.0,0,False
2023-10-30,0.9061837356179618,0.9061837356179618,0.0,0,False
2023-10-31,0.9061837356179618,0.9061837356179618,0.0,0,False
2023-11-01,0.9061837356179618,0.9061837356179618,0.0,0,False
2023-11-02,0.9061837356179618,0.9061837356179618,0.0,0,False
2023-11-03,0.9061837356179618,0.9061837356179618,0.0,0,False
2023-11-04,0.9061837356179618,0.9061837356179618,0.0,0,False
2023-11-05,0.9061837356179618,0.9061837356179618,0.0,0,False
2023-11-06,0.9061837356179618,0.9061837356179618,0.0,0,False
2023-11-07,0.9061837356179618,0.9061837356179618,0.0,0,False
2023-11-08,0.9061837356179618,0.9061837356179618,0.0,0,False
2023-11-09,0.9061837356179618,0.9061837356179618,0.0,0,False
2023-11-10,0.9061837356179618,0.9061837356179618,0.0,0,False
2023-11-11,0.9061837356179618,0.9061837356179618,0.0,0,False
2023-11-12,0.9061837356179618,0.9061837356179618,0.0,0,False
2023-11-13,0.9061837356179618,0.9061837356179618,0.0,0,False
2023-11-14,0.9061837356179618,0.9061837356179618,0.0,0,False
2023-11-15,0.9061837356179618,0.9061837356179618,0.0,0,False
2023-11-16,0.9061837356179618,0.9061837356179618,0.0,0,False
2023-11-17,0.9061837356179618,0.9061837356179618,0.0,0,False
2023-11-18,0.9061837356179618,0.9061837356179618,0.0,0,False
2023-11-19,0.9061837356179618,0.9061837356179618,0.0,0,False
2023-11-20,0.9061837356179618,0.9061837356179618,0.0,0,False
2023-11-21,0.9061837356179618,0.9061837356179618,0.0,0,False
2023-11-22,0.9061837356179618,0.9061837356179618,0.0,0,False
2023-11-23,0.9061837356179618,0.9061837356179618,0.0,0,False
2023-11-24,0.9061837356179618,0.9061837356179618,0.0,0,False
2023-11-25,0.9061837356179618,0.9061837356179618,0.0,0,False
2023-11-26,0.9061837356179618,0.9061837356179618,0.0,0,False
2023-11-27,0.9061837356179618,0.9061837356179618,0.0,0,False
2023-11-28,0.9061837356179618,0.9061837356179618,0.0,0,False
2023-11-29,0.9061837356179618,0.9061837356179618,0.0,0,False
2023-11-30,0.9061837356179618,0.9061837356179618,0.0,0,False
2023-12-01,0.9061837356179618,0.9061837356179618,0.0,0,False
2023-12-02,0.9061837356179618,0.9061837356179618,0.0,0,False
2023-12-03,0.9061837356179618,0.9061837356179618,0.0,0,False
2023-12-04,0.9061837356179618,0.9061837356179618,0.0,0,False
2023-12-05,0.9061837356179618,0.9061837356179618,0.0,0,False
2023-12-06,0.9061837356179618,0.9061837356179618,0.0,0,False
2023-12-07,0.9061837356179618,0.9061837356179618,0.0,0,False
2023-12-08,0.9061837356179618,0.9061837356179618,0.0,0,False
2023-12-09,0.9061837356179618,0.9061837356179618,0.0,0,False
2023-12-10,0.9061837356179618,0.9061837356179618,0.0,0,False
2023-12-11,0.9061837356179618,0.9061837356179618,0.0,0,False
2023-12-12,0.9061837356179618,0.9061837356179618,0.0,0,False
2023-12-13,0.9061837356179618,0.9061837356179618,0.0,0,False
2023-12-14,0.9061837356179618,0.9061837356179618,0.0,0,False
2023-12-15,0.9061837356179618,0.9061837356179618,0.0,0,False
2023-12-16,0.9061837356179618,0.9061837356179618,0.0,0,False
2023-12-17,0.9061837356179618,0.9061837356179618,0.0,0,False
2023-12-18,0.9061837356179618,0.9061837356179618,0.0,0,False
2023-12-19,0.9061837356179618,0.9061837356179618,0.0,0,False
2023-12-20,0.9061837356179618,0.9061837356179618,0.0,0,False
2023-12-21,0.9061837356179618,0.9061837356179618,0.0,0,False
2023-12-22,0.9061837356179618,0.9061837356179618,0.0,0,False
2023-12-23,0.9061837356179618,0.9061837356179618,0.0,0,False
2023-12-24,0.9061837356179618,0.9061837356179618,0.0,0,False
2023-12-25,0.9061837356179618,0.9061837356179618,0.0,0,False
2023-12-26,0.9061837356179618,0.9061837356179618,0.0,0,False
2023-12-27,0.9061837356179618,0.9061837356179618,0.0,0,False
2023-12-28,0.9061837356179618,0.9061837356179618,0.0,0,False
2023-12-29,0.9061837356179618,0.9061837356179618,0.0,0,False
2023-12-30,0.9061837356179618,0.9061837356179618,0.0,0,False
2023-12-31,0.9061837356179618,0.9061837356179618,0.0,0,False
