day,start_equity,end_equity,return_pct,entries,active
2021-09-02,1.0,1.0,0.0,0,False
2021-09-03,1.0,1.0,0.0,0,False
2021-09-04,1.0,1.0,0.0,0,False
2021-09-05,1.0,1.0,0.0,0,False
2021-09-06,1.0,1.0,0.0,0,False
2021-09-07,1.0,1.0,0.0,0,False
2021-09-08,1.0,1.0,0.0,0,False
2021-09-09,1.0,1.0,0.0,0,False
2021-09-10,1.0,1.0,0.0,0,False
2021-09-11,1.0,1.0,0.0,0,False
2021-09-12,1.0,1.0,0.0,0,False
2021-09-13,1.0,1.0,0.0,0,False
2021-09-14,1.0,1.0,0.0,0,False
2021-09-15,1.0,1.0,0.0,0,False
2021-09-16,1.0,1.0,0.0,0,False
2021-09-17,1.0,1.0,0.0,0,False
2021-09-18,1.0,1.0,0.0,0,False
2021-09-19,1.0,1.0,0.0,0,False
2021-09-20,1.0,1.0,0.0,0,False
2021-09-21,1.0,1.0,0.0,0,False
2021-09-22,1.0,1.0,0.0,0,False
2021-09-23,1.0,1.0,0.0,0,False
2021-09-24,1.0,1.0,0.0,0,False
2021-09-25,1.0,1.0,0.0,0,False
2021-09-26,1.0,1.0,0.0,0,False
2021-09-27,1.0,1.0,0.0,0,False
2021-09-28,1.0,1.0,0.0,0,False
2021-09-29,1.0,1.0,0.0,0,False
2021-09-30,1.0,1.0,0.0,0,False
2021-10-01,1.0,1.0,0.0,0,False
2021-10-02,1.0,1.0,0.0,0,False
2021-10-03,1.0,1.0,0.0,0,False
2021-10-04,1.0,1.0,0.0,0,False
2021-10-05,1.0,1.0,0.0,0,False
2021-10-06,1.0,0.9900197364997588,-0.9980263500241171,2,True
2021-10-07,0.9900197364997588,0.9900197364997588,0.0,0,False
2021-10-08,0.9900197364997588,0.9900197364997588,0.0,0,False
2021-10-09,0.9900197364997588,0.9900197364997588,0.0,0,False
2021-10-10,0.9900197364997588,0.9900197364997588,0.0,0,False
2021-10-11,0.9900197364997588,0.9900197364997588,0.0,0,False
2021-10-12,0.9900197364997588,0.9900197364997588,0.0,0,False
2021-10-13,0.9900197364997588,0.9983984402543568,0.8463168405330013,1,True
2021-10-14,0.9983984402543568,1.0046021379821388,0.6213649258307807,0,True
2021-10-15,1.0046021379821388,1.0008949547326818,-0.36902004378602804,2,True
2021-10-16,1.0008949547326818,0.9874617911871857,-1.3421152221797072,2,True
2021-10-17,0.9874617911871857,0.9874617911871857,0.0,0,False
2021-10-18,0.9874617911871857,0.9874617911871857,0.0,0,False
2021-10-19,0.9874617911871857,0.9874617911871857,0.0,0,False
2021-10-20,0.9874617911871857,0.9874617911871857,0.0,0,False
2021-10-21,0.9874617911871857,0.9874617911871857,0.0,0,False
2021-10-22,0.9874617911871857,0.9874617911871857,0.0,0,False
2021-10-23,0.9874617911871857,0.9874617911871857,0.0,0,False
2021-10-24,0.9874617911871857,0.9874617911871857,0.0,0,False
2021-10-25,0.9874617911871857,0.9941288942603315,0.6751758025118404,1,True
2021-10-26,0.9941288942603315,0.9941288942603315,0.0,0,False
2021-10-27,0.9941288942603315,1.0168622782868477,2.2867642372904395,4,True
2021-10-28,1.0168622782868477,1.0124134434955299,-0.4375061290318505,0,True
2021-10-29,1.0124134434955299,1.0124134434955299,0.0,0,False
2021-10-30,1.0124134434955299,1.0107578599163214,-0.16352840727720253,1,True
2021-10-31,1.0107578599163214,0.9992470464363681,-1.1388299746594388,4,True
2021-11-01,0.9992470464363681,0.9871004834850654,-1.2155715640712828,2,True
2021-11-02,0.9871004834850654,0.9871004834850654,0.0,0,False
2021-11-03,0.9871004834850654,0.9871004834850654,0.0,0,False
2021-11-04,0.9871004834850654,0.9857303902758484,-0.13879977085815565,1,True
2021-11-05,0.9857303902758484,0.9857303902758484,0.0,0,False
2021-11-06,0.9857303902758484,0.9857303902758484,0.0,0,False
2021-11-07,0.9857303902758484,0.9857303902758484,0.0,0,False
2021-11-08,0.9857303902758484,0.9857303902758484,0.0,0,False
2021-11-09,0.9857303902758484,0.9857303902758484,0.0,0,False
2021-11-10,0.9857303902758484,0.9857303902758484,0.0,0,False
2021-11-11,0.9857303902758484,1.0109337999682493,2.5568258766322405,6,True
2021-11-12,1.0109337999682493,1.0058856011482402,-0.49935997986887415,1,True
2021-11-13,1.0058856011482402,1.0058856011482402,0.0,0,False
2021-11-14,1.0058856011482402,1.0058856011482402,0.0,0,False
2021-11-15,1.0058856011482402,1.0058856011482402,0.0,0,False
2021-11-16,1.0058856011482402,1.056490138698356,5.030844212537655,4,True
2021-11-17,1.056490138698356,1.0688921225651038,1.1738854356016626,0,True
2021-11-18,1.0688921225651038,1.0635508691068583,-0.499699955260946,1,True
2021-11-19,1.0635508691068583,1.0635508691068583,0.0,0,False
2021-11-20,1.0635508691068583,1.0635508691068583,0.0,0,False
2021-11-21,1.0635508691068583,1.0635508691068583,0.0,0,False
2021-11-22,1.0635508691068583,1.0635508691068583,0.0,0,False
2021-11-23,1.0635508691068583,1.0635508691068583,0.0,0,False
2021-11-24,1.0635508691068583,1.0635508691068583,0.0,0,False
2021-11-25,1.0635508691068583,1.058239683908286,-0.49938233824513567,1,True
2021-11-26,1.058239683908286,1.0641878424671207,0.5620804671458757,6,True
2021-11-27,1.0641878424671207,1.0614525972769289,-0.257026539962224,0,True
2021-11-28,1.0614525972769289,1.0561540572722243,-0.499178203369377,1,True
2021-11-29,1.0561540572722243,1.0561540572722243,0.0,0,False
2021-11-30,1.0561540572722243,1.0561540572722243,0.0,0,False
2021-12-01,1.0561540572722243,1.0520934995646656,-0.38446642131415576,1,True
2021-12-02,1.0520934995646656,1.0547311376440416,0.2507037711446225,2,True
2021-12-03,1.0547311376440416,1.0437571310836542,-1.0404553510101278,1,True
2021-12-04,1.0437571310836542,1.0313712382335931,-1.186664261369097,13,True
2021-12-05,1.0313712382335931,1.0299570011133732,-0.13712202432967224,0,True
2021-12-06,1.0299570011133732,1.0299570011133732,0.0,0,False
2021-12-07,1.0299570011133732,1.0299570011133732,0.0,0,False
2021-12-08,1.0299570011133732,1.0299570011133732,0.0,0,False
2021-12-09,1.0299570011133732,1.0299570011133732,0.0,0,False
2021-12-10,1.0299570011133732,1.0299570011133732,0.0,0,False
2021-12-11,1.0299570011133732,1.0299570011133732,0.0,0,False
2021-12-12,1.0299570011133732,1.0299570011133732,0.0,0,False
2021-12-13,1.0299570011133732,1.0299570011133732,0.0,0,False
2021-12-14,1.0299570011133732,1.0299570011133732,0.0,0,False
2021-12-15,1.0299570011133732,1.0299570011133732,0.0,0,False
2021-12-16,1.0299570011133732,1.0299570011133732,0.0,0,False
2021-12-17,1.0299570011133732,1.0290070918941627,-0.09222804623723047,1,True
2021-12-18,1.0290070918941627,1.0290070918941627,0.0,0,False
2021-12-19,1.0290070918941627,1.0290070918941627,0.0,0,False
2021-12-20,1.0290070918941627,1.0290070918941627,0.0,0,False
2021-12-21,1.0290070918941627,1.0290070918941627,0.0,0,False
2021-12-22,1.0290070918941627,1.0290070918941627,0.0,0,False
2021-12-23,1.0290070918941627,1.0290070918941627,0.0,0,False
2021-12-24,1.0290070918941627,1.0290070918941627,0.0,0,False
2021-12-25,1.0290070918941627,1.0290070918941627,0.0,0,False
2021-12-26,1.0290070918941627,1.0290070918941627,0.0,0,False
2021-12-27,1.0290070918941627,1.0290070918941627,0.0,0,False
2021-12-28,1.0290070918941627,1.0290070918941627,0.0,0,False
2021-12-29,1.0290070918941627,1.0290070918941627,0.0,0,False
2021-12-30,1.0290070918941627,1.0290070918941627,0.0,0,False
2021-12-31,1.0290070918941627,1.0290070918941627,0.0,0,False
2022-01-01,1.0290070918941627,1.0290070918941627,0.0,0,False
2022-01-02,1.0290070918941627,1.0290070918941627,0.0,0,False
2022-01-03,1.0290070918941627,1.0290070918941627,0.0,0,False
2022-01-04,1.0290070918941627,1.0290070918941627,0.0,0,False
2022-01-05,1.0290070918941627,1.0290070918941627,0.0,0,False
2022-01-06,1.0290070918941627,1.0238764564571308,-0.4986005905544988,1,True
2022-01-07,1.0238764564571308,1.0238764564571308,0.0,0,False
2022-01-08,1.0238764564571308,1.0238764564571308,0.0,0,False
2022-01-09,1.0238764564571308,1.0238764564571308,0.0,0,False
2022-01-10,1.0238764564571308,1.0238764564571308,0.0,0,False
2022-01-11,1.0238764564571308,1.0238764564571308,0.0,0,False
2022-01-12,1.0238764564571308,1.0238764564571308,0.0,0,False
2022-01-13,1.0238764564571308,1.0238764564571308,0.0,0,False
2022-01-14,1.0238764564571308,1.0238764564571308,0.0,0,False
2022-01-15,1.0238764564571308,1.0238764564571308,0.0,0,False
2022-01-16,1.0238764564571308,1.0238764564571308,0.0,0,False
2022-01-17,1.0238764564571308,1.0238764564571308,0.0,0,False
2022-01-18,1.0238764564571308,1.0238764564571308,0.0,0,False
2022-01-19,1.0238764564571308,1.0238764564571308,0.0,0,False
2022-01-20,1.0238764564571308,1.0238764564571308,0.0,0,False
2022-01-21,1.0238764564571308,1.0238764564571308,0.0,0,False
2022-01-22,1.0238764564571308,1.0452142088174319,2.084016311317005,3,True
2022-01-23,1.0452142088174319,1.0504785406300479,0.5036605672029681,0,True
2022-01-24,1.0504785406300479,1.0504785406300479,0.0,0,False
2022-01-25,1.0504785406300479,1.0504785406300479,0.0,0,False
2022-01-26,1.0504785406300479,1.0504785406300479,0.0,0,False
2022-01-27,1.0504785406300479,1.0504785406300479,0.0,0,False
2022-01-28,1.0504785406300479,1.0504785406300479,0.0,0,False
2022-01-29,1.0504785406300479,1.0504785406300479,0.0,0,False
2022-01-30,1.0504785406300479,1.0504785406300479,0.0,0,False
2022-01-31,1.0504785406300479,1.0539101702086175,0.3266729824401349,1,True
2022-02-01,1.0539101702086175,1.0539101702086175,0.0,0,False
2022-02-02,1.0539101702086175,1.0539101702086175,0.0,0,False
2022-02-03,1.0539101702086175,1.0539101702086175,0.0,0,False
2022-02-04,1.0539101702086175,1.0539101702086175,0.0,0,False
2022-02-05,1.0539101702086175,1.0539101702086175,0.0,0,False
2022-02-06,1.0539101702086175,1.0539101702086175,0.0,0,False
2022-02-07,1.0539101702086175,1.0539101702086175,0.0,0,False
2022-02-08,1.0539101702086175,1.0539101702086175,0.0,0,False
2022-02-09,1.0539101702086175,1.0539101702086175,0.0,0,False
2022-02-10,1.0539101702086175,1.0556813601993777,0.1680589143958633,2,True
2022-02-11,1.0556813601993777,1.0433777308745822,-1.1654680842779985,0,True
2022-02-12,1.0433777308745822,1.0433777308745822,0.0,0,False
2022-02-13,1.0433777308745822,1.0433777308745822,0.0,0,False
2022-02-14,1.0433777308745822,1.0433777308745822,0.0,0,False
2022-02-15,1.0433777308745822,1.0433777308745822,0.0,0,False
2022-02-16,1.0433777308745822,1.0433777308745822,0.0,0,False
2022-02-17,1.0433777308745822,1.0433777308745822,0.0,0,False
2022-02-18,1.0433777308745822,1.0433777308745822,0.0,0,False
2022-02-19,1.0433777308745822,1.0433777308745822,0.0,0,False
2022-02-20,1.0433777308745822,1.0433777308745822,0.0,0,False
2022-02-21,1.0433777308745822,1.0433777308745822,0.0,0,False
2022-02-22,1.0433777308745822,1.0433777308745822,0.0,0,False
2022-02-23,1.0433777308745822,1.0433777308745822,0.0,0,False
2022-02-24,1.0433777308745822,1.0433777308745822,0.0,0,False
2022-02-25,1.0433777308745822,1.0433777308745822,0.0,0,False
2022-02-26,1.0433777308745822,1.0433777308745822,0.0,0,False
2022-02-27,1.0433777308745822,1.0433777308745822,0.0,0,False
2022-02-28,1.0433777308745822,1.0433777308745822,0.0,0,False
2022-03-01,1.0433777308745822,1.0433777308745822,0.0,0,False
2022-03-02,1.0433777308745822,1.0433777308745822,0.0,0,False
2022-03-03,1.0433777308745822,1.0433777308745822,0.0,0,False
2022-03-04,1.0433777308745822,1.0433777308745822,0.0,0,False
2022-03-05,1.0433777308745822,1.0433777308745822,0.0,0,False
2022-03-06,1.0433777308745822,1.0433777308745822,0.0,0,False
2022-03-07,1.0433777308745822,1.0433777308745822,0.0,0,False
2022-03-08,1.0433777308745822,1.0433777308745822,0.0,0,False
2022-03-09,1.0433777308745822,1.0433777308745822,0.0,0,False
2022-03-10,1.0433777308745822,1.0433777308745822,0.0,0,False
2022-03-11,1.0433777308745822,1.0433777308745822,0.0,0,False
2022-03-12,1.0433777308745822,1.0433777308745822,0.0,0,False
2022-03-13,1.0433777308745822,1.0433777308745822,0.0,0,False
2022-03-14,1.0433777308745822,1.0433777308745822,0.0,0,False
2022-03-15,1.0433777308745822,1.0433777308745822,0.0,0,False
2022-03-16,1.0433777308745822,1.0433777308745822,0.0,0,False
2022-03-17,1.0433777308745822,1.0433777308745822,0.0,0,False
2022-03-18,1.0433777308745822,1.0433777308745822,0.0,0,False
2022-03-19,1.0433777308745822,1.0433777308745822,0.0,0,False
2022-03-20,1.0433777308745822,1.0433777308745822,0.0,0,False
2022-03-21,1.0433777308745822,1.0433777308745822,0.0,0,False
2022-03-22,1.0433777308745822,1.0433777308745822,0.0,0,False
2022-03-23,1.0433777308745822,1.0433777308745822,0.0,0,False
2022-03-24,1.0433777308745822,1.0433777308745822,0.0,0,False
2022-03-25,1.0433777308745822,1.0433777308745822,0.0,0,False
2022-03-26,1.0433777308745822,1.0462633101308574,0.276561322988611,1,True
2022-03-27,1.0462633101308574,1.0462633101308574,0.0,0,False
2022-03-28,1.0462633101308574,1.05023242768611,0.3793612484371822,1,True
2022-03-29,1.05023242768611,1.05023242768611,0.0,0,False
2022-03-30,1.05023242768611,1.0449847513845592,-0.4996680890069771,1,True
2022-03-31,1.0449847513845592,1.0449847513845592,0.0,0,False
2022-04-01,1.0449847513845592,1.0427165575976118,-0.21705520429289304,1,True
2022-04-02,1.0427165575976118,1.0427165575976118,0.0,0,False
2022-04-03,1.0427165575976118,1.0418319613945444,-0.08483572996150768,1,True
2022-04-04,1.0418319613945444,1.0366317490242287,-0.49914118236062954,1,True
2022-04-05,1.0366317490242287,1.0366317490242287,0.0,0,False
2022-04-06,1.0366317490242287,1.038812710999577,0.2103892705776378,1,True
2022-04-07,1.038812710999577,1.0336290097438698,-0.4990024862825626,1,True
2022-04-08,1.0336290097438698,1.0336290097438698,0.0,0,False
2022-04-09,1.0336290097438698,1.0336290097438698,0.0,0,False
2022-04-10,1.0336290097438698,1.0336290097438698,0.0,0,False
2022-04-11,1.0336290097438698,1.0336290097438698,0.0,0,False
2022-04-12,1.0336290097438698,1.0336290097438698,0.0,0,False
2022-04-13,1.0336290097438698,1.0336290097438698,0.0,0,False
2022-04-14,1.0336290097438698,1.0336290097438698,0.0,0,False
2022-04-15,1.0336290097438698,1.0336290097438698,0.0,0,False
2022-04-16,1.0336290097438698,1.0336290097438698,0.0,0,False
2022-04-17,1.0336290097438698,1.0336290097438698,0.0,0,False
2022-04-18,1.0336290097438698,1.0381445645508844,0.4368641712304111,1,True
2022-04-19,1.0381445645508844,1.0359291877293981,-0.21339771907824545,0,True
2022-04-20,1.0359291877293981,1.0359291877293981,0.0,0,False
2022-04-21,1.0359291877293981,1.0359291877293981,0.0,0,False
2022-04-22,1.0359291877293981,1.0359291877293981,0.0,0,False
2022-04-23,1.0359291877293981,1.0359291877293981,0.0,0,False
2022-04-24,1.0359291877293981,1.0359291877293981,0.0,0,False
2022-04-25,1.0359291877293981,1.0359291877293981,0.0,0,False
2022-04-26,1.0359291877293981,1.0359291877293981,0.0,0,False
2022-04-27,1.0359291877293981,1.030757887079024,-0.4991944151809147,1,True
2022-04-28,1.030757887079024,1.030757887079024,0.0,0,False
2022-04-29,1.030757887079024,1.0256101523004741,-0.4994126014536304,1,True
2022-04-30,1.0256101523004741,1.0256101523004741,0.0,0,False
2022-05-01,1.0256101523004741,1.0395972908805755,1.3637870636057814,4,True
2022-05-02,1.0395972908805755,1.0395972908805755,0.0,0,False
2022-05-03,1.0395972908805755,1.0395972908805755,0.0,0,False
2022-05-04,1.0395972908805755,1.0344061623312428,-0.4993403306135624,1,True
2022-05-05,1.0344061623312428,1.0344061623312428,0.0,0,False
2022-05-06,1.0344061623312428,1.0241060139573057,-0.9957547382281273,2,True
2022-05-07,1.0241060139573057,1.0241060139573057,0.0,0,False
2022-05-08,1.0241060139573057,1.0241060139573057,0.0,0,False
2022-05-09,1.0241060139573057,1.0241060139573057,0.0,0,False
2022-05-10,1.0241060139573057,1.0038614685414444,-1.976801731456801,7,True
2022-05-11,1.0038614685414444,1.0007014703665662,-0.31478428786290147,9,True
2022-05-12,1.0007014703665662,0.970642876680298,-3.0037523253820586,7,True
2022-05-13,0.970642876680298,0.9736434623744333,0.30913384996937854,0,True
2022-05-14,0.9736434623744333,0.9704489200329731,-0.32810186324978563,2,True
2022-05-15,0.9704489200329731,0.9656061117487584,-0.49902763393772087,1,True
2022-05-16,0.9656061117487584,0.9607881773542903,-0.49895442208237606,1,True
2022-05-17,0.9607881773542903,0.9607881773542903,0.0,0,False
2022-05-18,0.9607881773542903,0.9607881773542903,0.0,0,False
2022-05-19,0.9607881773542903,0.9559925708828734,-0.4991325439310246,1,True
2022-05-20,0.9559925708828734,0.9512239841818058,-0.4988100165531306,1,True
2022-05-21,0.9512239841818058,0.9512239841818058,0.0,0,False
2022-05-22,0.9512239841818058,0.9512239841818058,0.0,0,False
2022-05-23,0.9512239841818058,0.9464766070530434,-0.49908089027483893,1,True
2022-05-24,0.9464766070530434,0.9454998421980103,-0.10320010529095702,2,True
2022-05-25,0.9454998421980103,0.9558065897641952,1.0900845358392308,1,True
2022-05-26,0.9558065897641952,0.951034008309003,-0.49932502101388554,1,True
2022-05-27,0.951034008309003,0.9462845431155809,-0.49940014257396914,1,True
2022-05-28,0.9462845431155809,0.9462845431155809,0.0,0,False
2022-05-29,0.9462845431155809,0.9462845431155809,0.0,0,False
2022-05-30,0.9462845431155809,0.9462845431155809,0.0,0,False
2022-05-31,0.9462845431155809,0.9321390307538562,-1.4948476612702044,3,True
2022-06-01,0.9321390307538562,0.9321390307538562,0.0,0,False
2022-06-02,0.9321390307538562,0.9274854615199857,-0.4992355303593432,1,True
2022-06-03,0.9274854615199857,0.9274854615199857,0.0,0,False
2022-06-04,0.9274854615199857,0.9274854615199857,0.0,0,False
2022-06-05,0.9274854615199857,0.9274854615199857,0.0,0,False
2022-06-06,0.9274854615199857,0.9274854615199857,0.0,0,False
2022-06-07,0.9274854615199857,0.9289082241341639,0.15339999096553036,1,True
2022-06-08,0.9289082241341639,0.929233891216646,0.035059123605640785,1,True
2022-06-09,0.929233891216646,0.929233891216646,0.0,0,False
2022-06-10,0.929233891216646,0.9375042641732133,0.8900205895136848,2,True
2022-06-11,0.9375042641732133,0.9328188002045148,-0.49978055010028166,1,True
2022-06-12,0.9328188002045148,0.9475081908127901,1.5747314060410078,4,True
2022-06-13,0.9475081908127901,0.9381359532568561,-0.9891458086388027,3,True
2022-06-14,0.9381359532568561,0.9407670972757274,0.2804651084671761,1,True
2022-06-15,0.9407670972757274,0.9407670972757274,0.0,0,False
2022-06-16,0.9407670972757274,0.967774533913931,2.8707888186578545,4,True
2022-06-17,0.967774533913931,0.9676032368124475,-0.01770010425782287,1,True
2022-06-18,0.9676032368124475,0.9483425519965969,-1.990556054700754,4,True
2022-06-19,0.9483425519965969,0.9483425519965969,0.0,0,False
2022-06-20,0.9483425519965969,0.9483425519965969,0.0,0,False
2022-06-21,0.9483425519965969,0.9483425519965969,0.0,0,False
2022-06-22,0.9483425519965969,0.9483425519965969,0.0,0,False
2022-06-23,0.9483425519965969,0.9483425519965969,0.0,0,False
2022-06-24,0.9483425519965969,0.9483425519965969,0.0,0,False
2022-06-25,0.9483425519965969,0.9483425519965969,0.0,0,False
2022-06-26,0.9483425519965969,0.9483425519965969,0.0,0,False
2022-06-27,0.9483425519965969,0.9483425519965969,0.0,0,False
2022-06-28,0.9483425519965969,0.9507161978529942,0.2502941422801275,1,True
2022-06-29,0.9507161978529942,0.9436088269169057,-0.747580713586149,0,True
2022-06-30,0.9436088269169057,0.9436088269169057,0.0,0,False
2022-07-01,0.9436088269169057,0.9436088269169057,0.0,0,False
2022-07-02,0.9436088269169057,0.9436088269169057,0.0,0,False
2022-07-03,0.9436088269169057,0.9418807286815675,-0.1831371417947203,1,True
2022-07-04,0.9418807286815675,0.9418807286815675,0.0,0,False
2022-07-05,0.9418807286815675,0.9418807286815675,0.0,0,False
2022-07-06,0.9418807286815675,0.9418807286815675,0.0,0,False
2022-07-07,0.9418807286815675,0.9418807286815675,0.0,0,False
2022-07-08,0.9418807286815675,0.9418807286815675,0.0,0,False
2022-07-09,0.9418807286815675,0.9418807286815675,0.0,0,False
2022-07-10,0.9418807286815675,0.9418807286815675,0.0,0,False
2022-07-11,0.9418807286815675,0.9418807286815675,0.0,0,False
2022-07-12,0.9418807286815675,0.9418807286815675,0.0,0,False
2022-07-13,0.9418807286815675,0.9586763059514558,1.7831957654976804,4,True
2022-07-14,0.9586763059514558,0.9829721748286852,2.534314108568325,0,True
2022-07-15,0.9829721748286852,0.9829721748286852,0.0,0,False
2022-07-16,0.9829721748286852,0.9829721748286852,0.0,0,False
2022-07-17,0.9829721748286852,0.9829721748286852,0.0,0,False
2022-07-18,0.9829721748286852,0.9829721748286852,0.0,0,False
2022-07-19,0.9829721748286852,0.9803894311879805,-0.26274839785315196,2,True
2022-07-20,0.9803894311879805,0.9803894311879805,0.0,0,False
2022-07-21,0.9803894311879805,0.9710855528920285,-0.9489982245808326,3,True
2022-07-22,0.9710855528920285,0.9710855528920285,0.0,0,False
2022-07-23,0.9710855528920285,0.9710855528920285,0.0,0,False
2022-07-24,0.9710855528920285,0.979699733280065,0.887067093355709,1,True
2022-07-25,0.979699733280065,0.9812918811340164,0.16251386010088797,1,True
2022-07-26,0.9812918811340164,0.9812918811340164,0.0,0,False
2022-07-27,0.9812918811340164,0.9812918811340164,0.0,0,False
2022-07-28,0.9812918811340164,0.9812918811340164,0.0,0,False
2022-07-29,0.9812918811340164,0.9763910081620576,-0.4994307062130443,1,True
2022-07-30,0.9763910081620576,0.9763910081620576,0.0,0,False
2022-07-31,0.9763910081620576,0.9715108398664123,-0.4998170051598083,1,True
2022-08-01,0.9715108398664123,0.9715108398664123,0.0,0,False
2022-08-02,0.9715108398664123,0.9715108398664123,0.0,0,False
2022-08-03,0.9715108398664123,0.9693601845248685,-0.22137224344707107,1,True
2022-08-04,0.9693601845248685,0.9693601845248685,0.0,0,False
2022-08-05,0.9693601845248685,0.9693601845248685,0.0,0,False
2022-08-06,0.9693601845248685,0.9693601845248685,0.0,0,False
2022-08-07,0.9693601845248685,0.9693601845248685,0.0,0,False
2022-08-08,0.9693601845248685,0.9693601845248685,0.0,0,False
2022-08-09,0.9693601845248685,0.9722763086373916,0.3008297802072901,1,True
2022-08-10,0.9722763086373916,0.9722763086373916,0.0,0,False
2022-08-11,0.9722763086373916,0.9722763086373916,0.0,0,False
2022-08-12,0.9722763086373916,0.9728028677027679,0.05415734814255835,1,True
2022-08-13,0.9728028677027679,0.9728028677027679,0.0,0,False
2022-08-14,0.9728028677027679,0.9728028677027679,0.0,0,False
2022-08-15,0.9728028677027679,0.9728028677027679,0.0,0,False
2022-08-16,0.9728028677027679,0.9725367273175968,-0.02735810039290465,1,True
2022-08-17,0.9725367273175968,0.9725367273175968,0.0,0,False
2022-08-18,0.9725367273175968,0.9725367273175968,0.0,0,False
2022-08-19,0.9725367273175968,0.9559310790732704,-1.7074571867457755,8,True
2022-08-20,0.9559310790732704,0.9607908415636085,0.5083800073797606,0,True
2022-08-21,0.9607908415636085,0.9607908415636085,0.0,0,False
2022-08-22,0.9607908415636085,0.9607908415636085,0.0,0,False
2022-08-23,0.9607908415636085,0.9607908415636085,0.0,0,False
2022-08-24,0.9607908415636085,0.9607908415636085,0.0,0,False
2022-08-25,0.9607908415636085,0.9607908415636085,0.0,0,False
2022-08-26,0.9607908415636085,0.9607908415636085,0.0,0,False
2022-08-27,0.9607908415636085,0.9559941877289945,-0.4992401704004501,1,True
2022-08-28,0.9559941877289945,0.9570335657995341,0.10872221650308767,1,True
2022-08-29,0.9570335657995341,0.953993899400685,-0.3176133531230585,0,True
2022-08-30,0.953993899400685,0.953993899400685,0.0,0,False
2022-08-31,0.953993899400685,0.953993899400685,0.0,0,False
2022-09-01,0.953993899400685,0.953993899400685,0.0,0,False
2022-09-02,0.953993899400685,0.953993899400685,0.0,0,False
2022-09-03,0.953993899400685,0.953993899400685,0.0,0,False
2022-09-04,0.953993899400685,0.953993899400685,0.0,0,False
2022-09-05,0.953993899400685,0.953993899400685,0.0,0,False
2022-09-06,0.953993899400685,0.953993899400685,0.0,0,False
2022-09-07,0.953993899400685,0.9439056965275336,-1.057470375805225,4,True
2022-09-08,0.9439056965275336,0.9439056965275336,0.0,0,False
2022-09-09,0.9439056965275336,0.9439056965275336,0.0,0,False
2022-09-10,0.9439056965275336,0.9439056965275336,0.0,0,False
2022-09-11,0.9439056965275336,0.9439056965275336,0.0,0,False
2022-09-12,0.9439056965275336,0.9439056965275336,0.0,0,False
2022-09-13,0.9439056965275336,0.9348744797494984,-0.9567922739802781,4,True
2022-09-14,0.9348744797494984,0.9235034216209725,-1.2163192358799702,1,True
2022-09-15,0.9235034216209725,0.9304041031057351,0.7472285779569932,1,True
2022-09-16,0.9304041031057351,0.9304041031057351,0.0,0,False
2022-09-17,0.9304041031057351,0.9304041031057351,0.0,0,False
2022-09-18,0.9304041031057351,0.9304041031057351,0.0,0,False
2022-09-19,0.9304041031057351,0.9330010088068124,0.2791158908702851,5,True
2022-09-20,0.9330010088068124,0.9330010088068124,0.0,0,False
2022-09-21,0.9330010088068124,0.9330010088068124,0.0,0,False
2022-09-22,0.9330010088068124,0.9330010088068124,0.0,0,False
2022-09-23,0.9330010088068124,0.9330010088068124,0.0,0,False
2022-09-24,0.9330010088068124,0.9330010088068124,0.0,0,False
2022-09-25,0.9330010088068124,0.9330010088068124,0.0,0,False
2022-09-26,0.9330010088068124,0.9330010088068124,0.0,0,False
2022-09-27,0.9330010088068124,0.9330010088068124,0.0,0,False
2022-09-28,0.9330010088068124,0.9330010088068124,0.0,0,False
2022-09-29,0.9330010088068124,0.9330010088068124,0.0,0,False
2022-09-30,0.9330010088068124,0.9330010088068124,0.0,0,False
2022-10-01,0.9330010088068124,0.9330010088068124,0.0,0,False
2022-10-02,0.9330010088068124,0.9330010088068124,0.0,0,False
2022-10-03,0.9330010088068124,0.9330010088068124,0.0,0,False
2022-10-04,0.9330010088068124,0.9330010088068124,0.0,0,False
2022-10-05,0.9330010088068124,0.9330010088068124,0.0,0,False
2022-10-06,0.9330010088068124,0.9330010088068124,0.0,0,False
2022-10-07,0.9330010088068124,0.9330010088068124,0.0,0,False
2022-10-08,0.9330010088068124,0.9330010088068124,0.0,0,False
2022-10-09,0.9330010088068124,0.9330010088068124,0.0,0,False
2022-10-10,0.9330010088068124,0.9283425306596158,-0.4993004405380197,1,True
2022-10-11,0.9283425306596158,0.9629124059733098,3.7238275929393216,4,True
2022-10-12,0.9629124059733098,0.9629124059733098,0.0,0,False
2022-10-13,0.9629124059733098,0.9629124059733098,0.0,0,False
2022-10-14,0.9629124059733098,0.9629124059733098,0.0,0,False
2022-10-15,0.9629124059733098,0.9629124059733098,0.0,0,False
2022-10-16,0.9629124059733098,0.9629124059733098,0.0,0,False
2022-10-17,0.9629124059733098,0.9629124059733098,0.0,0,False
2022-10-18,0.9629124059733098,0.9629124059733098,0.0,0,False
2022-10-19,0.9629124059733098,0.9629124059733098,0.0,0,False
2022-10-20,0.9629124059733098,0.9688065304140704,0.6121142903754428,1,True
2022-10-21,0.9688065304140704,0.9688065304140704,0.0,0,False
2022-10-22,0.9688065304140704,0.9688065304140704,0.0,0,False
2022-10-23,0.9688065304140704,0.9688065304140704,0.0,0,False
2022-10-24,0.9688065304140704,0.9688065304140704,0.0,0,False
2022-10-25,0.9688065304140704,0.9688065304140704,0.0,0,False
2022-10-26,0.9688065304140704,0.9688065304140704,0.0,0,False
2022-10-27,0.9688065304140704,0.9688065304140704,0.0,0,False
2022-10-28,0.9688065304140704,0.9688065304140704,0.0,0,False
2022-10-29,0.9688065304140704,0.9688065304140704,0.0,0,False
2022-10-30,0.9688065304140704,0.9688065304140704,0.0,0,False
2022-10-31,0.9688065304140704,0.9688065304140704,0.0,0,False
2022-11-01,0.9688065304140704,0.9688065304140704,0.0,0,False
2022-11-02,0.9688065304140704,0.9753508056114598,0.6754986668589424,1,True
2022-11-03,0.9753508056114598,0.9803768483467837,0.5153061551195437,3,True
2022-11-04,0.9803768483467837,0.994636909017251,1.4545489007124157,5,True
2022-11-05,0.994636909017251,0.9943001322047517,-0.03385927160415303,1,True
2022-11-06,0.9943001322047517,0.9943001322047517,0.0,0,False
2022-11-07,0.9943001322047517,0.9906650517427996,-0.36559187152994665,2,True
2022-11-08,0.9906650517427996,0.984698565383547,-0.6022708027053292,5,True
2022-11-09,0.984698565383547,0.9533632855476056,-3.1822205228598133,14,True
2022-11-10,0.9533632855476056,0.9841381767869213,3.2280340249980055,5,True
2022-11-11,0.9841381767869213,0.9977241165293963,1.3804910797009518,5,True
2022-11-12,0.9977241165293963,0.9988600475478743,0.1138522162247968,2,True
2022-11-13,0.9988600475478743,0.9938753756756065,-0.49903606461233485,1,True
2022-11-14,0.9938753756756065,0.9940637561597011,0.018954135367987845,2,True
2022-11-15,0.9940637561597011,0.9940637561597011,0.0,0,False
2022-11-16,0.9940637561597011,0.9940637561597011,0.0,0,False
2022-11-17,0.9940637561597011,0.9940637561597011,0.0,0,False
2022-11-18,0.9940637561597011,0.9940637561597011,0.0,0,False
2022-11-19,0.9940637561597011,0.9945238833578741,0.046287493666463675,2,True
2022-11-20,0.9945238833578741,0.990424078047778,-0.4122379943509946,1,True
2022-11-21,0.990424078047778,0.9842529753725633,-0.6230768023510191,1,True
2022-11-22,0.9842529753725633,0.9842529753725633,0.0,0,False
2022-11-23,0.9842529753725633,0.9842529753725633,0.0,0,False
2022-11-24,0.9842529753725633,0.9842529753725633,0.0,0,False
2022-11-25,0.9842529753725633,0.9839298346255525,-0.03283106631082333,1,True
2022-11-26,0.9839298346255525,0.9839298346255525,0.0,0,False
2022-11-27,0.9839298346255525,0.9839298346255525,0.0,0,False
2022-11-28,0.9839298346255525,0.9793911119483882,-0.46128519711891025,2,True
2022-11-29,0.9793911119483882,0.9793911119483882,0.0,0,False
2022-11-30,0.9793911119483882,0.9793911119483882,0.0,0,False
2022-12-01,0.9793911119483882,0.9792978262170831,-0.009524870112365136,1,True
2022-12-02,0.9792978262170831,0.9780447979110336,-0.1279517091230309,1,True
2022-12-03,0.9780447979110336,0.9780447979110336,0.0,0,False
2022-12-04,0.9780447979110336,0.9682982259873153,-0.9965363493099288,2,True
2022-12-05,0.9682982259873153,0.9705238205777139,0.22984598449813376,1,True
2022-12-06,0.9705238205777139,0.9689825470341981,-0.1588084198282158,0,True
2022-12-07,0.9689825470341981,0.9689825470341981,0.0,0,False
2022-12-08,0.9689825470341981,0.9641508294019754,-0.49863825174264464,1,True
2022-12-09,0.9641508294019754,0.9641508294019754,0.0,0,False
2022-12-10,0.9641508294019754,0.9641508294019754,0.0,0,False
2022-12-11,0.9641508294019754,0.9641508294019754,0.0,0,False
2022-12-12,0.9641508294019754,0.9641508294019754,0.0,0,False
2022-12-13,0.9641508294019754,0.9641508294019754,0.0,0,False
2022-12-14,0.9641508294019754,0.9641508294019754,0.0,0,False
2022-12-15,0.9641508294019754,0.9641508294019754,0.0,0,False
2022-12-16,0.9641508294019754,0.9641508294019754,0.0,0,False
2022-12-17,0.9641508294019754,0.9844327472363531,2.1036042511064057,4,True
2022-12-18,0.9844327472363531,0.9844327472363531,0.0,0,False
2022-12-19,0.9844327472363531,0.9844327472363531,0.0,0,False
2022-12-20,0.9844327472363531,0.9844327472363531,0.0,0,False
2022-12-21,0.9844327472363531,0.9844327472363531,0.0,0,False
2022-12-22,0.9844327472363531,0.9844327472363531,0.0,0,False
2022-12-23,0.9844327472363531,0.9844327472363531,0.0,0,False
2022-12-24,0.9844327472363531,0.9844327472363531,0.0,0,False
2022-12-25,0.9844327472363531,0.9844327472363531,0.0,0,False
2022-12-26,0.9844327472363531,0.9844327472363531,0.0,0,False
2022-12-27,0.9844327472363531,0.9844327472363531,0.0,0,False
2022-12-28,0.9844327472363531,0.9882655939676698,0.3893457163099079,1,True
2022-12-29,0.9882655939676698,0.9868278485480264,-0.14548168310414278,0,True
2022-12-30,0.9868278485480264,0.9868278485480264,0.0,0,False
2022-12-31,0.9868278485480264,0.9868278485480264,0.0,0,False
2023-01-01,0.9868278485480264,0.9868278485480264,0.0,0,False
2023-01-02,0.9868278485480264,0.9873581931226728,0.05374235996955523,1,True
2023-01-03,0.9873581931226728,0.9874877795259097,0.013124558457056068,0,True
2023-01-04,0.9874877795259097,0.9874877795259097,0.0,0,False
2023-01-05,0.9874877795259097,0.9874877795259097,0.0,0,False
2023-01-06,0.9874877795259097,0.9874877795259097,0.0,0,False
2023-01-07,0.9874877795259097,0.9874877795259097,0.0,0,False
2023-01-08,0.9874877795259097,0.9874877795259097,0.0,0,False
2023-01-09,0.9874877795259097,0.9874877795259097,0.0,0,False
2023-01-10,0.9874877795259097,0.9845735470048493,-0.2951158061378245,2,True
2023-01-11,0.9845735470048493,0.9855808644537293,0.10231002569023318,0,True
2023-01-12,0.9855808644537293,0.9855808644537293,0.0,0,False
2023-01-13,0.9855808644537293,0.9855808644537293,0.0,0,False
2023-01-14,0.9855808644537293,0.9802519001036422,-0.5406927571631304,3,True
2023-01-15,0.9802519001036422,0.9823152793977924,0.21049480178840785,1,True
2023-01-16,0.9823152793977924,0.9823152793977924,0.0,0,False
2023-01-17,0.9823152793977924,0.9823152793977924,0.0,0,False
2023-01-18,0.9823152793977924,0.9823152793977924,0.0,0,False
2023-01-19,0.9823152793977924,0.9774122152303126,-0.49913345239682716,1,True
2023-01-20,0.9774122152303126,0.9774122152303126,0.0,0,False
2023-01-21,0.9774122152303126,0.9792798712457084,0.19108171417272501,1,True
2023-01-22,0.9792798712457084,0.9782884770173229,-0.10123706792056764,0,True
2023-01-23,0.9782884770173229,0.9782884770173229,0.0,0,False
2023-01-24,0.9782884770173229,0.9870605268912721,0.8966731265908523,1,True
2023-01-25,0.9870605268912721,1.0002371554862575,1.3349362309609258,5,True
2023-01-26,1.0002371554862575,1.001811190700377,0.1573662011540078,1,True
2023-01-27,1.001811190700377,1.003128253601317,0.13146817615594664,0,True
2023-01-28,1.003128253601317,1.003128253601317,0.0,0,False
2023-01-29,1.003128253601317,1.003128253601317,0.0,0,False
2023-01-30,1.003128253601317,1.003369750293443,0.0240743585138814,2,True
2023-01-31,1.003369750293443,1.003036726731511,-0.03319051245412874,2,True
2023-02-01,1.003036726731511,1.003036726731511,0.0,0,False
2023-02-02,1.003036726731511,1.003036726731511,0.0,0,False
2023-02-03,1.003036726731511,1.003036726731511,0.0,0,False
2023-02-04,1.003036726731511,1.003036726731511,0.0,0,False
2023-02-05,1.003036726731511,1.0074826245711652,0.4432437737490913,5,True
2023-02-06,1.0074826245711652,1.023549437644551,1.5947484037478699,1,True
2023-02-07,1.023549437644551,1.023549437644551,0.0,0,False
2023-02-08,1.023549437644551,1.023549437644551,0.0,0,False
2023-02-09,1.023549437644551,1.023549437644551,0.0,0,False
2023-02-10,1.023549437644551,1.0263046609898918,0.2691832210548917,1,True
2023-02-11,1.0263046609898918,1.0231456773275318,-0.3078017456642046,0,True
2023-02-12,1.0231456773275318,1.0180363219114215,-0.4993771199284236,1,True
2023-02-13,1.0180363219114215,1.0180363219114215,0.0,0,False
2023-02-14,1.0180363219114215,1.0180363219114215,0.0,0,False
2023-02-15,1.0180363219114215,1.0180363219114215,0.0,0,False
2023-02-16,1.0180363219114215,1.0180363219114215,0.0,0,False
2023-02-17,1.0180363219114215,1.0180363219114215,0.0,0,False
2023-02-18,1.0180363219114215,1.0180363219114215,0.0,0,False
2023-02-19,1.0180363219114215,1.0180363219114215,0.0,0,False
2023-02-20,1.0180363219114215,1.0180363219114215,0.0,0,False
2023-02-21,1.0180363219114215,1.0141380086538145,-0.38292477131735003,3,True
2023-02-22,1.0141380086538145,1.011263934516348,-0.2834006923063237,2,True
2023-02-23,1.011263934516348,1.0279395833513165,1.6489907595630626,1,True
2023-02-24,1.0279395833513165,1.0279395833513165,0.0,0,False
2023-02-25,1.0279395833513165,1.0279395833513165,0.0,0,False
2023-02-26,1.0279395833513165,1.029884090405514,0.18916550016081501,1,True
2023-02-27,1.029884090405514,1.0247427695046851,-0.4992135473036119,1,True
2023-02-28,1.0247427695046851,1.0247427695046851,0.0,0,False
2023-03-01,1.0247427695046851,1.0247427695046851,0.0,0,False
2023-03-02,1.0247427695046851,1.0247427695046851,0.0,0,False
2023-03-03,1.0247427695046851,1.0237763617903022,-0.09430734650122119,6,True
2023-03-04,1.0237763617903022,1.0237763617903022,0.0,0,False
2023-03-05,1.0237763617903022,1.0237763617903022,0.0,0,False
2023-03-06,1.0237763617903022,1.0237763617903022,0.0,0,False
2023-03-07,1.0237763617903022,1.0237763617903022,0.0,0,False
2023-03-08,1.0237763617903022,1.0237763617903022,0.0,0,False
2023-03-09,1.0237763617903022,1.0237763617903022,0.0,0,False
2023-03-10,1.0237763617903022,1.0186585810643427,-0.49989244887524986,1,True
2023-03-11,1.0186585810643427,1.034804624433292,1.585029927503201,3,True
2023-03-12,1.034804624433292,1.0391419591942892,0.41914528197750656,0,True
2023-03-13,1.0391419591942892,1.0391419591942892,0.0,0,False
2023-03-14,1.0391419591942892,1.0391419591942892,0.0,0,False
2023-03-15,1.0391419591942892,1.0391419591942892,0.0,0,False
2023-03-16,1.0391419591942892,1.0472058333328462,0.7760127542929318,5,True
2023-03-17,1.0472058333328462,1.0432122493619829,-0.3813561616777261,2,True
2023-03-18,1.0432122493619829,1.0408101463873665,-0.23026023477825674,0,True
2023-03-19,1.0408101463873665,1.0408101463873665,0.0,0,False
2023-03-20,1.0408101463873665,1.0408101463873665,0.0,0,False
2023-03-21,1.0408101463873665,1.0304469415485695,-0.9956863770753444,2,True
2023-03-22,1.0304469415485695,1.0304469415485695,0.0,0,False
2023-03-23,1.0304469415485695,1.0415594748331858,1.0784187750527252,3,True
2023-03-24,1.0415594748331858,1.0433862527014668,0.17538872358426882,0,True
2023-03-25,1.0433862527014668,1.0381794331876015,-0.49903087187358475,1,True
2023-03-26,1.0381794331876015,1.0381794331876015,0.0,0,False
2023-03-27,1.0381794331876015,1.0381794331876015,0.0,0,False
2023-03-28,1.0381794331876015,1.0381794331876015,0.0,0,False
2023-03-29,1.0381794331876015,1.0381794331876015,0.0,0,False
2023-03-30,1.0381794331876015,1.0381794331876015,0.0,0,False
2023-03-31,1.0381794331876015,1.0381794331876015,0.0,0,False
2023-04-01,1.0381794331876015,1.0381794331876015,0.0,0,False
2023-04-02,1.0381794331876015,1.0381794331876015,0.0,0,False
2023-04-03,1.0381794331876015,1.0381794331876015,0.0,0,False
2023-04-04,1.0381794331876015,1.032996254641839,-0.4992565234940405,1,True
2023-04-05,1.032996254641839,1.032996254641839,0.0,0,False
2023-04-06,1.032996254641839,1.0278418121684079,-0.4989797833505505,1,True
2023-04-07,1.0278418121684079,1.0227067482495935,-0.4995967140100199,1,True
2023-04-08,1.0227067482495935,1.0227067482495935,0.0,0,False
2023-04-09,1.0227067482495935,1.0227067482495935,0.0,0,False
2023-04-10,1.0227067482495935,1.0227067482495935,0.0,0,False
2023-04-11,1.0227067482495935,1.0227067482495935,0.0,0,False
2023-04-12,1.0227067482495935,1.0227067482495935,0.0,0,False
2023-04-13,1.0227067482495935,1.0227067482495935,0.0,0,False
2023-04-14,1.0227067482495935,1.0227067482495935,0.0,0,False
2023-04-15,1.0227067482495935,1.0227067482495935,0.0,0,False
2023-04-16,1.0227067482495935,1.0227067482495935,0.0,0,False
2023-04-17,1.0227067482495935,1.0176012870694373,-0.4992106670748453,1,True
2023-04-18,1.0176012870694373,1.0176012870694373,0.0,0,False
2023-04-19,1.0176012870694373,1.0024265441177462,-1.4912267844503613,3,True
2023-04-20,1.0024265441177462,1.0024265441177462,0.0,0,False
2023-04-21,1.0024265441177462,1.0024265441177462,0.0,0,False
2023-04-22,1.0024265441177462,1.0024265441177462,0.0,0,False
2023-04-23,1.0024265441177462,1.0024265441177462,0.0,0,False
2023-04-24,1.0024265441177462,1.0024265441177462,0.0,0,False
2023-04-25,1.0024265441177462,1.0024265441177462,0.0,0,False
2023-04-26,1.0024265441177462,1.0024265441177462,0.0,0,False
2023-04-27,1.0024265441177462,1.0024265441177462,0.0,0,False
2023-04-28,1.0024265441177462,1.0024265441177462,0.0,0,False
2023-04-29,1.0024265441177462,1.0024265441177462,0.0,0,False
2023-04-30,1.0024265441177462,1.0024265441177462,0.0,0,False
2023-05-01,1.0024265441177462,1.0024265441177462,0.0,0,False
2023-05-02,1.0024265441177462,1.0024265441177462,0.0,0,False
2023-05-03,1.0024265441177462,1.0024265441177462,0.0,0,False
2023-05-04,1.0024265441177462,1.0024265441177462,0.0,0,False
2023-05-05,1.0024265441177462,1.0024265441177462,0.0,0,False
2023-05-06,1.0024265441177462,1.0024265441177462,0.0,0,False
2023-05-07,1.0024265441177462,1.0024265441177462,0.0,0,False
2023-05-08,1.0024265441177462,0.9984919581979078,-0.3925061584738154,5,True
2023-05-09,0.9984919581979078,0.997863628760287,-0.06292784157769793,2,True
2023-05-10,0.997863628760287,1.0000678132714578,0.2208903549184571,1,True
2023-05-11,1.0000678132714578,1.0022442379171403,0.21762770652151708,0,True
2023-05-12,1.0022442379171403,1.0022442379171403,0.0,0,False
2023-05-13,1.0022442379171403,1.0022442379171403,0.0,0,False
2023-05-14,1.0022442379171403,1.0022442379171403,0.0,0,False
2023-05-15,1.0022442379171403,1.0022442379171403,0.0,0,False
2023-05-16,1.0022442379171403,1.0022442379171403,0.0,0,False
2023-05-17,1.0022442379171403,1.0022442379171403,0.0,0,False
2023-05-18,1.0022442379171403,1.0022442379171403,0.0,0,False
2023-05-19,1.0022442379171403,1.0022442379171403,0.0,0,False
2023-05-20,1.0022442379171403,1.0022442379171403,0.0,0,False
2023-05-21,1.0022442379171403,1.0022442379171403,0.0,0,False
2023-05-22,1.0022442379171403,1.0022442379171403,0.0,0,False
2023-05-23,1.0022442379171403,1.0022442379171403,0.0,0,False
2023-05-24,1.0022442379171403,1.0022442379171403,0.0,0,False
2023-05-25,1.0022442379171403,1.0022442379171403,0.0,0,False
2023-05-26,1.0022442379171403,1.0051441826411478,0.2893451131267266,1,True
2023-05-27,1.0051441826411478,1.0051350092808395,-0.0009126412376159188,1,True
2023-05-28,1.0051350092808395,1.0051350092808395,0.0,0,False
2023-05-29,1.0051350092808395,1.0051350092808395,0.0,0,False
2023-05-30,1.0051350092808395,1.0171152924666078,1.1919078606504874,1,True
2023-05-31,1.0171152924666078,1.0264761383581962,0.9203328237143538,0,True
2023-06-01,1.0264761383581962,1.0264761383581962,0.0,0,False
2023-06-02,1.0264761383581962,1.0441387999720542,1.7207084464825995,3,True
2023-06-03,1.0441387999720542,1.0315673785924049,-1.2039990641077414,1,True
2023-06-04,1.0315673785924049,1.0315673785924049,0.0,0,False
2023-06-05,1.0315673785924049,1.0315673785924049,0.0,0,False
2023-06-06,1.0315673785924049,1.0110501623559955,-1.9889361240179482,4,True
2023-06-07,1.0110501623559955,1.0110501623559955,0.0,0,False
2023-06-08,1.0110501623559955,1.0060015507446078,-0.4993433362023514,1,True
2023-06-09,1.0060015507446078,1.0060015507446078,0.0,0,False
2023-06-10,1.0060015507446078,1.035913846373211,2.9733846440358924,5,True
2023-06-11,1.035913846373211,1.0352745963900463,-0.06170879802434026,0,True
2023-06-12,1.0352745963900463,1.0352745963900463,0.0,0,False
2023-06-13,1.0352745963900463,1.0301045721817217,-0.4993867546206787,1,True
2023-06-14,1.0301045721817217,1.0301045721817217,0.0,0,False
2023-06-15,1.0301045721817217,1.0301045721817217,0.0,0,False
2023-06-16,1.0301045721817217,1.0301045721817217,0.0,0,False
2023-06-17,1.0301045721817217,1.0301045721817217,0.0,0,False
2023-06-18,1.0301045721817217,1.0301045721817217,0.0,0,False
2023-06-19,1.0301045721817217,1.0381225538325394,0.7783657957983747,1,True
2023-06-20,1.0381225538325394,1.0393802768429559,0.1211536158012505,0,True
2023-06-21,1.0393802768429559,1.0393802768429559,0.0,0,False
2023-06-22,1.0393802768429559,1.0547031788153516,1.4742344369798932,2,True
2023-06-23,1.0547031788153516,1.0547031788153516,0.0,0,False
2023-06-24,1.0547031788153516,1.0547031788153516,0.0,0,False
2023-06-25,1.0547031788153516,1.0494343695721682,-0.4995537464010824,1,True
2023-06-26,1.0494343695721682,1.0494343695721682,0.0,0,False
2023-06-27,1.0494343695721682,1.0494343695721682,0.0,0,False
2023-06-28,1.0494343695721682,1.0494343695721682,0.0,0,False
2023-06-29,1.0494343695721682,1.0494343695721682,0.0,0,False
2023-06-30,1.0494343695721682,1.028530720521815,-1.991896745184274,4,True
2023-07-01,1.028530720521815,1.0233972569381626,-0.49910649057209877,1,True
2023-07-02,1.0233972569381626,1.0233972569381626,0.0,0,False
2023-07-03,1.0233972569381626,1.0233972569381626,0.0,0,False
2023-07-04,1.0233972569381626,1.0233972569381626,0.0,0,False
2023-07-05,1.0233972569381626,1.0182861633962537,-0.4994241979112357,1,True
2023-07-06,1.0182861633962537,1.0182861633962537,0.0,0,False
2023-07-07,1.0182861633962537,1.0182861633962537,0.0,0,False
2023-07-08,1.0182861633962537,1.0182861633962537,0.0,0,False
2023-07-09,1.0182861633962537,1.0182861633962537,0.0,0,False
2023-07-10,1.0182861633962537,1.0182861633962537,0.0,0,False
2023-07-11,1.0182861633962537,1.0182861633962537,0.0,0,False
2023-07-12,1.0182861633962537,1.0182861633962537,0.0,0,False
2023-07-13,1.0182861633962537,1.0182861633962537,0.0,0,False
2023-07-14,1.0182861633962537,1.0182861633962537,0.0,0,False
2023-07-15,1.0182861633962537,1.0182861633962537,0.0,0,False
2023-07-16,1.0182861633962537,1.0182861633962537,0.0,0,False
2023-07-17,1.0182861633962537,1.0182861633962537,0.0,0,False
2023-07-18,1.0182861633962537,1.0182861633962537,0.0,0,False
2023-07-19,1.0182861633962537,1.0182861633962537,0.0,0,False
2023-07-20,1.0182861633962537,1.0182861633962537,0.0,0,False
2023-07-21,1.0182861633962537,1.0182861633962537,0.0,0,False
2023-07-22,1.0182861633962537,1.0182861633962537,0.0,0,False
2023-07-23,1.0182861633962537,1.0182861633962537,0.0,0,False
2023-07-24,1.0182861633962537,1.0138867276178143,-0.4320431659177282,2,True
2023-07-25,1.0138867276178143,1.0136635019623412,-0.022016823910653294,0,True
2023-07-26,1.0136635019623412,1.0136635019623412,0.0,0,False
2023-07-27,1.0136635019623412,1.0136635019623412,0.0,0,False
2023-07-28,1.0136635019623412,1.0136635019623412,0.0,0,False
2023-07-29,1.0136635019623412,1.0136635019623412,0.0,0,False
2023-07-30,1.0136635019623412,1.0136635019623412,0.0,0,False
2023-07-31,1.0136635019623412,1.0136635019623412,0.0,0,False
2023-08-01,1.0136635019623412,1.0136635019623412,0.0,0,False
2023-08-02,1.0136635019623412,1.0136635019623412,0.0,0,False
2023-08-03,1.0136635019623412,1.0136635019623412,0.0,0,False
2023-08-04,1.0136635019623412,1.0136635019623412,0.0,0,False
2023-08-05,1.0136635019623412,1.0136635019623412,0.0,0,False
2023-08-06,1.0136635019623412,1.0136635019623412,0.0,0,False
2023-08-07,1.0136635019623412,1.0136635019623412,0.0,0,False
2023-08-08,1.0136635019623412,1.0136635019623412,0.0,0,False
2023-08-09,1.0136635019623412,1.0136635019623412,0.0,0,False
2023-08-10,1.0136635019623412,1.0136635019623412,0.0,0,False
2023-08-11,1.0136635019623412,1.0136635019623412,0.0,0,False
2023-08-12,1.0136635019623412,1.0136635019623412,0.0,0,False
2023-08-13,1.0136635019623412,1.0253716867296736,1.1550366314527993,1,True
2023-08-14,1.0253716867296736,1.0258932858969951,0.050869277362730614,1,True
2023-08-15,1.0258932858969951,1.0263136254584404,0.04097302977061901,0,True
2023-08-16,1.0263136254584404,1.0384552443547552,1.1830320279428541,4,True
2023-08-17,1.0384552443547552,1.0354787287414222,-0.28662916668906746,1,True
2023-08-18,1.0354787287414222,1.1029458068003013,6.515544567572351,4,True
2023-08-19,1.1029458068003013,1.125438369315285,2.039317106634253,2,True
2023-08-20,1.125438369315285,1.1248164988680884,-0.05525584200357647,0,True
2023-08-21,1.1248164988680884,1.1248164988680884,0.0,0,False
2023-08-22,1.1248164988680884,1.1248164988680884,0.0,0,False
2023-08-23,1.1248164988680884,1.1248164988680884,0.0,0,False
2023-08-24,1.1248164988680884,1.1248164988680884,0.0,0,False
2023-08-25,1.1248164988680884,1.120947564563812,-0.3439613757594828,4,True
2023-08-26,1.120947564563812,1.1235920673100237,0.23591672169256395,0,True
2023-08-27,1.1235920673100237,1.1235920673100237,0.0,0,False
2023-08-28,1.1235920673100237,1.1235920673100237,0.0,0,False
2023-08-29,1.1235920673100237,1.124924273449915,0.11856670927561375,1,True
2023-08-30,1.124924273449915,1.124924273449915,0.0,0,False
2023-08-31,1.124924273449915,1.124924273449915,0.0,0,False
2023-09-01,1.124924273449915,1.124924273449915,0.0,0,False
2023-09-02,1.124924273449915,1.1621534713310473,3.3094848035377433,3,True
2023-09-03,1.1621534713310473,1.1958801502745455,2.9020847741279887,0,True
2023-09-04,1.1958801502745455,1.1950282596007427,-0.07123545562716105,1,True
2023-09-05,1.1950282596007427,1.2051402491782617,0.8461715860089702,2,True
2023-09-06,1.2051402491782617,1.2221303904915604,1.4098061470342316,1,True
2023-09-07,1.2221303904915604,1.2221303904915604,0.0,0,False
2023-09-08,1.2221303904915604,1.2131101037632663,-0.738078915185636,3,True
2023-09-09,1.2131101037632663,1.205272473932005,-0.6460773681587262,1,True
2023-09-10,1.205272473932005,1.196831619450695,-0.7003274914072488,3,True
2023-09-11,1.196831619450695,1.1919462567166763,-0.40819131568907707,1,True
2023-09-12,1.1919462567166763,1.1919462567166763,0.0,0,False
2023-09-13,1.1919462567166763,1.1859958541566682,-0.4992173536749078,1,True
2023-09-14,1.1859958541566682,1.1859958541566682,0.0,0,False
2023-09-15,1.1859958541566682,1.1859958541566682,0.0,0,False
2023-09-16,1.1859958541566682,1.1800664866114512,-0.4999484209355254,1,True
2023-09-17,1.1800664866114512,1.1864615832949958,0.5419268114212894,1,True
2023-09-18,1.1864615832949958,1.1687767886348583,-1.49054928614073,3,True
2023-09-19,1.1687767886348583,1.1687767886348583,0.0,0,False
2023-09-20,1.1687767886348583,1.1730667164711865,0.3670442361658255,1,True
2023-09-21,1.1730667164711865,1.178273456602142,0.44385711893850655,0,True
2023-09-22,1.178273456602142,1.178273456602142,0.0,0,False
2023-09-23,1.178273456602142,1.178273456602142,0.0,0,False
2023-09-24,1.178273456602142,1.178273456602142,0.0,0,False
2023-09-25,1.178273456602142,1.178273456602142,0.0,0,False
2023-09-26,1.178273456602142,1.179924241912465,0.14010205365089234,1,True
2023-09-27,1.179924241912465,1.171748400205214,-0.6929124274961174,1,True
2023-09-28,1.171748400205214,1.171748400205214,0.0,0,False
2023-09-29,1.171748400205214,1.171748400205214,0.0,0,False
2023-09-30,1.171748400205214,1.171748400205214,0.0,0,False
2023-10-01,1.171748400205214,1.171748400205214,0.0,0,False
2023-10-02,1.171748400205214,1.171748400205214,0.0,0,False
2023-10-03,1.171748400205214,1.1724057393980987,0.05609900493737108,1,True
2023-10-04,1.1724057393980987,1.1658933688069884,-0.5554707190749242,0,True
2023-10-05,1.1658933688069884,1.1658933688069884,0.0,0,False
2023-10-06,1.1658933688069884,1.1658933688069884,0.0,0,False
2023-10-07,1.1658933688069884,1.1658933688069884,0.0,0,False
2023-10-08,1.1658933688069884,1.1658933688069884,0.0,0,False
2023-10-09,1.1658933688069884,1.1600665605815348,-0.49977196726110895,1,True
2023-10-10,1.1600665605815348,1.1600665605815348,0.0,0,False
2023-10-11,1.1600665605815348,1.1600665605815348,0.0,0,False
2023-10-12,1.1600665605815348,1.1600665605815348,0.0,0,False
2023-10-13,1.1600665605815348,1.1600665605815348,0.0,0,False
2023-10-14,1.1600665605815348,1.1600665605815348,0.0,0,False
2023-10-15,1.1600665605815348,1.160145469350526,0.006802089782809162,1,True
2023-10-16,1.160145469350526,1.161555399344629,0.12153044866798357,1,True
2023-10-17,1.161555399344629,1.1549423037652295,-0.5693310524087503,1,True
2023-10-18,1.1549423037652295,1.1549423037652295,0.0,0,False
2023-10-19,1.1549423037652295,1.1434476626488257,-0.9952567395730694,2,True
2023-10-20,1.1434476626488257,1.1434476626488257,0.0,0,False
2023-10-21,1.1434476626488257,1.1450926379684183,0.14386100678907,1,True
2023-10-22,1.1450926379684183,1.1450926379684183,0.0,0,False
2023-10-23,1.1450926379684183,1.1450926379684183,0.0,0,False
2023-10-24,1.1450926379684183,1.1393757043638124,-0.49925511832376035,1,True
2023-10-25,1.1393757043638124,1.1399509407738924,0.05048698229010995,1,True
2023-10-26,1.1399509407738924,1.1593015025394937,1.6974907492479208,5,True
2023-10-27,1.1593015025394937,1.1562689661866323,-0.2615830606808034,2,True
2023-10-28,1.1562689661866323,1.1635129579394612,0.6264971182889711,1,True
2023-10-29,1.1635129579394612,1.1635129579394612,0.0,0,False
2023-10-30,1.1635129579394612,1.1635129579394612,0.0,0,False
2023-10-31,1.1635129579394612,1.1635129579394612,0.0,0,False
2023-11-01,1.1635129579394612,1.1635129579394612,0.0,0,False
2023-11-02,1.1635129579394612,1.1635129579394612,0.0,0,False
2023-11-03,1.1635129579394612,1.157704673989727,-0.4992023432227599,1,True
2023-11-04,1.157704673989727,1.157704673989727,0.0,0,False
2023-11-05,1.157704673989727,1.1708432604906753,1.1348823923867934,1,True
2023-11-06,1.1708432604906753,1.1733969935604216,0.21811058370666547,1,True
2023-11-07,1.1733969935604216,1.166544678882385,-0.5839724079439446,1,True
2023-11-08,1.166544678882385,1.166544678882385,0.0,0,False
2023-11-09,1.166544678882385,1.176272583500515,0.8339075900161808,4,True
2023-11-10,1.176272583500515,1.190306094434306,1.1930492243581892,4,True
2023-11-11,1.190306094434306,1.190306094434306,0.0,0,False
2023-11-12,1.190306094434306,1.190306094434306,0.0,0,False
2023-11-13,1.190306094434306,1.1892285166159098,-0.09052947165731906,1,True
2023-11-14,1.1892285166159098,1.197976568050565,0.7356072708001316,1,True
2023-11-15,1.197976568050565,1.197976568050565,0.0,0,False
2023-11-16,1.197976568050565,1.197976568050565,0.0,0,False
2023-11-17,1.197976568050565,1.1958430010031442,-0.17809756086403228,1,True
2023-11-18,1.1958430010031442,1.1869348084981222,-0.7449299362499384,2,True
2023-11-19,1.1869348084981222,1.1875075566495592,0.04825438999145337,0,True
2023-11-20,1.1875075566495592,1.1905273091682018,0.2542933307441375,1,True
2023-11-21,1.1905273091682018,1.1843160502283403,-0.5217233483036376,0,True
2023-11-22,1.1843160502283403,1.178401301469194,-0.4994231698545182,1,True
2023-11-23,1.178401301469194,1.178401301469194,0.0,0,False
2023-11-24,1.178401301469194,1.178401301469194,0.0,0,False
2023-11-25,1.178401301469194,1.1748057526702285,-0.3051209120766285,1,True
2023-11-26,1.1748057526702285,1.1748057526702285,0.0,0,False
2023-11-27,1.1748057526702285,1.1656493017176617,-0.7794012696784147,2,True
2023-11-28,1.1656493017176617,1.159828006818883,-0.4994036276777636,1,True
2023-11-29,1.159828006818883,1.1482269965814553,-1.00023539431906,2,True
2023-11-30,1.1482269965814553,1.1458224346506518,-0.2094152060491905,1,True
2023-12-01,1.1458224346506518,1.1458224346506518,0.0,0,False
2023-12-02,1.1458224346506518,1.1560868823173485,0.8958148624333973,1,True
2023-12-03,1.1560868823173485,1.154966402310563,-0.0969200519375768,1,True
2023-12-04,1.154966402310563,1.1650325492113716,0.8715532227319134,5,True
2023-12-05,1.1650325492113716,1.1770553223283242,1.0319688600195054,1,True
2023-12-06,1.1770553223283242,1.169886490546143,-0.6090479900299539,0,True
2023-12-07,1.169886490546143,1.1640470062877408,-0.4991496444818444,1,True
2023-12-08,1.1640470062877408,1.1640470062877408,0.0,0,False
2023-12-09,1.1640470062877408,1.1640470062877408,0.0,0,False
2023-12-10,1.1640470062877408,1.1640470062877408,0.0,0,False
2023-12-11,1.1640470062877408,1.18706579664248,1.9774794514654914,4,True
2023-12-12,1.18706579664248,1.18706579664248,0.0,0,False
2023-12-13,1.18706579664248,1.1860373161781597,-0.0866405608879739,1,True
2023-12-14,1.1860373161781597,1.1860373161781597,0.0,0,False
2023-12-15,1.1860373161781597,1.1860373161781597,0.0,0,False
2023-12-16,1.1860373161781597,1.1837670933620896,-0.1914124273412865,1,True
2023-12-17,1.1837670933620896,1.1778575817801356,-0.4992123547859495,1,True
2023-12-18,1.1778575817801356,1.1841403241859545,0.5334042504802294,1,True
2023-12-19,1.1841403241859545,1.1797579850159252,-0.3700861359519969,0,True
2023-12-20,1.1797579850159252,1.1797579850159252,0.0,0,False
2023-12-21,1.1797579850159252,1.1738677954024745,-0.4992710105175657,1,True
2023-12-22,1.1738677954024745,1.1738677954024745,0.0,0,False
2023-12-23,1.1738677954024745,1.1738677954024745,0.0,0,False
2023-12-24,1.1738677954024745,1.1714314013893043,-0.20755267524268373,1,True
2023-12-25,1.1714314013893043,1.1680124180007398,-0.29186373051888204,0,True
2023-12-26,1.1680124180007398,1.1680124180007398,0.0,0,False
2023-12-27,1.1680124180007398,1.158181019637818,-0.8417203628494074,2,True
2023-12-28,1.158181019637818,1.1607642243462712,0.22303980678781699,1,True
2023-12-29,1.1607642243462712,1.1527852104792176,-0.6873931587224269,1,True
2023-12-30,1.1527852104792176,1.1586960059766245,0.5127403998312685,2,True
2023-12-31,1.1586960059766245,1.1483431254509102,-0.8934941065053659,1,True
