day,start_equity,end_equity,return_pct,entries,active
2024-01-02,1.0,0.9989153035442373,-0.10846964557627015,1,True
2024-01-03,0.9989153035442373,0.9911614874099226,-0.7762235803980055,9,True
2024-01-04,0.9911614874099226,0.9977057891450402,0.6602659423560642,0,True
2024-01-05,0.9977057891450402,0.982970938753975,-1.4768732978578614,4,True
2024-01-06,0.982970938753975,0.9724781167021812,-1.067460047709512,7,True
2024-01-07,0.9724781167021812,0.970736956025961,-0.17904368708313578,3,True
2024-01-08,0.970736956025961,0.9506758169481111,-2.066588580286155,4,True
2024-01-09,0.9506758169481111,0.9506758169481111,0.0,0,False
2024-01-10,0.9506758169481111,0.9415257724040981,-0.9624778900326647,4,True
2024-01-11,0.9415257724040981,0.9580768266905857,1.7578971039981184,3,True
2024-01-12,0.9580768266905857,0.9376914321995466,-2.1277411083466924,3,True
2024-01-13,0.9376914321995466,0.9331611564982581,-0.4831307555686837,6,True
2024-01-14,0.9331611564982581,0.9380464601051199,0.5235219632581112,0,True
2024-01-15,0.9380464601051199,0.9327325397966328,-0.5664879656271604,2,True
2024-01-16,0.9327325397966328,0.933688538749875,0.10249443569865235,1,True
2024-01-17,0.933688538749875,0.938761323432699,0.5433058747423392,0,True
2024-01-18,0.938761323432699,0.9379125598808299,-0.09041313597853984,1,True
2024-01-19,0.9379125598808299,0.9294086980165753,-0.9066796019167378,1,True
2024-01-20,0.9294086980165753,0.9451313273292189,1.6916808876651146,6,True
2024-01-21,0.9451313273292189,0.946386399925199,0.1327934605158676,1,True
2024-01-22,0.946386399925199,0.9269833061280424,-2.0502295678266558,4,True
2024-01-23,0.9269833061280424,0.9078747416941272,-2.0613709338230257,8,True
2024-01-24,0.9078747416941272,0.907171948798618,-0.07741077741603153,1,True
2024-01-25,0.907171948798618,0.9001676548669754,-0.7721021291408392,2,True
2024-01-26,0.9001676548669754,0.9001676548669754,0.0,0,False
2024-01-27,0.9001676548669754,0.9001676548669754,0.0,0,False
2024-01-28,0.9001676548669754,0.8992329034706275,-0.10384192225680877,1,True
2024-01-29,0.8992329034706275,0.8979183857242562,-0.14618212270678388,0,True
2024-01-30,0.8979183857242562,0.8979183857242562,0.0,0,False
2024-01-31,0.8979183857242562,0.8956787271729242,-0.24942785301422798,1,True
2024-02-01,0.8956787271729242,0.8956787271729242,0.0,0,False
2024-02-02,0.8956787271729242,0.8954011382491013,-0.030992019281184113,2,True
2024-02-03,0.8954011382491013,0.8999651567844137,0.5097177499949312,1,True
2024-02-04,0.8999651567844137,0.8996532004385352,-0.03466315818193566,1,True
2024-02-05,0.8996532004385352,0.8996532004385352,0.0,0,False
2024-02-06,0.8996532004385352,0.8966039031132313,-0.3389414191843576,2,True
2024-02-07,0.8966039031132313,0.8941641461769814,-0.27211089844451086,4,True
2024-02-08,0.8941641461769814,0.9053293109314147,1.2486705938915321,1,True
2024-02-09,0.9053293109314147,0.9114269952301716,0.6735321860377619,0,True
2024-02-10,0.9114269952301716,0.9086859045247143,-0.300747149228886,2,True
2024-02-11,0.9086859045247143,0.9078179411010623,-0.09551853058686888,0,True
2024-02-12,0.9078179411010623,0.9087341297884961,0.1009220732433036,1,True
2024-02-13,0.9087341297884961,0.9087674963706682,0.003671765049673148,0,True
2024-02-14,0.9087674963706682,0.9094327325014974,0.07320201630074408,2,True
2024-02-15,0.9094327325014974,0.9140666805792568,0.5095426975685324,1,True
2024-02-16,0.9140666805792568,0.9107639582882849,-0.3613218117609174,3,True
2024-02-17,0.9107639582882849,0.9088303785384404,-0.21230305967295804,5,True
2024-02-18,0.9088303785384404,0.910465495183216,0.1799143914406942,1,True
2024-02-19,0.910465495183216,0.9110068431789623,0.059458375809984254,2,True
2024-02-20,0.9110068431789623,0.9081045450462588,-0.3185813755883449,6,True
2024-02-21,0.9081045450462588,0.900221270538904,-0.8681020869632627,6,True
2024-02-22,0.900221270538904,0.9106293213965396,1.1561658448044687,3,True
2024-02-23,0.9106293213965396,0.9111916044684262,0.0617466469259087,3,True
2024-02-24,0.9111916044684262,0.9094059725400594,-0.1959666791935044,5,True
2024-02-25,0.9094059725400594,0.9054380946468761,-0.4363153545275944,4,True
2024-02-26,0.9054380946468761,0.9043742778163505,-0.1174919452599843,4,True
2024-02-27,0.9043742778163505,0.905323614447905,0.1049716533122469,2,True
2024-02-28,0.905323614447905,0.9206180358861255,1.6893872195687054,5,True
2024-02-29,0.9206180358861255,0.9312965523123247,1.1599290921908478,6,True
2024-03-01,0.9312965523123247,0.930276523329855,-0.10952783836007951,5,True
2024-03-02,0.930276523329855,0.9343119793321276,0.4337910181617888,4,True
2024-03-03,0.9343119793321276,0.9352343153306066,0.09871820322140401,9,True
2024-03-04,0.9352343153306066,0.9466537176013209,1.2210204526848845,1,True
2024-03-05,0.9466537176013209,0.9551116824191255,0.8934592090585891,8,True
2024-03-06,0.9551116824191255,0.9497414999438774,-0.5622570191630816,13,True
2024-03-07,0.9497414999438774,0.9544013330168334,0.49064225088946145,3,True
2024-03-08,0.9544013330168334,0.9552750649762382,0.09154764659045078,5,True
2024-03-09,0.9552750649762382,0.9491901260996227,-0.6369829067784605,5,True
2024-03-10,0.9491901260996227,0.9657386356959892,1.7434346545899038,6,True
2024-03-11,0.9657386356959892,0.9711987244175576,0.5653795467790879,3,True
2024-03-12,0.9711987244175576,0.9699667801850985,-0.1268478017408703,3,True
2024-03-13,0.9699667801850985,0.9748588588762467,0.5043552821690112,5,True
2024-03-14,0.9748588588762467,0.9834790662390934,0.8842518364949425,5,True
2024-03-15,0.9834790662390934,0.9606241462943589,-2.323884740336535,10,True
2024-03-16,0.9606241462943589,0.960399552634316,-0.02337997237621403,3,True
2024-03-17,0.960399552634316,0.9508496527586827,-0.994367380684269,5,True
2024-03-18,0.9508496527586827,0.9506300010652273,-0.023100570402279086,4,True
2024-03-19,0.9506300010652273,0.9400423780731332,-1.1137480386933074,11,True
2024-03-20,0.9400423780731332,0.9337319455301658,-0.6712923470431509,4,True
2024-03-21,0.9337319455301658,0.9338316277777028,0.010675681389527014,4,True
2024-03-22,0.9338316277777028,0.9370266383733385,0.34213989980604875,6,True
2024-03-23,0.9370266383733385,0.9511786097423082,1.5103061950871632,5,True
2024-03-24,0.9511786097423082,0.9534554802554652,0.23937360342596303,4,True
2024-03-25,0.9534554802554652,0.9593362785042489,0.6167879225160933,4,True
2024-03-26,0.9593362785042489,0.973565021618041,1.4831861811769542,4,True
2024-03-27,0.973565021618041,0.9707569275003911,-0.2884341626184339,6,True
2024-03-28,0.9707569275003911,0.9653034629571193,-0.5617744657577584,2,True
2024-03-29,0.9653034629571193,0.9594531318937316,-0.6060613359311628,6,True
2024-03-30,0.9594531318937316,0.9543562616437548,-0.5312265998774546,2,True
2024-03-31,0.9543562616437548,0.9543148116190346,-0.00434324438221001,0,True
2024-04-01,0.9543148116190346,0.9532675104921441,-0.1097437778539545,5,True
2024-04-02,0.9532675104921441,0.939147839963158,-1.4811865896590226,5,True
2024-04-03,0.939147839963158,0.9283774565721988,-1.1468251251455452,3,True
2024-04-04,0.9283774565721988,0.9280243650934196,-0.0380331810385548,1,True
2024-04-05,0.9280243650934196,0.9231313853256103,-0.5272469077163389,5,True
2024-04-06,0.9231313853256103,0.9195889149606142,-0.38374498162540016,1,True
2024-04-07,0.9195889149606142,0.9290795494436853,1.0320518580280602,3,True
2024-04-08,0.9290795494436853,0.9222760585662991,-0.7322829225398397,1,True
2024-04-09,0.9222760585662991,0.9174113968096175,-0.527462651935684,3,True
2024-04-10,0.9174113968096175,0.9172846281933541,-0.013818077331961831,4,True
2024-04-11,0.9172846281933541,0.9231965730622451,0.6445049537715297,1,True
2024-04-12,0.9231965730622451,0.9210234241699966,-0.23539395137052166,8,True
2024-04-13,0.9210234241699966,0.9049789111783091,-1.7420309376112164,10,True
2024-04-14,0.9049789111783091,0.8850535337719814,-2.2017504673544575,7,True
2024-04-15,0.8850535337719814,0.8871315264129087,0.23478722604171054,5,True
2024-04-16,0.8871315264129087,0.879825575400978,-0.8235476695853783,1,True
2024-04-17,0.879825575400978,0.8792765341339314,-0.062403422041523715,0,True
2024-04-18,0.8792765341339314,0.8891450373546735,1.1223435219344768,1,True
2024-04-19,0.8891450373546735,0.8972867797486132,0.9156821499181289,5,True
2024-04-20,0.8972867797486132,0.8972522657082571,-0.0038464893426515268,0,True
2024-04-21,0.8972522657082571,0.8972522657082571,0.0,0,False
2024-04-22,0.8972522657082571,0.8972522657082571,0.0,0,False
2024-04-23,0.8972522657082571,0.903439803386638,0.6896095908430766,3,True
2024-04-24,0.903439803386638,0.9001507136287306,-0.3640629675134899,2,True
2024-04-25,0.9001507136287306,0.9004338254922039,0.031451606846144564,2,True
2024-04-26,0.9004338254922039,0.897820583623404,-0.2902203132330583,1,True
2024-04-27,0.897820583623404,0.8992351120655667,0.1575513491185454,6,True
2024-04-28,0.8992351120655667,0.9024463565195511,0.35710843703689044,3,True
2024-04-29,0.9024463565195511,0.9049504482912608,0.27747818511532074,2,True
2024-04-30,0.9049504482912608,0.9002356324030253,-0.5210026578955862,2,True
2024-05-01,0.9002356324030253,0.8938873753767533,-0.7051772666814338,6,True
2024-05-02,0.8938873753767533,0.8988491826929386,0.5550819323400624,3,True
2024-05-03,0.8988491826929386,0.9008799578714005,0.22593058074300565,1,True
2024-05-04,0.9008799578714005,0.9013244925489601,0.0493444963089118,0,True
2024-05-05,0.9013244925489601,0.8994462054081577,-0.2083918895281034,1,True
2024-05-06,0.8994462054081577,0.8990743096192969,-0.04134719637757245,0,True
2024-05-07,0.8990743096192969,0.9015960026886137,0.2804766015819693,3,True
2024-05-08,0.9015960026886137,0.901327679126924,-0.029760952897917026,3,True
2024-05-09,0.901327679126924,0.8983029617407848,-0.3355846554129016,1,True
2024-05-10,0.8983029617407848,0.898355247627134,0.005820518085331017,2,True
2024-05-11,0.898355247627134,0.896567330693333,-0.19902114876308996,4,True
2024-05-12,0.896567330693333,0.893909015023795,-0.2964992788084597,0,True
2024-05-13,0.893909015023795,0.8923081603804016,-0.17908474089511905,4,True
2024-05-14,0.8923081603804016,0.8874913246529234,-0.5398175138760175,3,True
2024-05-15,0.8874913246529234,0.8892041418770045,0.19299537657464505,3,True
2024-05-16,0.8892041418770045,0.891384129455985,0.24516165369841136,2,True
2024-05-17,0.891384129455985,0.8916750735389565,0.03263958526489308,0,True
2024-05-18,0.8916750735389565,0.8948196311458532,0.3526573412460987,2,True
2024-05-19,0.8948196311458532,0.8944111468007876,-0.04564990874669217,0,True
2024-05-20,0.8944111468007876,0.8972841144219491,0.3212133068150935,2,True
2024-05-21,0.8972841144219491,0.893985082194615,-0.36766863185351273,2,True
2024-05-22,0.893985082194615,0.8958686752120498,0.21069624705714052,1,True
2024-05-23,0.8958686752120498,0.8880441668201984,-0.8733990380899725,5,True
2024-05-24,0.8880441668201984,0.8965142803554249,0.9537941750752399,3,True
2024-05-25,0.8965142803554249,0.8960336300494877,-0.05361323477710567,0,True
2024-05-26,0.8960336300494877,0.8982201223547677,0.2440190001751663,3,True
2024-05-27,0.8982201223547677,0.9081239480974412,1.102605641555865,3,True
2024-05-28,0.9081239480974412,0.9129241548739261,0.528584978574953,2,True
2024-05-29,0.9129241548739261,0.9133082923473512,0.042077698500397887,1,True
2024-05-30,0.9133082923473512,0.902764957318069,-1.1544113983881665,5,True
2024-05-31,0.902764957318069,0.9024984869410024,-0.029517137867007825,1,True
2024-06-01,0.9024984869410024,0.9005621145943132,-0.21455685241672517,2,True
2024-06-02,0.9005621145943132,0.9058541964427504,0.587642069622385,0,True
2024-06-03,0.9058541964427504,0.8996375102824503,-0.6862788939669073,5,True
2024-06-04,0.8996375102824503,0.9027449385700284,0.345408928825397,5,True
2024-06-05,0.9027449385700284,0.9058502143680938,0.34398152405974436,0,True
2024-06-06,0.9058502143680938,0.9054345850434169,-0.04588278703083759,2,True
2024-06-07,0.9054345850434169,0.9038017803207944,-0.18033381423619987,0,True
2024-06-08,0.9038017803207944,0.9137764365049712,1.1036331639705743,7,True
2024-06-09,0.9137764365049712,0.9173204740268831,0.38784514245817636,1,True
2024-06-10,0.9173204740268831,0.9143056398647856,-0.32865658703362666,0,True
2024-06-11,0.9143056398647856,0.9129924139249772,-0.14363095693061823,2,True
2024-06-12,0.9129924139249772,0.9176934258856829,0.514901535763701,3,True
2024-06-13,0.9176934258856829,0.9178083752947674,0.012525905257909642,3,True
2024-06-14,0.9178083752947674,0.9092309759333128,-0.9345523087757712,5,True
2024-06-15,0.9092309759333128,0.9115702780665533,0.2572835940657825,5,True
2024-06-16,0.9115702780665533,0.9120676765026853,0.054565012495455534,0,True
2024-06-17,0.9120676765026853,0.9040060880852439,-0.8838805085554124,4,True
2024-06-18,0.9040060880852439,0.9063859477743095,0.26325704222924795,5,True
2024-06-19,0.9063859477743095,0.9136782181824016,0.8045436302271503,0,True
2024-06-20,0.9136782181824016,0.9158965169012788,0.24278774241659473,1,True
2024-06-21,0.9158965169012788,0.9149345256340365,-0.10503274654837247,1,True
2024-06-22,0.9149345256340365,0.9168905116647609,0.21378426279945462,2,True
2024-06-23,0.9168905116647609,0.9164498110875756,-0.04806468946713105,2,True
2024-06-24,0.9164498110875756,0.9139482263435367,-0.27296472908541203,1,True
2024-06-25,0.9139482263435367,0.9165155717643994,0.2809070959231441,0,True
2024-06-26,0.9165155717643994,0.9165155717643994,0.0,0,False
2024-06-27,0.9165155717643994,0.9142341659136564,-0.24892166822120254,1,True
2024-06-28,0.9142341659136564,0.9132022871009077,-0.11286810876482978,2,True
2024-06-29,0.9132022871009077,0.9050971359971587,-0.8875526505173315,5,True
2024-06-30,0.9050971359971587,0.9099173108856697,0.532558848857767,0,True
2024-07-01,0.9099173108856697,0.9067467299045433,-0.3484471548343637,2,True
2024-07-02,0.9067467299045433,0.9092638503363804,0.2775990636439296,0,True
2024-07-03,0.9092638503363804,0.9069975463823553,-0.2492460195339996,1,True
2024-07-04,0.9069975463823553,0.8990937937201301,-0.871419409429508,5,True
2024-07-05,0.8990937937201301,0.8758019525291368,-2.5905908097329733,9,True
2024-07-06,0.8758019525291368,0.875984082873561,0.020795836764020414,3,True
2024-07-07,0.875984082873561,0.8811239829676514,0.5867572476008442,1,True
2024-07-08,0.8811239829676514,0.881202269485622,0.008884847023105102,2,True
2024-07-09,0.881202269485622,0.8880531146594322,0.7774429788758086,2,True
2024-07-10,0.8880531146594322,0.8886375723175304,0.06581336729192255,1,True
2024-07-11,0.8886375723175304,0.8836504461125124,-0.5612103697136828,2,True
2024-07-12,0.8836504461125124,0.8836504461125124,0.0,0,False
2024-07-13,0.8836504461125124,0.8830230967932504,-0.07099519069129201,2,True
2024-07-14,0.8830230967932504,0.89433349923719,1.2808727750173166,1,True
2024-07-15,0.89433349923719,0.8955567184086592,0.1367743881351524,0,True
2024-07-16,0.8955567184086592,0.8910943036273467,-0.49828388192341144,2,True
2024-07-17,0.8910943036273467,0.8934251353129883,0.26156958653573703,1,True
2024-07-18,0.8934251353129883,0.8940039746951336,0.06478879530769088,0,True
2024-07-19,0.8940039746951336,0.8927020997688169,-0.14562294611281112,2,True
2024-07-20,0.8927020997688169,0.8932498693682734,0.061360850343961104,0,True
2024-07-21,0.8932498693682734,0.8930439453846792,-0.023053346063162117,1,True
2024-07-22,0.8930439453846792,0.892871576760471,-0.019301247726832838,1,True
2024-07-23,0.892871576760471,0.8898575984477801,-0.3375601140341189,3,True
2024-07-24,0.8898575984477801,0.8876046221632442,-0.25318391262443285,1,True
2024-07-25,0.8876046221632442,0.8845226992735198,-0.3472179856627178,3,True
2024-07-26,0.8845226992735198,0.8839751664838319,-0.06190149672106182,0,True
2024-07-27,0.8839751664838319,0.885656217616091,0.19016949751493595,1,True
2024-07-28,0.885656217616091,0.8799081735172565,-0.649015270767983,2,True
2024-07-29,0.8799081735172565,0.8795785931571134,-0.037456222144827134,0,True
2024-07-30,0.8795785931571134,0.8779012152712293,-0.19070244534525882,2,True
2024-07-31,0.8779012152712293,0.8736948379922327,-0.47914015903225415,4,True
2024-08-01,0.8736948379922327,0.87371027769801,0.0017671737437385815,1,True
2024-08-02,0.87371027769801,0.8667190628067125,-0.8001754208176948,4,True
2024-08-03,0.8667190628067125,0.8638698698473294,-0.3287331595265175,7,True
2024-08-04,0.8638698698473294,0.8517631915074644,-1.401446995946809,3,True
2024-08-05,0.8517631915074644,0.8517631915074644,0.0,0,False
2024-08-06,0.8517631915074644,0.8517631915074644,0.0,0,False
2024-08-07,0.8517631915074644,0.8517631915074644,0.0,0,False
2024-08-08,0.8517631915074644,0.8517631915074644,0.0,0,False
2024-08-09,0.8517631915074644,0.8517631915074644,0.0,0,False
2024-08-10,0.8517631915074644,0.8517631915074644,0.0,0,False
2024-08-11,0.8517631915074644,0.8517631915074644,0.0,0,False
2024-08-12,0.8517631915074644,0.8517631915074644,0.0,0,False
2024-08-13,0.8517631915074644,0.8517631915074644,0.0,0,False
2024-08-14,0.8517631915074644,0.8517631915074644,0.0,0,False
2024-08-15,0.8517631915074644,0.8517631915074644,0.0,0,False
2024-08-16,0.8517631915074644,0.8517631915074644,0.0,0,False
2024-08-17,0.8517631915074644,0.8517631915074644,0.0,0,False
2024-08-18,0.8517631915074644,0.8517631915074644,0.0,0,False
2024-08-19,0.8517631915074644,0.8517631915074644,0.0,0,False
2024-08-20,0.8517631915074644,0.8517631915074644,0.0,0,False
2024-08-21,0.8517631915074644,0.8517631915074644,0.0,0,False
2024-08-22,0.8517631915074644,0.8517631915074644,0.0,0,False
2024-08-23,0.8517631915074644,0.8517631915074644,0.0,0,False
2024-08-24,0.8517631915074644,0.8517631915074644,0.0,0,False
2024-08-25,0.8517631915074644,0.8517631915074644,0.0,0,False
2024-08-26,0.8517631915074644,0.8517631915074644,0.0,0,False
2024-08-27,0.8517631915074644,0.8517631915074644,0.0,0,False
2024-08-28,0.8517631915074644,0.8517631915074644,0.0,0,False
2024-08-29,0.8517631915074644,0.8517631915074644,0.0,0,False
2024-08-30,0.8517631915074644,0.8517631915074644,0.0,0,False
2024-08-31,0.8517631915074644,0.8517631915074644,0.0,0,False
2024-09-01,0.8517631915074644,0.8517631915074644,0.0,0,False
2024-09-02,0.8517631915074644,0.8517631915074644,0.0,0,False
2024-09-03,0.8517631915074644,0.8517631915074644,0.0,0,False
2024-09-04,0.8517631915074644,0.8517631915074644,0.0,0,False
2024-09-05,0.8517631915074644,0.8517631915074644,0.0,0,False
2024-09-06,0.8517631915074644,0.8517631915074644,0.0,0,False
2024-09-07,0.8517631915074644,0.8517631915074644,0.0,0,False
2024-09-08,0.8517631915074644,0.8517631915074644,0.0,0,False
2024-09-09,0.8517631915074644,0.8517631915074644,0.0,0,False
2024-09-10,0.8517631915074644,0.8517631915074644,0.0,0,False
2024-09-11,0.8517631915074644,0.8517631915074644,0.0,0,False
2024-09-12,0.8517631915074644,0.8517631915074644,0.0,0,False
2024-09-13,0.8517631915074644,0.8517631915074644,0.0,0,False
2024-09-14,0.8517631915074644,0.8517631915074644,0.0,0,False
2024-09-15,0.8517631915074644,0.8517631915074644,0.0,0,False
2024-09-16,0.8517631915074644,0.8517631915074644,0.0,0,False
2024-09-17,0.8517631915074644,0.8517631915074644,0.0,0,False
2024-09-18,0.8517631915074644,0.8517631915074644,0.0,0,False
2024-09-19,0.8517631915074644,0.8517631915074644,0.0,0,False
2024-09-20,0.8517631915074644,0.8517631915074644,0.0,0,False
2024-09-21,0.8517631915074644,0.8517631915074644,0.0,0,False
2024-09-22,0.8517631915074644,0.8517631915074644,0.0,0,False
2024-09-23,0.8517631915074644,0.8517631915074644,0.0,0,False
2024-09-24,0.8517631915074644,0.8517631915074644,0.0,0,False
2024-09-25,0.8517631915074644,0.8517631915074644,0.0,0,False
2024-09-26,0.8517631915074644,0.8517631915074644,0.0,0,False
2024-09-27,0.8517631915074644,0.8517631915074644,0.0,0,False
2024-09-28,0.8517631915074644,0.8517631915074644,0.0,0,False
2024-09-29,0.8517631915074644,0.8517631915074644,0.0,0,False
2024-09-30,0.8517631915074644,0.8517631915074644,0.0,0,False
2024-10-01,0.8517631915074644,0.8517631915074644,0.0,0,False
2024-10-02,0.8517631915074644,0.8517631915074644,0.0,0,False
2024-10-03,0.8517631915074644,0.8517631915074644,0.0,0,False
2024-10-04,0.8517631915074644,0.8517631915074644,0.0,0,False
2024-10-05,0.8517631915074644,0.8517631915074644,0.0,0,False
2024-10-06,0.8517631915074644,0.8517631915074644,0.0,0,False
2024-10-07,0.8517631915074644,0.8517631915074644,0.0,0,False
2024-10-08,0.8517631915074644,0.8517631915074644,0.0,0,False
2024-10-09,0.8517631915074644,0.8517631915074644,0.0,0,False
2024-10-10,0.8517631915074644,0.8517631915074644,0.0,0,False
2024-10-11,0.8517631915074644,0.8517631915074644,0.0,0,False
2024-10-12,0.8517631915074644,0.8517631915074644,0.0,0,False
2024-10-13,0.8517631915074644,0.8517631915074644,0.0,0,False
2024-10-14,0.8517631915074644,0.8517631915074644,0.0,0,False
2024-10-15,0.8517631915074644,0.8517631915074644,0.0,0,False
2024-10-16,0.8517631915074644,0.8517631915074644,0.0,0,False
2024-10-17,0.8517631915074644,0.8517631915074644,0.0,0,False
2024-10-18,0.8517631915074644,0.8517631915074644,0.0,0,False
2024-10-19,0.8517631915074644,0.8517631915074644,0.0,0,False
2024-10-20,0.8517631915074644,0.8517631915074644,0.0,0,False
2024-10-21,0.8517631915074644,0.8517631915074644,0.0,0,False
2024-10-22,0.8517631915074644,0.8517631915074644,0.0,0,False
2024-10-23,0.8517631915074644,0.8517631915074644,0.0,0,False
2024-10-24,0.8517631915074644,0.8517631915074644,0.0,0,False
2024-10-25,0.8517631915074644,0.8517631915074644,0.0,0,False
2024-10-26,0.8517631915074644,0.8517631915074644,0.0,0,False
2024-10-27,0.8517631915074644,0.8517631915074644,0.0,0,False
2024-10-28,0.8517631915074644,0.8517631915074644,0.0,0,False
2024-10-29,0.8517631915074644,0.8517631915074644,0.0,0,False
2024-10-30,0.8517631915074644,0.8517631915074644,0.0,0,False
2024-10-31,0.8517631915074644,0.8517631915074644,0.0,0,False
2024-11-01,0.8517631915074644,0.8517631915074644,0.0,0,False
2024-11-02,0.8517631915074644,0.8517631915074644,0.0,0,False
2024-11-03,0.8517631915074644,0.8517631915074644,0.0,0,False
2024-11-04,0.8517631915074644,0.8517631915074644,0.0,0,False
2024-11-05,0.8517631915074644,0.8517631915074644,0.0,0,False
2024-11-06,0.8517631915074644,0.8517631915074644,0.0,0,False
2024-11-07,0.8517631915074644,0.8517631915074644,0.0,0,False
2024-11-08,0.8517631915074644,0.8517631915074644,0.0,0,False
2024-11-09,0.8517631915074644,0.8517631915074644,0.0,0,False
2024-11-10,0.8517631915074644,0.8517631915074644,0.0,0,False
2024-11-11,0.8517631915074644,0.8517631915074644,0.0,0,False
2024-11-12,0.8517631915074644,0.8517631915074644,0.0,0,False
2024-11-13,0.8517631915074644,0.8517631915074644,0.0,0,False
2024-11-14,0.8517631915074644,0.8517631915074644,0.0,0,False
2024-11-15,0.8517631915074644,0.8517631915074644,0.0,0,False
2024-11-16,0.8517631915074644,0.8517631915074644,0.0,0,False
2024-11-17,0.8517631915074644,0.8517631915074644,0.0,0,False
2024-11-18,0.8517631915074644,0.8517631915074644,0.0,0,False
2024-11-19,0.8517631915074644,0.8517631915074644,0.0,0,False
2024-11-20,0.8517631915074644,0.8517631915074644,0.0,0,False
2024-11-21,0.8517631915074644,0.8517631915074644,0.0,0,False
2024-11-22,0.8517631915074644,0.8517631915074644,0.0,0,False
2024-11-23,0.8517631915074644,0.8517631915074644,0.0,0,False
2024-11-24,0.8517631915074644,0.8517631915074644,0.0,0,False
2024-11-25,0.8517631915074644,0.8517631915074644,0.0,0,False
2024-11-26,0.8517631915074644,0.8517631915074644,0.0,0,False
2024-11-27,0.8517631915074644,0.8517631915074644,0.0,0,False
2024-11-28,0.8517631915074644,0.8517631915074644,0.0,0,False
2024-11-29,0.8517631915074644,0.8517631915074644,0.0,0,False
2024-11-30,0.8517631915074644,0.8517631915074644,0.0,0,False
2024-12-01,0.8517631915074644,0.8517631915074644,0.0,0,False
2024-12-02,0.8517631915074644,0.8517631915074644,0.0,0,False
2024-12-03,0.8517631915074644,0.8517631915074644,0.0,0,False
2024-12-04,0.8517631915074644,0.8517631915074644,0.0,0,False
2024-12-05,0.8517631915074644,0.8517631915074644,0.0,0,False
2024-12-06,0.8517631915074644,0.8517631915074644,0.0,0,False
2024-12-07,0.8517631915074644,0.8517631915074644,0.0,0,False
2024-12-08,0.8517631915074644,0.8517631915074644,0.0,0,False
2024-12-09,0.8517631915074644,0.8517631915074644,0.0,0,False
2024-12-10,0.8517631915074644,0.8517631915074644,0.0,0,False
2024-12-11,0.8517631915074644,0.8517631915074644,0.0,0,False
2024-12-12,0.8517631915074644,0.8517631915074644,0.0,0,False
2024-12-13,0.8517631915074644,0.8517631915074644,0.0,0,False
2024-12-14,0.8517631915074644,0.8517631915074644,0.0,0,False
2024-12-15,0.8517631915074644,0.8517631915074644,0.0,0,False
2024-12-16,0.8517631915074644,0.8517631915074644,0.0,0,False
2024-12-17,0.8517631915074644,0.8517631915074644,0.0,0,False
2024-12-18,0.8517631915074644,0.8517631915074644,0.0,0,False
2024-12-19,0.8517631915074644,0.8517631915074644,0.0,0,False
2024-12-20,0.8517631915074644,0.8517631915074644,0.0,0,False
2024-12-21,0.8517631915074644,0.8517631915074644,0.0,0,False
2024-12-22,0.8517631915074644,0.8517631915074644,0.0,0,False
2024-12-23,0.8517631915074644,0.8517631915074644,0.0,0,False
2024-12-24,0.8517631915074644,0.8517631915074644,0.0,0,False
2024-12-25,0.8517631915074644,0.8517631915074644,0.0,0,False
2024-12-26,0.8517631915074644,0.8517631915074644,0.0,0,False
2024-12-27,0.8517631915074644,0.8517631915074644,0.0,0,False
2024-12-28,0.8517631915074644,0.8517631915074644,0.0,0,False
2024-12-29,0.8517631915074644,0.8517631915074644,0.0,0,False
2024-12-30,0.8517631915074644,0.8517631915074644,0.0,0,False
2024-12-31,0.8517631915074644,0.8517631915074644,0.0,0,False
