day,start_equity,end_equity,return_pct,entries,active
2024-01-02,1.0093726014227875,1.0167482384705857,0.7307150042909605,0,True
2024-01-03,1.0167482384705857,1.035691772625015,1.8631489524805644,4,True
2024-01-04,1.035691772625015,1.0329009512645297,-0.2694644714046346,2,True
2024-01-05,1.0329009512645297,1.0329009512645297,0.0,0,False
2024-01-06,1.0329009512645297,1.0416812822081238,0.8500651425332517,3,True
2024-01-07,1.0416812822081238,1.0498125811210062,0.7805937431885068,2,True
2024-01-08,1.0498125811210062,1.0380347785972481,-1.1218957303008814,5,True
2024-01-09,1.0380347785972481,1.0408839567670105,0.27447810309522147,1,True
2024-01-10,1.0408839567670105,1.0269740290122438,-1.3363572052710881,4,True
2024-01-11,1.0269740290122438,1.0269740290122438,0.0,0,False
2024-01-12,1.0269740290122438,1.040710710559303,1.3375880167360465,1,True
2024-01-13,1.040710710559303,1.040710710559303,0.0,0,False
2024-01-14,1.040710710559303,1.0381134334470588,-0.24956763545254113,1,True
2024-01-15,1.0381134334470588,1.041736867285129,0.34904026104725094,1,True
2024-01-16,1.041736867285129,1.041736867285129,0.0,0,False
2024-01-17,1.041736867285129,1.041736867285129,0.0,0,False
2024-01-18,1.041736867285129,1.0402996546971977,-0.13796311074953937,1,True
2024-01-19,1.0402996546971977,1.0402996546971977,0.0,0,False
2024-01-20,1.0402996546971977,1.0402996546971977,0.0,0,False
2024-01-21,1.0402996546971977,1.0402996546971977,0.0,0,False
2024-01-22,1.0402996546971977,1.0402996546971977,0.0,0,False
2024-01-23,1.0402996546971977,1.0320363730789435,-0.7943174431466526,3,True
2024-01-24,1.0320363730789435,1.0320363730789435,0.0,0,False
2024-01-25,1.0320363730789435,1.0283313654453292,-0.3589997145702184,1,True
2024-01-26,1.0283313654453292,1.0283313654453292,0.0,0,False
2024-01-27,1.0283313654453292,1.0283313654453292,0.0,0,False
2024-01-28,1.0283313654453292,1.0249521818026501,-0.3286084385081156,2,True
2024-01-29,1.0249521818026501,1.0249521818026501,0.0,0,False
2024-01-30,1.0249521818026501,1.0249521818026501,0.0,0,False
2024-01-31,1.0249521818026501,1.0249521818026501,0.0,0,False
2024-02-01,1.0249521818026501,1.0249521818026501,0.0,0,False
2024-02-02,1.0249521818026501,1.0249622877193452,0.0009859890904628799,1,True
2024-02-03,1.0249622877193452,1.0249622877193452,0.0,0,False
2024-02-04,1.0249622877193452,1.0249622877193452,0.0,0,False
2024-02-05,1.0249622877193452,1.0249622877193452,0.0,0,False
2024-02-06,1.0249622877193452,1.01584832583331,-0.8891997291251341,2,True
2024-02-07,1.01584832583331,1.0136059740877998,-0.2207368647943242,1,True
2024-02-08,1.0136059740877998,1.0136059740877998,0.0,0,False
2024-02-09,1.0136059740877998,1.0136059740877998,0.0,0,False
2024-02-10,1.0136059740877998,1.0136059740877998,0.0,0,False
2024-02-11,1.0136059740877998,1.0136059740877998,0.0,0,False
2024-02-12,1.0136059740877998,1.0136059740877998,0.0,0,False
2024-02-13,1.0136059740877998,1.0136059740877998,0.0,0,False
2024-02-14,1.0136059740877998,1.0136059740877998,0.0,0,False
2024-02-15,1.0136059740877998,1.0393319374408418,2.5380635089679915,2,True
2024-02-16,1.0393319374408418,1.0284632927780788,-1.0457337325287086,1,True
2024-02-17,1.0284632927780788,1.0284632927780788,0.0,0,False
2024-02-18,1.0284632927780788,1.0284632927780788,0.0,0,False
2024-02-19,1.0284632927780788,1.0284632927780788,0.0,0,False
2024-02-20,1.0284632927780788,1.0233273952656006,-0.49937586966328773,1,True
2024-02-21,1.0233273952656006,1.0452670499284333,2.1439526357191374,5,True
2024-02-22,1.0452670499284333,1.0613701853404123,1.540576201371846,1,True
2024-02-23,1.0613701853404123,1.0538031199085438,-0.712952515190679,2,True
2024-02-24,1.0538031199085438,1.0538031199085438,0.0,0,False
2024-02-25,1.0538031199085438,1.0538031199085438,0.0,0,False
2024-02-26,1.0538031199085438,1.0559264248621254,0.20148971980324948,2,True
2024-02-27,1.0559264248621254,1.0519642577477202,-0.3752313628217596,2,True
2024-02-28,1.0519642577477202,1.0435851234136249,-0.7965227214121517,1,True
2024-02-29,1.0435851234136249,1.0613965026697874,1.706749057317003,6,True
2024-03-01,1.0613965026697874,1.056172127688112,-0.4922170902706191,2,True
2024-03-02,1.056172127688112,1.0472554501435714,-0.844244731591115,2,True
2024-03-03,1.0472554501435714,1.0675678112107903,1.9395803635525732,4,True
2024-03-04,1.0675678112107903,1.0663439678314557,-0.11463846759734997,0,True
2024-03-05,1.0663439678314557,1.0665853501969744,0.022636444974666325,2,True
2024-03-06,1.0665853501969744,1.0830685295047986,1.5454158736363688,9,True
2024-03-07,1.0830685295047986,1.0806865422747647,-0.21992950262555988,5,True
2024-03-08,1.0806865422747647,1.0860951139668074,0.5004755292555174,1,True
2024-03-09,1.0860951139668074,1.0840531205582475,-0.1880123924967947,2,True
2024-03-10,1.0840531205582475,1.0859081217232003,0.17111718326103809,1,True
2024-03-11,1.0859081217232003,1.0858576612057798,-0.004646849619327487,1,True
2024-03-12,1.0858576612057798,1.0945276904683554,0.7984498864195722,2,True
2024-03-13,1.0945276904683554,1.0945276904683554,0.0,0,False
2024-03-14,1.0945276904683554,1.0945276904683554,0.0,0,False
2024-03-15,1.0945276904683554,1.092057896082979,-0.22564932864508336,1,True
2024-03-16,1.092057896082979,1.0866066843145372,-0.49916875176621023,1,True
2024-03-17,1.0866066843145372,1.0811820780466608,-0.49922445224956924,1,True
2024-03-18,1.0811820780466608,1.078908750145663,-0.21026318759417295,1,True
2024-03-19,1.078908750145663,1.0650697898436245,-1.2826812554972755,2,True
2024-03-20,1.0650697898436245,1.064355146203181,-0.06709829226763109,1,True
2024-03-21,1.064355146203181,1.0455358653576445,-1.7681392261473583,3,True
2024-03-22,1.0455358653576445,1.0498234324809366,0.41008321812330273,2,True
2024-03-23,1.0498234324809366,1.045302262198216,-0.43066006557276326,1,True
2024-03-24,1.045302262198216,1.044024488310726,-0.12223965581046325,2,True
2024-03-25,1.044024488310726,1.044024488310726,0.0,0,False
2024-03-26,1.044024488310726,1.048356810410744,0.4149636477423835,1,True
2024-03-27,1.048356810410744,1.0425356192773019,-0.5552681182241059,3,True
2024-03-28,1.0425356192773019,1.0425356192773019,0.0,0,False
2024-03-29,1.0425356192773019,1.0321580070092966,-0.9954204034965386,2,True
2024-03-30,1.0321580070092966,1.0321580070092966,0.0,0,False
2024-03-31,1.0321580070092966,1.0321580070092966,0.0,0,False
2024-04-01,1.0321580070092966,1.0274417263420828,-0.45693398057138346,2,True
2024-04-02,1.0274417263420828,1.0263339466090644,-0.10781922756458728,2,True
2024-04-03,1.0263339466090644,1.0260978285548412,-0.023005967502420788,1,True
2024-04-04,1.0260978285548412,1.0260978285548412,0.0,0,False
2024-04-05,1.0260978285548412,1.024582130453099,-0.14771477529358368,2,True
2024-04-06,1.024582130453099,1.0175574210457397,-0.6856170138603623,0,True
2024-04-07,1.0175574210457397,1.0202577603083578,0.2653746321109818,2,True
2024-04-08,1.0202577603083578,1.019542426299872,-0.07011306713997634,0,True
2024-04-09,1.019542426299872,1.0144885035804982,-0.4957049936328284,1,True
2024-04-10,1.0144885035804982,1.0094293071605198,-0.4986943077346595,1,True
2024-04-11,1.0094293071605198,1.0094293071605198,0.0,0,False
2024-04-12,1.0094293071605198,1.0043935557652817,-0.4988711304017457,1,True
2024-04-13,1.0043935557652817,1.0014019798069451,-0.2978489797315742,9,True
2024-04-14,1.0014019798069451,1.008563138314925,0.7151132764247503,8,True
2024-04-15,1.008563138314925,1.0160618920442064,0.7435086058975138,2,True
2024-04-16,1.0160618920442064,1.0131783092763074,-0.28379991322158293,0,True
2024-04-17,1.0131783092763074,1.0081205155561062,-0.49920075014375787,1,True
2024-04-18,1.0081205155561062,1.0081205155561062,0.0,0,False
2024-04-19,1.0081205155561062,1.0081205155561062,0.0,0,False
2024-04-20,1.0081205155561062,1.0081205155561062,0.0,0,False
2024-04-21,1.0081205155561062,1.0081205155561062,0.0,0,False
2024-04-22,1.0081205155561062,1.0081205155561062,0.0,0,False
2024-04-23,1.0081205155561062,1.003085603045517,-0.4994355766891334,1,True
2024-04-24,1.003085603045517,1.003085603045517,0.0,0,False
2024-04-25,1.003085603045517,1.0081372911232436,0.5036148522507666,2,True
2024-04-26,1.0081372911232436,1.0060339571018373,-0.20863567293128993,0,True
2024-04-27,1.0060339571018373,1.0010122988494743,-0.4991539517045007,1,True
2024-04-28,1.0010122988494743,1.0010122988494743,0.0,0,False
2024-04-29,1.0010122988494743,1.0067198897179768,0.5701818923766089,1,True
2024-04-30,1.0067198897179768,1.0067198897179768,0.0,0,False
2024-05-01,1.0067198897179768,1.0067198897179768,0.0,0,False
2024-05-02,1.0067198897179768,1.0067198897179768,0.0,0,False
2024-05-03,1.0067198897179768,1.0067198897179768,0.0,0,False
2024-05-04,1.0067198897179768,1.0067198897179768,0.0,0,False
2024-05-05,1.0067198897179768,1.0067198897179768,0.0,0,False
2024-05-06,1.0067198897179768,1.0067198897179768,0.0,0,False
2024-05-07,1.0067198897179768,1.0016935856733058,-0.49927532931519636,1,True
2024-05-08,1.0016935856733058,1.0016935856733058,0.0,0,False
2024-05-09,1.0016935856733058,0.9838995673566134,-1.776393357329109,5,True
2024-05-10,0.9838995673566134,0.9818924444100323,-0.20399673027334808,1,True
2024-05-11,0.9818924444100323,0.9821574510157352,0.02698937212639585,1,True
2024-05-12,0.9821574510157352,0.9809947399372745,-0.11838336890467316,0,True
2024-05-13,0.9809947399372745,0.9880598063612912,0.7201941189275418,1,True
2024-05-14,0.9880598063612912,0.9880598063612912,0.0,0,False
2024-05-15,0.9880598063612912,0.9880598063612912,0.0,0,False
2024-05-16,0.9880598063612912,0.9880598063612912,0.0,0,False
2024-05-17,0.9880598063612912,0.9880598063612912,0.0,0,False
2024-05-18,0.9880598063612912,0.9880598063612912,0.0,0,False
2024-05-19,0.9880598063612912,0.9880598063612912,0.0,0,False
2024-05-20,0.9880598063612912,0.9880598063612912,0.0,0,False
2024-05-21,0.9880598063612912,0.9888166585275282,0.07659983346799404,2,True
2024-05-22,0.9888166585275282,0.9888166585275282,0.0,0,False
2024-05-23,0.9888166585275282,0.9881666880118912,-0.06573215671800137,1,True
2024-05-24,0.9881666880118912,0.9863842050290553,-0.18038282452347287,2,True
2024-05-25,0.9863842050290553,0.9863842050290553,0.0,0,False
2024-05-26,0.9863842050290553,0.9863842050290553,0.0,0,False
2024-05-27,0.9863842050290553,0.9863842050290553,0.0,0,False
2024-05-28,0.9863842050290553,0.9863842050290553,0.0,0,False
2024-05-29,0.9863842050290553,0.9863842050290553,0.0,0,False
2024-05-30,0.9863842050290553,0.9863842050290553,0.0,0,False
2024-05-31,0.9863842050290553,0.9765323746184008,-0.9987822554766379,2,True
2024-06-01,0.9765323746184008,0.9765323746184008,0.0,0,False
2024-06-02,0.9765323746184008,0.9716555365059888,-0.4994036285092651,1,True
2024-06-03,0.9716555365059888,0.9638189471226285,-0.806519295051844,3,True
2024-06-04,0.9638189471226285,0.9612109228846317,-0.27059275456067233,2,True
2024-06-05,0.9612109228846317,0.9612109228846317,0.0,0,False
2024-06-06,0.9612109228846317,0.951639404375453,-0.9957771266741577,2,True
2024-06-07,0.951639404375453,0.951639404375453,0.0,0,False
2024-06-08,0.951639404375453,0.9918187872988413,4.222122658924299,5,True
2024-06-09,0.9918187872988413,0.9868667654332807,-0.49928695936958256,1,True
2024-06-10,0.9868667654332807,0.9868667654332807,0.0,0,False
2024-06-11,0.9868667654332807,0.981938097881702,-0.4994258317549738,1,True
2024-06-12,0.981938097881702,0.9770364215515744,-0.4991838427189865,1,True
2024-06-13,0.9770364215515744,0.9691986620213203,-0.8021972730358873,2,True
2024-06-14,0.9691986620213203,0.9643634083115276,-0.4988919092922095,1,True
2024-06-15,0.9643634083115276,0.977396863333089,1.3515086645999208,1,True
2024-06-16,0.977396863333089,0.977396863333089,0.0,0,False
2024-06-17,0.977396863333089,0.977396863333089,0.0,0,False
2024-06-18,0.977396863333089,0.9946323695486793,1.7634092007226654,5,True
2024-06-19,0.9946323695486793,0.9905598831924924,-0.4094463925434888,1,True
2024-06-20,0.9905598831924924,0.9905598831924924,0.0,0,False
2024-06-21,0.9905598831924924,0.9905598831924924,0.0,0,False
2024-06-22,0.9905598831924924,0.9856142182455109,-0.4992797538945437,1,True
2024-06-23,0.9856142182455109,0.992610576109385,0.7098474975663738,1,True
2024-06-24,0.992610576109385,0.993016362203914,0.04088069423151541,1,True
2024-06-25,0.993016362203914,1.0110635569144788,1.8174116155055708,1,True
2024-06-26,1.0110635569144788,1.0130282298078446,0.19431744719999866,0,True
2024-06-27,1.0130282298078446,1.0133870502694329,0.03542057871934734,1,True
2024-06-28,1.0133870502694329,1.0122773229677047,-0.10950675770261542,0,True
2024-06-29,1.0122773229677047,1.002205100782898,-0.9950062059355225,2,True
2024-06-30,1.002205100782898,1.002205100782898,0.0,0,False
2024-07-01,1.002205100782898,1.002205100782898,0.0,0,False
2024-07-02,1.002205100782898,1.002205100782898,0.0,0,False
2024-07-03,1.002205100782898,1.002205100782898,0.0,0,False
2024-07-04,1.002205100782898,1.002205100782898,0.0,0,False
2024-07-05,1.002205100782898,0.9923935804672455,-0.978993252777105,6,True
2024-07-06,0.9923935804672455,0.9924064455266142,0.0012963666454535172,2,True
2024-07-07,0.9924064455266142,0.992693407014002,0.028915721847777576,2,True
2024-07-08,0.992693407014002,0.992693407014002,0.0,0,False
2024-07-09,0.992693407014002,0.992693407014002,0.0,0,False
2024-07-10,0.992693407014002,0.992693407014002,0.0,0,False
2024-07-11,0.992693407014002,0.992693407014002,0.0,0,False
2024-07-12,0.992693407014002,0.992693407014002,0.0,0,False
2024-07-13,0.992693407014002,0.992693407014002,0.0,0,False
2024-07-14,0.992693407014002,0.9877374952458268,-0.4992389123528618,1,True
2024-07-15,0.9877374952458268,0.9877374952458268,0.0,0,False
2024-07-16,0.9877374952458268,0.9880966410581675,0.036360451442751796,1,True
2024-07-17,0.9880966410581675,0.9831665502487944,-0.4989482409426538,1,True
2024-07-18,0.9831665502487944,0.9831665502487944,0.0,0,False
2024-07-19,0.9831665502487944,0.9831665502487944,0.0,0,False
2024-07-20,0.9831665502487944,0.982529694541187,-0.06477597386183032,2,True
2024-07-21,0.982529694541187,0.982529694541187,0.0,0,False
2024-07-22,0.982529694541187,0.982529694541187,0.0,0,False
2024-07-23,0.982529694541187,0.978978287866193,-0.3614554038137596,1,True
2024-07-24,0.978978287866193,0.978978287866193,0.0,0,False
2024-07-25,0.978978287866193,0.978978287866193,0.0,0,False
2024-07-26,0.978978287866193,0.978978287866193,0.0,0,False
2024-07-27,0.978978287866193,0.978978287866193,0.0,0,False
2024-07-28,0.978978287866193,0.9740886718258978,-0.49946113217207433,1,True
2024-07-29,0.9740886718258978,0.9740886718258978,0.0,0,False
2024-07-30,0.9740886718258978,0.9740886718258978,0.0,0,False
2024-07-31,0.9740886718258978,0.9692285022481251,-0.4989452930052485,1,True
2024-08-01,0.9692285022481251,0.9692285022481251,0.0,0,False
2024-08-02,0.9692285022481251,0.9692285022481251,0.0,0,False
2024-08-03,0.9692285022481251,0.9643939588915904,-0.49880325901693334,1,True
2024-08-04,0.9643939588915904,0.9643939588915904,0.0,0,False
2024-08-05,0.9643939588915904,0.9609941454809794,-0.35253366938533537,8,True
2024-08-06,0.9609941454809794,0.9609941454809794,0.0,0,False
2024-08-07,0.9609941454809794,0.9609941454809794,0.0,0,False
2024-08-08,0.9609941454809794,0.9609941454809794,0.0,0,False
2024-08-09,0.9609941454809794,0.9609941454809794,0.0,0,False
2024-08-10,0.9609941454809794,0.9609941454809794,0.0,0,False
2024-08-11,0.9609941454809794,0.9609941454809794,0.0,0,False
2024-08-12,0.9609941454809794,0.970487735241542,0.9878925699189356,2,True
2024-08-13,0.970487735241542,0.966963932349086,-0.36309607679678724,0,True
2024-08-14,0.966963932349086,0.966963932349086,0.0,0,False
2024-08-15,0.966963932349086,0.966963932349086,0.0,0,False
2024-08-16,0.966963932349086,0.966963932349086,0.0,0,False
2024-08-17,0.966963932349086,0.966963932349086,0.0,0,False
2024-08-18,0.966963932349086,0.9650790365530058,-0.19492927636930446,1,True
2024-08-19,0.9650790365530058,0.9554397902370912,-0.9988038233990859,2,True
2024-08-20,0.9554397902370912,0.9547524337418396,-0.07194137215921215,1,True
2024-08-21,0.9547524337418396,0.9547524337418396,0.0,0,False
2024-08-22,0.9547524337418396,0.9547524337418396,0.0,0,False
2024-08-23,0.9547524337418396,0.9547524337418396,0.0,0,False
2024-08-24,0.9547524337418396,0.9547524337418396,0.0,0,False
2024-08-25,0.9547524337418396,0.9547524337418396,0.0,0,False
2024-08-26,0.9547524337418396,0.9547524337418396,0.0,0,False
2024-08-27,0.9547524337418396,0.9547524337418396,0.0,0,False
2024-08-28,0.9547524337418396,0.9547524337418396,0.0,0,False
2024-08-29,0.9547524337418396,0.9499917615582966,-0.4986289655094289,1,True
2024-08-30,0.9499917615582966,0.9499917615582966,0.0,0,False
2024-08-31,0.9499917615582966,0.9499917615582966,0.0,0,False
2024-09-01,0.9499917615582966,0.9452633771358447,-0.4977289923752348,1,True
2024-09-02,0.9452633771358447,0.9452633771358447,0.0,0,False
2024-09-03,0.9452633771358447,0.9452633771358447,0.0,0,False
2024-09-04,0.9452633771358447,0.9452633771358447,0.0,0,False
2024-09-05,0.9452633771358447,0.9381954530630435,-0.7477200792669114,2,True
2024-09-06,0.9381954530630435,0.9381954530630435,0.0,0,False
2024-09-07,0.9381954530630435,0.9381954530630435,0.0,0,False
2024-09-08,0.9381954530630435,0.9381954530630435,0.0,0,False
2024-09-09,0.9381954530630435,0.9381954530630435,0.0,0,False
2024-09-10,0.9381954530630435,0.9381954530630435,0.0,0,False
2024-09-11,0.9381954530630435,0.9381954530630435,0.0,0,False
2024-09-12,0.9381954530630435,0.9381954530630435,0.0,0,False
2024-09-13,0.9381954530630435,0.9466062037431543,0.8964817141941195,1,True
2024-09-14,0.9466062037431543,0.9466062037431543,0.0,0,False
2024-09-15,0.9466062037431543,0.9466062037431543,0.0,0,False
2024-09-16,0.9466062037431543,0.9466062037431543,0.0,0,False
2024-09-17,0.9466062037431543,0.9466062037431543,0.0,0,False
2024-09-18,0.9466062037431543,0.9432072637563456,-0.3590658896348131,2,True
2024-09-19,0.9432072637563456,0.942369320899359,-0.08883973747715324,1,True
2024-09-20,0.942369320899359,0.9446890045035398,0.2461544059994436,1,True
2024-09-21,0.9446890045035398,0.9334341221737161,-1.1913849188642134,4,True
2024-09-22,0.9334341221737161,0.9478296487948358,1.5422113118809477,1,True
2024-09-23,0.9478296487948358,0.9555222025664007,0.8115966599426372,1,True
2024-09-24,0.9555222025664007,0.9555222025664007,0.0,0,False
2024-09-25,0.9555222025664007,0.9555222025664007,0.0,0,False
2024-09-26,0.9555222025664007,0.9555222025664007,0.0,0,False
2024-09-27,0.9555222025664007,0.9555222025664007,0.0,0,False
2024-09-28,0.9555222025664007,0.9555222025664007,0.0,0,False
2024-09-29,0.9555222025664007,0.9555222025664007,0.0,0,False
2024-09-30,0.9555222025664007,0.9555222025664007,0.0,0,False
2024-10-01,0.9555222025664007,0.9555222025664007,0.0,0,False
2024-10-02,0.9555222025664007,0.9555222025664007,0.0,0,False
2024-10-03,0.9555222025664007,0.963177264842291,0.8011391316004923,1,True
2024-10-04,0.963177264842291,0.963177264842291,0.0,0,False
2024-10-05,0.963177264842291,0.963177264842291,0.0,0,False
2024-10-06,0.963177264842291,0.963177264842291,0.0,0,False
2024-10-07,0.963177264842291,0.963177264842291,0.0,0,False
2024-10-08,0.963177264842291,0.963177264842291,0.0,0,False
2024-10-09,0.963177264842291,0.963177264842291,0.0,0,False
2024-10-10,0.963177264842291,0.963177264842291,0.0,0,False
2024-10-11,0.963177264842291,0.9608350516241001,-0.24317571683696304,1,True
2024-10-12,0.9608350516241001,0.9608350516241001,0.0,0,False
2024-10-13,0.9608350516241001,0.9608350516241001,0.0,0,False
2024-10-14,0.9608350516241001,0.9608350516241001,0.0,0,False
2024-10-15,0.9608350516241001,0.9512624021091226,-0.9962843777188257,2,True
2024-10-16,0.9512624021091226,0.9512624021091226,0.0,0,False
2024-10-17,0.9512624021091226,0.9512624021091226,0.0,0,False
2024-10-18,0.9512624021091226,0.9680395345605541,1.7636702989872743,3,True
2024-10-19,0.9680395345605541,0.9647375864334934,-0.3410964128195082,1,True
2024-10-20,0.9647375864334934,0.9647375864334934,0.0,0,False
2024-10-21,0.9647375864334934,0.9716664051814287,0.7182076085114675,1,True
2024-10-22,0.9716664051814287,0.9955449712923958,2.4574860243839147,2,True
2024-10-23,0.9955449712923958,0.9856287254887361,-0.9960620654621555,2,True
2024-10-24,0.9856287254887361,0.98071040524221,-0.49900333861386814,1,True
2024-10-25,0.98071040524221,0.97955484829078,-0.11782856032251932,1,True
2024-10-26,0.97955484829078,0.9941333485133201,1.4882780936644968,2,True
2024-10-27,0.9941333485133201,0.9941333485133201,0.0,0,False
2024-10-28,0.9941333485133201,0.9941333485133201,0.0,0,False
2024-10-29,0.9941333485133201,0.9941333485133201,0.0,0,False
2024-10-30,0.9941333485133201,0.9941333485133201,0.0,0,False
2024-10-31,0.9941333485133201,0.9941333485133201,0.0,0,False
2024-11-01,0.9941333485133201,0.9941333485133201,0.0,0,False
2024-11-02,0.9941333485133201,0.9941333485133201,0.0,0,False
2024-11-03,0.9941333485133201,0.9941333485133201,0.0,0,False
2024-11-04,0.9941333485133201,0.9941333485133201,0.0,0,False
2024-11-05,0.9941333485133201,0.9941333485133201,0.0,0,False
2024-11-06,0.9941333485133201,0.9941333485133201,0.0,0,False
2024-11-07,0.9941333485133201,0.9941333485133201,0.0,0,False
2024-11-08,0.9941333485133201,0.9941333485133201,0.0,0,False
2024-11-09,0.9941333485133201,0.9917254736596279,-0.24220843786129098,1,True
2024-11-10,0.9917254736596279,0.9821310710314314,-0.9674454153921874,3,True
2024-11-11,0.9821310710314314,0.9717490469164545,-1.05709150450497,3,True
2024-11-12,0.9717490469164545,0.9717490469164545,0.0,0,False
2024-11-13,0.9717490469164545,0.9717490469164545,0.0,0,False
2024-11-14,0.9717490469164545,0.9736342947579544,0.19400562804585686,1,True
2024-11-15,0.9736342947579544,0.9736342947579544,0.0,0,False
2024-11-16,0.9736342947579544,0.969286543989119,-0.4465486468835045,1,True
2024-11-17,0.969286543989119,0.9878547426229163,1.9156562885294548,2,True
2024-11-18,0.9878547426229163,0.9878547426229163,0.0,0,False
2024-11-19,0.9878547426229163,0.9829220860723619,-0.4993301482217327,1,True
2024-11-20,0.9829220860723619,0.9829220860723619,0.0,0,False
2024-11-21,0.9829220860723619,0.9829220860723619,0.0,0,False
2024-11-22,0.9829220860723619,0.9829220860723619,0.0,0,False
2024-11-23,0.9829220860723619,0.9805085178369006,-0.24555031061572752,1,True
2024-11-24,0.9805085178369006,0.981911509124395,0.1430881284529173,8,True
2024-11-25,0.981911509124395,0.9735038867506264,-0.8562505170416013,1,True
2024-11-26,0.9735038867506264,0.9653207940501779,-0.8405814102871334,2,True
2024-11-27,0.9653207940501779,0.9659869125375152,0.06900488329300014,2,True
2024-11-28,0.9659869125375152,0.9659869125375152,0.0,0,False
2024-11-29,0.9659869125375152,0.9659869125375152,0.0,0,False
2024-11-30,0.9659869125375152,0.9620842499713668,-0.40400780957753346,1,True
2024-12-01,0.9620842499713668,0.9620842499713668,0.0,0,False
2024-12-02,0.9620842499713668,0.9663283097648242,0.4411318232871775,1,True
2024-12-03,0.9663283097648242,0.9658249285013701,-0.052092157330729805,1,True
2024-12-04,0.9658249285013701,0.9596110104053914,-0.6433793447038649,4,True
2024-12-05,0.9596110104053914,0.9650323053356622,0.5649471370676062,1,True
2024-12-06,0.9650323053356622,0.9660525156729283,0.10571773935705853,1,True
2024-12-07,0.9660525156729283,0.968397121342193,0.24269960806753144,1,True
2024-12-08,0.968397121342193,0.968397121342193,0.0,0,False
2024-12-09,0.968397121342193,0.9671913705941713,-0.12450994756681988,1,True
2024-12-10,0.9671913705941713,0.9573487566342599,-1.0176490670987692,5,True
2024-12-11,0.9573487566342599,0.9573487566342599,0.0,0,False
2024-12-12,0.9573487566342599,0.9573487566342599,0.0,0,False
2024-12-13,0.9573487566342599,0.9573487566342599,0.0,0,False
2024-12-14,0.9573487566342599,0.9573487566342599,0.0,0,False
2024-12-15,0.9573487566342599,0.9507373117716235,-0.6905994097574419,2,True
2024-12-16,0.9507373117716235,0.9482644817056148,-0.2600960365593208,0,True
2024-12-17,0.9482644817056148,0.9482644817056148,0.0,0,False
2024-12-18,0.9482644817056148,0.94353061170306,-0.49921410048389125,1,True
2024-12-19,0.94353061170306,0.9451332353747053,0.16985391377526415,1,True
2024-12-20,0.9451332353747053,0.9493650736314041,0.4477504438854085,2,True
2024-12-21,0.9493650736314041,0.9493650736314041,0.0,0,False
2024-12-22,0.9493650736314041,0.9493650736314041,0.0,0,False
2024-12-23,0.9493650736314041,0.9493650736314041,0.0,0,False
2024-12-24,0.9493650736314041,0.9493650736314041,0.0,0,False
2024-12-25,0.9493650736314041,0.9586332638672898,0.9762514435499581,1,True
2024-12-26,0.9586332638672898,0.9570853474656302,-0.1614711756834919,1,True
2024-12-27,0.9570853474656302,0.9588879244905583,0.1883402592779415,0,True
2024-12-28,0.9588879244905583,0.9588879244905583,0.0,0,False
2024-12-29,0.9588879244905583,0.9588879244905583,0.0,0,False
2024-12-30,0.9588879244905583,0.9579150183518403,-0.1014619241591519,1,True
2024-12-31,0.9579150183518403,0.9579150183518403,0.0,0,False
