day,start_equity,end_equity,return_pct,entries,active
2024-01-02,1.012400299899122,1.0062690123227749,-0.6056189016299229,1,True
2024-01-03,1.0062690123227749,0.9973815096825619,-0.8832133884057458,11,True
2024-01-04,0.9973815096825619,1.0225146232546858,2.5199097164056106,5,True
2024-01-05,1.0225146232546858,1.0082425560179131,-1.395781235024729,8,True
2024-01-06,1.0082425560179131,1.0017510564466248,-0.6438430447656129,7,True
2024-01-07,1.0017510564466248,1.0061820134596213,0.44232117196001397,9,True
2024-01-08,1.0061820134596213,0.9735469331173104,-3.2434569397737034,13,True
2024-01-09,0.9735469331173104,0.9711788562953235,-0.2432421839596688,5,True
2024-01-10,0.9711788562953235,0.9527904105268198,-1.8934149615497886,7,True
2024-01-11,0.9527904105268198,0.9640434064541529,1.1810567993763676,6,True
2024-01-12,0.9640434064541529,0.9522631626277005,-1.221961972623331,6,True
2024-01-13,0.9522631626277005,0.9525011538506807,0.024992169425464006,8,True
2024-01-14,0.9525011538506807,0.9517568503468832,-0.07814200547563432,1,True
2024-01-15,0.9517568503468832,0.9583172515255912,0.6892938229251522,5,True
2024-01-16,0.9583172515255912,0.955850434484954,-0.25741131516835436,1,True
2024-01-17,0.955850434484954,0.9633017281288657,0.7795459807398375,0,True
2024-01-18,0.9633017281288657,0.9572317315435569,-0.6301241249820344,2,True
2024-01-19,0.9572317315435569,0.9489453516789701,-0.8656607999428578,1,True
2024-01-20,0.9489453516789701,0.9844472305245613,3.7411931870236392,11,True
2024-01-21,0.9844472305245613,0.9810809702495248,-0.3419442069274581,3,True
2024-01-22,0.9810809702495248,0.9559637029982921,-2.560162515928166,4,True
2024-01-23,0.9559637029982921,0.9287996568743606,-2.8415353050261216,11,True
2024-01-24,0.9287996568743606,0.9280265758351287,-0.08323442343136644,1,True
2024-01-25,0.9280265758351287,0.9138915028935856,-1.5231323444399258,4,True
2024-01-26,0.9138915028935856,0.9095899655972117,-0.470683585825471,0,True
2024-01-27,0.9095899655972117,0.9095899655972117,0.0,0,False
2024-01-28,0.9095899655972117,0.9051302881509222,-0.49029536549046737,2,True
2024-01-29,0.9051302881509222,0.9050332502191518,-0.010720879970627095,0,True
2024-01-30,0.9050332502191518,0.9050332502191518,0.0,0,False
2024-01-31,0.9050332502191518,0.9005245400809715,-0.4981817117866716,1,True
2024-02-01,0.9005245400809715,0.9005245400809715,0.0,0,False
2024-02-02,0.9005245400809715,0.9001480390636983,-0.04180907909953069,3,True
2024-02-03,0.9001480390636983,0.9045317372099874,0.4869974666443566,1,True
2024-02-04,0.9045317372099874,0.900664002935908,-0.42759519815295244,1,True
2024-02-05,0.900664002935908,0.900664002935908,0.0,0,False
2024-02-06,0.900664002935908,0.8938171086641756,-0.7602051652351394,2,True
2024-02-07,0.8938171086641756,0.8862370267400581,-0.8480573766870614,5,True
2024-02-08,0.8862370267400581,0.9083745581922654,2.497924458611056,1,True
2024-02-09,0.9083745581922654,0.9083745581922654,0.0,0,False
2024-02-10,0.9083745581922654,0.9024826603790762,-0.6486198628145812,2,True
2024-02-11,0.9024826603790762,0.8999728883527918,-0.27809642627707465,0,True
2024-02-12,0.8999728883527918,0.9060650429233925,0.6769264551681253,3,True
2024-02-13,0.9060650429233925,0.9061607260318116,0.01056029135726444,0,True
2024-02-14,0.9061607260318116,0.9080595180694342,0.20954252188103428,2,True
2024-02-15,0.9080595180694342,0.9150875762282149,0.7739644834870107,7,True
2024-02-16,0.9150875762282149,0.9201214140685623,0.5500935616562286,7,True
2024-02-17,0.9201214140685623,0.9101939514085218,-1.078929639963877,6,True
2024-02-18,0.9101939514085218,0.9090841131603293,-0.12193425878901376,4,True
2024-02-19,0.9090841131603293,0.8997046640660855,-1.0317471132167522,6,True
2024-02-20,0.8997046640660855,0.8805695647817805,-2.126820060910506,12,True
2024-02-21,0.8805695647817805,0.8685366602561707,-1.3664910765558536,9,True
2024-02-22,0.8685366602561707,0.8999739518684658,3.6195699100395995,5,True
2024-02-23,0.8999739518684658,0.8787334143936258,-2.360128027121433,7,True
2024-02-24,0.8787334143936258,0.8881549590568071,1.0721732562864572,9,True
2024-02-25,0.8881549590568071,0.8838697754334421,-0.4824815286642803,7,True
2024-02-26,0.8838697754334421,0.8877664081639053,0.4408605021652967,8,True
2024-02-27,0.8877664081639053,0.8730792854774588,-1.6543904512925423,7,True
2024-02-28,0.8730792854774588,0.8685611183406192,-0.517497919374954,7,True
2024-02-29,0.8685611183406192,0.8494043455964893,-2.205575674482052,17,True
2024-03-01,0.8494043455964893,0.8587588965604465,1.101307170425181,9,True
2024-03-02,0.8587588965604465,0.8511574693665892,-0.8851643021461464,10,True
2024-03-03,0.8511574693665892,0.873053369192224,2.5724851879557864,13,True
2024-03-04,0.873053369192224,0.8828305527700919,1.1198838379049114,4,True
2024-03-05,0.8828305527700919,0.8963348936239949,1.5296639668314516,15,True
2024-03-06,0.8963348936239949,0.8704691553571692,-2.885722563164672,21,True
2024-03-07,0.8704691553571692,0.8753195629646164,0.5572176311585686,9,True
2024-03-08,0.8753195629646164,0.8759422458894073,0.07113778226113254,6,True
2024-03-09,0.8759422458894073,0.8791004478035547,0.36054910343326085,8,True
2024-03-10,0.8791004478035547,0.8618142980251507,-1.9663452363826717,9,True
2024-03-11,0.8618142980251507,0.8656084338979025,0.4402498173267766,10,True
2024-03-12,0.8656084338979025,0.8913110927947535,2.9693170595750606,10,True
2024-03-13,0.8913110927947535,0.8989832703935527,0.8607743873962903,9,True
2024-03-14,0.8989832703935527,0.9032761380676733,0.4775247566332519,6,True
2024-03-15,0.9032761380676733,0.8731679343249953,-3.3332225300545137,16,True
2024-03-16,0.8731679343249953,0.8752766975075278,0.24150717171751435,4,True
2024-03-17,0.8752766975075278,0.851041152347794,-2.7689009919660723,9,True
2024-03-18,0.851041152347794,0.8775652099308279,3.116659812496869,5,True
2024-03-19,0.8775652099308279,0.847016408891675,-3.4810861567268425,18,True
2024-03-20,0.847016408891675,0.825148809331076,-2.581720888880157,7,True
2024-03-21,0.825148809331076,0.8356725141300281,1.2753705367984924,6,True
2024-03-22,0.8356725141300281,0.8360464452037863,0.044746125717387564,10,True
2024-03-23,0.8360464452037863,0.8516315357712002,1.864141718061485,6,True
2024-03-24,0.8516315357712002,0.8453469034604648,-0.737952042257839,6,True
2024-03-25,0.8453469034604648,0.8681199158158233,2.6939250930163805,4,True
2024-03-26,0.8681199158158233,0.8857933696304555,2.0358309367921157,10,True
2024-03-27,0.8857933696304555,0.8763747319682446,-1.0632996345570245,10,True
2024-03-28,0.8763747319682446,0.8656312059515323,-1.22590549736451,5,True
2024-03-29,0.8656312059515323,0.8440816297748305,-2.4894638765955546,7,True
2024-03-30,0.8440816297748305,0.8370436502682798,-0.8338031842285432,3,True
2024-03-31,0.8370436502682798,0.8340129600243366,-0.3620707525792466,1,True
2024-04-01,0.8340129600243366,0.8272233070756854,-0.8140944174840015,6,True
2024-04-02,0.8272233070756854,0.8199925055631426,-0.8741051479925432,9,True
2024-04-03,0.8199925055631426,0.8069750433586124,-1.5875098999338144,5,True
2024-04-04,0.8069750433586124,0.8032770209176943,-0.4582573490162778,3,True
2024-04-05,0.8032770209176943,0.7800484159737523,-2.8917302921730226,5,True
2024-04-06,0.7800484159737523,0.7686640697286938,-1.4594409798072805,3,True
2024-04-07,0.7686640697286938,0.7820016809234153,1.7351677696381795,4,True
2024-04-08,0.7820016809234153,0.7736704392820636,-1.0653738789300093,2,True
2024-04-09,0.7736704392820636,0.7621588352523888,-1.4879208827413781,3,True
2024-04-10,0.7621588352523888,0.7531763359784874,-1.178560013796448,7,True
2024-04-11,0.7531763359784874,0.7563492239034539,0.42126760672114294,1,True
2024-04-12,0.7563492239034539,0.7531470441224042,-0.4233731826316367,10,True
2024-04-13,0.7531470441224042,0.7419248979601654,-1.4900338851246864,13,True
2024-04-14,0.7419248979601654,0.7057879139615397,-4.8707064688056745,20,True
2024-04-15,0.7057879139615397,0.724647621564156,2.672149413378011,3,True
2024-04-16,0.724647621564156,0.7172921929280911,-1.0150352277687902,1,True
2024-04-17,0.7172921929280911,0.7180992561244695,0.11251526286433222,2,True
2024-04-18,0.7180992561244695,0.7242384223866514,0.8549189001134216,1,True
2024-04-19,0.7242384223866514,0.7288405112653348,0.6354383772567251,10,True
2024-04-20,0.7288405112653348,0.7288405112653348,0.0,0,False
2024-04-21,0.7288405112653348,0.7288405112653348,0.0,0,False
2024-04-22,0.7288405112653348,0.7288405112653348,0.0,0,False
2024-04-23,0.7288405112653348,0.7264080499162181,-0.333743982602408,4,True
2024-04-24,0.7264080499162181,0.7203103716425342,-0.8394287858438765,6,True
2024-04-25,0.7203103716425342,0.7076445200857726,-1.758388058175464,4,True
2024-04-26,0.7076445200857726,0.7102432094945812,0.36723090973609374,2,True
2024-04-27,0.7102432094945812,0.7084988320960048,-0.24560282664549682,6,True
2024-04-28,0.7084988320960048,0.7130560644664584,0.6432236955100645,3,True
2024-04-29,0.7130560644664584,0.7180769628689357,0.7041379567024997,3,True
2024-04-30,0.7180769628689357,0.7109515938570823,-0.9922848636426673,2,True
2024-05-01,0.7109515938570823,0.7018798281828436,-1.2760032824488454,6,True
2024-05-02,0.7018798281828436,0.7010409537297992,-0.1195182450557275,4,True
2024-05-03,0.7010409537297992,0.7017619705731951,0.10284946115626248,3,True
2024-05-04,0.7017619705731951,0.70275520135838,0.14153385718145284,0,True
2024-05-05,0.70275520135838,0.6992565156171611,-0.49785269955401334,1,True
2024-05-06,0.6992565156171611,0.6957696172552116,-0.49865797229962094,1,True
2024-05-07,0.6957696172552116,0.6946825834321847,-0.156234735761418,4,True
2024-05-08,0.6946825834321847,0.6999067829201457,0.7520268411149944,3,True
2024-05-09,0.6999067829201457,0.6888954404013953,-1.5732584377606718,12,True
2024-05-10,0.6888954404013953,0.6840301534470089,-0.7062446155183588,4,True
2024-05-11,0.6840301534470089,0.671911610676246,-1.7716386784550786,4,True
2024-05-12,0.671911610676246,0.668047341526239,-0.575115698048112,0,True
2024-05-13,0.668047341526239,0.6732494624447465,0.7787054292623274,5,True
2024-05-14,0.6732494624447465,0.6612164040108589,-1.7873105149155855,4,True
2024-05-15,0.6612164040108589,0.6499036483357975,-1.7109006380421898,3,True
2024-05-16,0.6499036483357975,0.634493291343978,-2.3711756398476336,4,True
2024-05-17,0.634493291343978,0.6334995108498575,-0.15662584737744512,1,True
2024-05-18,0.6334995108498575,0.638503083698789,0.7898305781198101,2,True
2024-05-19,0.638503083698789,0.6376936335256934,-0.12677310317854573,0,True
2024-05-20,0.6376936335256934,0.6400534494814442,0.3700548087180566,2,True
2024-05-21,0.6400534494814442,0.6386043420763496,-0.2264041239475434,4,True
2024-05-22,0.6386043420763496,0.6431120524034848,0.7058690381714028,1,True
2024-05-23,0.6431120524034848,0.6448587142525272,0.27159525972411114,7,True
2024-05-24,0.6448587142525272,0.6426222209725599,-0.34681911409999433,5,True
2024-05-25,0.6426222209725599,0.642707037392311,0.013198488471610759,3,True
2024-05-26,0.642707037392311,0.6535553118824622,1.6879034861927877,3,True
2024-05-27,0.6535553118824622,0.6465151818424972,-1.0772049300137976,5,True
2024-05-28,0.6465151818424972,0.647820289574887,0.2018680719407584,2,True
2024-05-29,0.647820289574887,0.641692053042082,-0.9459778632167404,4,True
2024-05-30,0.641692053042082,0.6218847733321835,-3.0867266652279235,6,True
2024-05-31,0.6218847733321835,0.6092870701640186,-2.025729477289473,3,True
2024-06-01,0.6092870701640186,0.6029608459674565,-1.038299433280132,3,True
2024-06-02,0.6029608459674565,0.601911255157837,-0.17407279703798295,5,True
2024-06-03,0.601911255157837,0.5907481561562543,-1.8546087825946134,10,True
2024-06-04,0.5907481561562543,0.5845537073150237,-1.0485769234618192,10,True
2024-06-05,0.5845537073150237,0.5858559931110819,0.22278291622508384,0,True
2024-06-06,0.5858559931110819,0.5811657315348208,-0.8005826741405153,3,True
2024-06-07,0.5811657315348208,0.5804208722482905,-0.12816641555294384,0,True
2024-06-08,0.5804208722482905,0.5861407256040169,0.9854665173514743,12,True
2024-06-09,0.5861407256040169,0.5853903128094694,-0.12802604592508926,3,True
2024-06-10,0.5853903128094694,0.5853903128094694,0.0,0,False
2024-06-11,0.5853903128094694,0.5742150203899138,-1.9090326872547525,4,True
2024-06-12,0.5742150203899138,0.5701448066645468,-0.7088309397763837,4,True
2024-06-13,0.5701448066645468,0.5675191182669089,-0.4605300911181942,4,True
2024-06-14,0.5675191182669089,0.5538189221665912,-2.414050145509705,6,True
2024-06-15,0.5538189221665912,0.5595337779496231,1.0318996975897443,5,True
2024-06-16,0.5595337779496231,0.5604547566127938,0.16459750947395158,0,True
2024-06-17,0.5604547566127938,0.5493051443530315,-1.989386677195304,4,True
2024-06-18,0.5493051443530315,0.551020403798572,0.3122598546861921,6,True
2024-06-19,0.551020403798572,0.5453726142547859,-1.0249692216208084,3,True
2024-06-20,0.5453726142547859,0.5494733427450743,0.7519131659905254,1,True
2024-06-21,0.5494733427450743,0.5467370275072214,-0.49798871482695795,1,True
2024-06-22,0.5467370275072214,0.541601522242574,-0.9393007984226265,3,True
2024-06-23,0.541601522242574,0.5434819959805671,0.347206139710754,2,True
2024-06-24,0.5434819959805671,0.5485603855771954,0.9344172638995563,2,True
2024-06-25,0.5485603855771954,0.5546971435132887,1.1187023520913053,1,True
2024-06-26,0.5546971435132887,0.5561204201450931,0.25658625584219497,0,True
2024-06-27,0.5561204201450931,0.5535531862212677,-0.46163273831153484,2,True
2024-06-28,0.5535531862212677,0.5487835283652972,-0.8616440072416021,2,True
2024-06-29,0.5487835283652972,0.5328925184249433,-2.8956791009543625,7,True
2024-06-30,0.5328925184249433,0.5348859796505065,0.37408316998992497,0,True
2024-07-01,0.5348859796505065,0.5295776073974301,-0.9924306216709811,2,True
2024-07-02,0.5295776073974301,0.5295776073974301,0.0,0,False
2024-07-03,0.5295776073974301,0.5269450297682624,-0.4971089397275086,1,True
2024-07-04,0.5269450297682624,0.5154623060363884,-2.1791122571027555,5,True
2024-07-05,0.5154623060363884,0.4848929737634223,-5.930469001317851,19,True
2024-07-06,0.4848929737634223,0.4924294637077115,1.554258434762601,3,True
2024-07-07,0.4924294637077115,0.4945703876275893,0.43476763225291926,3,True
2024-07-08,0.4945703876275893,0.4960509805700111,0.29936950926723327,2,True
2024-07-09,0.4960509805700111,0.5002547927725696,0.8474556783917286,2,True
2024-07-10,0.5002547927725696,0.5034236904440432,0.6334567338996733,1,True
2024-07-11,0.5034236904440432,0.49700358269899797,-1.275289158399051,3,True
2024-07-12,0.49700358269899797,0.4970392445513264,0.007175371278966836,0,True
2024-07-13,0.4970392445513264,0.49387479437364673,-0.6366600248107646,2,True
2024-07-14,0.49387479437364673,0.4914541596605875,-0.4901312520168566,3,True
2024-07-15,0.4914541596605875,0.4914541596605875,0.0,0,False
2024-07-16,0.4914541596605875,0.49070938693675403,-0.15154469835961804,3,True
2024-07-17,0.49070938693675403,0.49248317401614217,0.36147404688158247,2,True
2024-07-18,0.49248317401614217,0.49248317401614217,0.0,0,False
2024-07-19,0.49248317401614217,0.49149171647368983,-0.20131805404987047,2,True
2024-07-20,0.49149171647368983,0.493584902490644,0.4258842920023431,3,True
2024-07-21,0.493584902490644,0.4976642608743438,0.8264755188246653,1,True
2024-07-22,0.4976642608743438,0.49663524609534054,-0.20676887208966876,1,True
2024-07-23,0.49663524609534054,0.4940277388341336,-0.5250346772017855,3,True
2024-07-24,0.4940277388341336,0.4903919405652077,-0.7359502277151653,1,True
2024-07-25,0.4903919405652077,0.4865696584465918,-0.7794341224716006,3,True
2024-07-26,0.4865696584465918,0.4798106738504621,-1.389109345146633,1,True
2024-07-27,0.4798106738504621,0.4848418393221162,1.0485730613867261,2,True
2024-07-28,0.4848418393221162,0.47433017425587737,-2.16806063621402,3,True
2024-07-29,0.47433017425587737,0.47433017425587737,0.0,0,False
2024-07-30,0.47433017425587737,0.4717208821884227,-0.5501003750284506,2,True
2024-07-31,0.4717208821884227,0.46245783600527196,-1.9636710039583782,8,True
2024-08-01,0.46245783600527196,0.459560097550808,-0.6265951680037962,1,True
2024-08-02,0.459560097550808,0.45045047853226305,-1.982247603108711,4,True
2024-08-03,0.45045047853226305,0.4502943747245666,-0.03465504314815737,9,True
2024-08-04,0.4502943747245666,0.4328008033774191,-3.8849189172855847,7,True
2024-08-05,0.4328008033774191,0.42638495027708834,-1.482403232679741,21,True
2024-08-06,0.42638495027708834,0.4269223544177973,0.1260373144877036,0,True
2024-08-07,0.4269223544177973,0.42662892505400335,-0.06873131864788551,1,True
2024-08-08,0.42662892505400335,0.42479558173334114,-0.4297278531759541,0,True
2024-08-09,0.42479558173334114,0.42479558173334114,0.0,0,False
2024-08-10,0.42479558173334114,0.42479558173334114,0.0,0,False
2024-08-11,0.42479558173334114,0.42267378951620127,-0.4994854721610098,1,True
2024-08-12,0.42267378951620127,0.42800757553487284,1.2619154891948092,3,True
2024-08-13,0.42800757553487284,0.42465996400364103,-0.782138383192954,0,True
2024-08-14,0.42465996400364103,0.42465996400364103,0.0,0,False
2024-08-15,0.42465996400364103,0.42465996400364103,0.0,0,False
2024-08-16,0.42465996400364103,0.42465996400364103,0.0,0,False
2024-08-17,0.42465996400364103,0.4280221609461121,0.7917386208892152,1,True
2024-08-18,0.4280221609461121,0.42997508885069263,0.45626794188966535,4,True
2024-08-19,0.42997508885069263,0.4254199080841667,-1.0594057387607658,7,True
2024-08-20,0.4254199080841667,0.4232351186058328,-0.5135607048040725,4,True
2024-08-21,0.4232351186058328,0.42267176991967154,-0.1331053736790433,1,True
2024-08-22,0.42267176991967154,0.42445370549184747,0.42158849939626375,2,True
2024-08-23,0.42445370549184747,0.4247528550666315,0.0704787285193742,0,True
2024-08-24,0.4247528550666315,0.4239828146052371,-0.18129141504501511,3,True
2024-08-25,0.4239828146052371,0.4253683951745662,0.3268011158940931,2,True
2024-08-26,0.4253683951745662,0.42135303247842143,-0.9439729753539683,2,True
2024-08-27,0.42135303247842143,0.4212072650743082,-0.03459507654561822,1,True
2024-08-28,0.4212072650743082,0.42185572077120176,0.1539516885538772,4,True
2024-08-29,0.42185572077120176,0.4227683603598655,0.21633927044899526,3,True
2024-08-30,0.4227683603598655,0.42517448677288255,0.5691358764333687,0,True
2024-08-31,0.42517448677288255,0.42517448677288255,0.0,0,False
2024-09-01,0.42517448677288255,0.4230582700840313,-0.4977289923752348,1,True
2024-09-02,0.4230582700840313,0.42387898237896005,0.19399509546658145,1,True
2024-09-03,0.42387898237896005,0.4232796373344692,-0.1413953202225482,1,True
2024-09-04,0.4232796373344692,0.4230280008528622,-0.05944922916483186,0,True
2024-09-05,0.4230280008528622,0.42002774043986363,-0.709234473119924,2,True
2024-09-06,0.42002774043986363,0.4201213307624097,0.02228193843769599,1,True
2024-09-07,0.4201213307624097,0.4182326988567554,-0.44954439762125986,0,True
2024-09-08,0.4182326988567554,0.4182326988567554,0.0,0,False
2024-09-09,0.4182326988567554,0.4182326988567554,0.0,0,False
2024-09-10,0.4182326988567554,0.4182326988567554,0.0,0,False
2024-09-11,0.4182326988567554,0.4140775029872521,-0.9935129129935549,2,True
2024-09-12,0.4140775029872521,0.4140775029872521,0.0,0,False
2024-09-13,0.4140775029872521,0.415648162083904,0.3793152454119708,2,True
2024-09-14,0.415648162083904,0.415648162083904,0.0,0,False
2024-09-15,0.415648162083904,0.41811458436221594,0.5933918403358884,3,True
2024-09-16,0.41811458436221594,0.41277179089662286,-1.277829969443156,1,True
2024-09-17,0.41277179089662286,0.41071555028462386,-0.49815434517277435,1,True
2024-09-18,0.41071555028462386,0.4045641942350822,-1.4977168615307512,3,True
2024-09-19,0.4045641942350822,0.4052962866433788,0.18095828022566263,2,True
2024-09-20,0.4052962866433788,0.407552724308987,0.5567378088498609,3,True
2024-09-21,0.407552724308987,0.40643905918329887,-0.2732567001180852,7,True
2024-09-22,0.40643905918329887,0.40879506526519094,0.5796701937619497,3,True
2024-09-23,0.40879506526519094,0.40900760897459715,0.05199272874498728,1,True
2024-09-24,0.40900760897459715,0.40900760897459715,0.0,0,False
2024-09-25,0.40900760897459715,0.40900760897459715,0.0,0,False
2024-09-26,0.40900760897459715,0.40900760897459715,0.0,0,False
2024-09-27,0.40900760897459715,0.40696790517515297,-0.49869580777673894,1,True
2024-09-28,0.40696790517515297,0.40696790517515297,0.0,0,False
2024-09-29,0.40696790517515297,0.40696790517515297,0.0,0,False
2024-09-30,0.40696790517515297,0.40392571185302933,-0.7475265944655529,2,True
2024-10-01,0.40392571185302933,0.40550529743999447,0.391058439859826,0,True
2024-10-02,0.40550529743999447,0.39219544207893337,-3.28228889858847,14,True
2024-10-03,0.39219544207893337,0.39363313592514926,0.36657586804043074,3,True
2024-10-04,0.39363313592514926,0.3939785442021888,0.08774878065784808,3,True
2024-10-05,0.3939785442021888,0.3920338463671861,-0.49360501063344664,0,True
2024-10-06,0.3920338463671861,0.3920338463671861,0.0,0,False
2024-10-07,0.3920338463671861,0.3920338463671861,0.0,0,False
2024-10-08,0.3920338463671861,0.38812758887668414,-0.9964082251314732,2,True
2024-10-09,0.38812758887668414,0.38812758887668414,0.0,0,False
2024-10-10,0.38812758887668414,0.38812758887668414,0.0,0,False
2024-10-11,0.38812758887668414,0.38751462383100793,-0.15792874901014997,1,True
2024-10-12,0.38751462383100793,0.38663014915914545,-0.2282429145817666,1,True
2024-10-13,0.38663014915914545,0.3859701046400615,-0.1707172915820121,0,True
2024-10-14,0.3859701046400615,0.3859701046400615,0.0,0,False
2024-10-15,0.3859701046400615,0.3802809815062112,-1.473980255324625,4,True
2024-10-16,0.3802809815062112,0.37486923056101484,-1.4230927152237727,5,True
2024-10-17,0.37486923056101484,0.37291161650146576,-0.5222125210488482,2,True
2024-10-18,0.37291161650146576,0.3845022488450427,3.10814461944533,4,True
2024-10-19,0.3845022488450427,0.3810207409562165,-0.9054583944005046,3,True
2024-10-20,0.3810207409562165,0.383352665790705,0.6120204450382971,3,True
2024-10-21,0.383352665790705,0.3828350630601349,-0.13501998988385555,7,True
2024-10-22,0.3828350630601349,0.3825983776760574,-0.06182437475437119,3,True
2024-10-23,0.3825983776760574,0.3768615478875304,-1.4994391307598165,4,True
2024-10-24,0.3768615478875304,0.37135812484421404,-1.4603302125582696,3,True
2024-10-25,0.37135812484421404,0.36805099602053054,-0.890549742265867,3,True
2024-10-26,0.36805099602053054,0.3595476004106739,-2.3103851645010387,10,True
2024-10-27,0.3595476004106739,0.3648378597283225,1.4713654914136676,1,True
2024-10-28,0.3648378597283225,0.36301942677728527,-0.49842221758217287,1,True
2024-10-29,0.36301942677728527,0.36773154955543674,1.2980359811549214,2,True
2024-10-30,0.36773154955543674,0.36888410863409077,0.31342403991372336,0,True
2024-10-31,0.36888410863409077,0.36744986895096254,-0.3888049524385706,1,True
2024-11-01,0.36744986895096254,0.3663416914680302,-0.30158603297263387,3,True
2024-11-02,0.3663416914680302,0.3645103264204761,-0.49990625970397495,1,True
2024-11-03,0.3645103264204761,0.3596105188375898,-1.3442163987513966,3,True
2024-11-04,0.3596105188375898,0.36340004122482394,1.0537851894553585,4,True
2024-11-05,0.36340004122482394,0.3587697662096953,-1.2741536846067714,1,True
2024-11-06,0.3587697662096953,0.3621589531453174,0.9446690481831554,3,True
2024-11-07,0.3621589531453174,0.3601318324933563,-0.5597323038283974,4,True
2024-11-08,0.3601318324933563,0.35657063780918524,-0.9888586242197128,2,True
2024-11-09,0.35657063780918524,0.3550135948743471,-0.4366716632656087,2,True
2024-11-10,0.3550135948743471,0.35881411386921286,1.070527734638138,9,True
2024-11-11,0.35881411386921286,0.3560009874753499,-0.7840066165536452,9,True
2024-11-12,0.3560009874753499,0.3467971060122573,-2.585352790272788,9,True
2024-11-13,0.3467971060122573,0.3617607514967893,4.314812674360424,8,True
2024-11-14,0.3617607514967893,0.36265881013635926,0.24824656512743015,8,True
2024-11-15,0.36265881013635926,0.36766398868584377,1.380134277615519,7,True
2024-11-16,0.36766398868584377,0.3699049019278394,0.6095003348044692,7,True
2024-11-17,0.3699049019278394,0.36944601304071223,-0.12405590862288873,10,True
2024-11-18,0.36944601304071223,0.3799981475661858,2.856204737093937,7,True
2024-11-19,0.3799981475661858,0.3711528980051361,-2.3277086000818015,7,True
2024-11-20,0.3711528980051361,0.3666276023661865,-1.2192537531761305,2,True
2024-11-21,0.3666276023661865,0.3736929912418358,1.9271295532714339,6,True
2024-11-22,0.3736929912418358,0.3838463047590966,2.7170200552918855,7,True
2024-11-23,0.3838463047590966,0.39650025199779254,3.2966182250048215,2,True
2024-11-24,0.39650025199779254,0.39734985083120616,0.2142744750180725,17,True
2024-11-25,0.39734985083120616,0.40381463934873657,1.6269764551331445,6,True
2024-11-26,0.40381463934873657,0.3953927947172672,-2.0855718963165737,12,True
2024-11-27,0.3953927947172672,0.40041420101233455,1.2699792110925978,6,True
2024-11-28,0.40041420101233455,0.40100876067158864,0.14848615702214296,4,True
2024-11-29,0.40100876067158864,0.4083676649058221,1.8350981215246254,6,True
2024-11-30,0.4083676649058221,0.4122855778713153,0.9594082250358182,4,True
2024-12-01,0.4122855778713153,0.4104812496864619,-0.4376403836800269,5,True
2024-12-02,0.4104812496864619,0.4125526326970043,0.5046230521186024,11,True
2024-12-03,0.4125526326970043,0.4234144089917624,2.632821956255804,15,True
2024-12-04,0.4234144089917624,0.4347226465097917,2.6707257187955857,8,True
2024-12-05,0.4347226465097917,0.4352404336011551,0.11910745748364704,12,True
2024-12-06,0.4352404336011551,0.4317257048806287,-0.8075372711688789,8,True
2024-12-07,0.4317257048806287,0.43342851519263836,0.39441948736420596,4,True
2024-12-08,0.43342851519263836,0.4318325734806313,-0.36821336300352225,0,True
2024-12-09,0.4318325734806313,0.42903840113416336,-0.6470499258419804,3,True
2024-12-10,0.42903840113416336,0.39975146531313027,-6.826180533866677,22,True
2024-12-11,0.39975146531313027,0.41194928377787055,3.0513505323077617,5,True
2024-12-12,0.41194928377787055,0.4090131655291818,-0.7127377966924531,2,True
2024-12-13,0.4090131655291818,0.40879457471477076,-0.053443466576008625,1,True
2024-12-14,0.40879457471477076,0.4101067753175131,0.32099266573142327,0,True
2024-12-15,0.4101067753175131,0.4012099071129745,-2.1694028823714184,5,True
2024-12-16,0.4012099071129745,0.3999780111224555,-0.3070452570285376,0,True
2024-12-17,0.3999780111224555,0.3999780111224555,0.0,0,False
2024-12-18,0.3999780111224555,0.3940277859443174,-1.4876380732630867,4,True
2024-12-19,0.3940277859443174,0.39078067064045,-0.824082823521044,13,True
2024-12-20,0.39078067064045,0.37026135669026766,-5.250851818375068,23,True
2024-12-21,0.37026135669026766,0.37323539344783596,0.8032263437245835,3,True
2024-12-22,0.37323539344783596,0.37507901713373276,0.4939573572768641,2,True
2024-12-23,0.37507901713373276,0.38329384552194135,2.1901594098716615,3,True
2024-12-24,0.38329384552194135,0.38329384552194135,0.0,0,False
2024-12-25,0.38329384552194135,0.38967105048806017,1.6637900766277136,4,True
2024-12-26,0.38967105048806017,0.3875244425470702,-0.5508769353795628,3,True
2024-12-27,0.3875244425470702,0.38755425104723096,0.0076920309761252526,0,True
2024-12-28,0.38755425104723096,0.38142615864653223,-1.5812218248515308,4,True
2024-12-29,0.38142615864653223,0.37925244479797643,-0.5698911307680299,5,True
2024-12-30,0.37925244479797643,0.38092481259024996,0.4409642746441289,6,True
2024-12-31,0.38092481259024996,0.37675083124821235,-1.0957493983274502,3,True
