day,start_equity,end_equity,return_pct,entries,active
2024-01-02,1.0,1.0,0.0,0,False
2024-01-03,1.0,0.9927723563112387,-0.7227643688761276,6,True
2024-01-04,0.9927723563112387,0.9968664596171334,0.412390945403307,2,True
2024-01-05,0.9968664596171334,0.9948472889226079,-0.2025517736147897,1,True
2024-01-06,0.9948472889226079,0.9951934961451258,0.03480003678684174,2,True
2024-01-07,0.9951934961451258,0.9913402695394926,-0.38718366031917917,1,True
2024-01-08,0.9913402695394926,0.9956710107251172,0.4368571840258628,3,True
2024-01-09,0.9956710107251172,1.010860801737868,1.5255833351709658,0,True
2024-01-10,1.010860801737868,1.010860801737868,0.0,0,False
2024-01-11,1.010860801737868,1.0115328331226925,0.06648110043134814,1,True
2024-01-12,1.0115328331226925,1.0042846788910493,-0.7165515536720068,2,True
2024-01-13,1.0042846788910493,1.0089896689730842,0.46849167182658746,4,True
2024-01-14,1.0089896689730842,1.0119184551951599,0.29026919820265284,0,True
2024-01-15,1.0119184551951599,1.0119184551951599,0.0,0,False
2024-01-16,1.0119184551951599,1.011469470003793,-0.04436970084514824,1,True
2024-01-17,1.011469470003793,1.0131716266716677,0.16828552105170314,0,True
2024-01-18,1.0131716266716677,1.0131716266716677,0.0,0,False
2024-01-19,1.0131716266716677,1.0131716266716677,0.0,0,False
2024-01-20,1.0131716266716677,1.025800648538642,1.2464839652548632,6,True
2024-01-21,1.025800648538642,1.0280894411373034,0.22312255328771347,0,True
2024-01-22,1.0280894411373034,1.0280894411373034,0.0,0,False
2024-01-23,1.0280894411373034,1.005665778480393,-2.1811003750903835,8,True
2024-01-24,1.005665778480393,1.005665778480393,0.0,0,False
2024-01-25,1.005665778480393,1.0040964005272555,-0.15605363001502948,1,True
2024-01-26,1.0040964005272555,1.0040964005272555,0.0,0,False
2024-01-27,1.0040964005272555,1.0040964005272555,0.0,0,False
2024-01-28,1.0040964005272555,1.0030816198727301,-0.10106406655699951,1,True
2024-01-29,1.0030816198727301,1.0030816198727301,0.0,0,False
2024-01-30,1.0030816198727301,1.0030816198727301,0.0,0,False
2024-01-31,1.0030816198727301,0.9986810521596311,-0.4387048497267232,1,True
2024-02-01,0.9986810521596311,0.9986810521596311,0.0,0,False
2024-02-02,0.9986810521596311,0.9982070090928892,-0.04746691305665962,2,True
2024-02-03,0.9982070090928892,1.0060315627472678,0.7838608207619391,1,True
2024-02-04,1.0060315627472678,1.0043225883719424,-0.1698728388459747,1,True
2024-02-05,1.0043225883719424,1.0043225883719424,0.0,0,False
2024-02-06,1.0043225883719424,0.9993085051463347,-0.49925026915264015,1,True
2024-02-07,0.9993085051463347,0.9969928103389831,-0.23172972064442465,3,True
2024-02-08,0.9969928103389831,1.0053327125763325,0.8365057551933397,0,True
2024-02-09,1.0053327125763325,1.0053327125763325,0.0,0,False
2024-02-10,1.0053327125763325,1.0053327125763325,0.0,0,False
2024-02-11,1.0053327125763325,1.0053327125763325,0.0,0,False
2024-02-12,1.0053327125763325,1.0053327125763325,0.0,0,False
2024-02-13,1.0053327125763325,1.0053327125763325,0.0,0,False
2024-02-14,1.0053327125763325,1.0064671221133472,0.11283921460265578,1,True
2024-02-15,1.0064671221133472,1.007114195063827,0.06429151397624455,0,True
2024-02-16,1.007114195063827,1.0120098130133361,0.4861035594080798,1,True
2024-02-17,1.0120098130133361,1.0086838953484771,-0.328644803843936,2,True
2024-02-18,1.0086838953484771,1.0101205836127505,0.14243196217353926,0,True
2024-02-19,1.0101205836127505,1.0101205836127505,0.0,0,False
2024-02-20,1.0101205836127505,1.0114062798915056,0.12728146516496341,7,True
2024-02-21,1.0114062798915056,1.0027715482988135,-0.8537352164372791,6,True
2024-02-22,1.0027715482988135,1.026867809915723,2.4029662247386563,3,True
2024-02-23,1.026867809915723,1.027318306635055,0.043870955441582815,1,True
2024-02-24,1.027318306635055,1.023544034076509,-0.36739076235374757,3,True
2024-02-25,1.023544034076509,1.0200079037997287,-0.3454790569875854,1,True
2024-02-26,1.0200079037997287,1.0250826978099965,0.49752496930299817,0,True
2024-02-27,1.0250826978099965,1.024157897854442,-0.09021710712027176,1,True
2024-02-28,1.024157897854442,1.0240491828211309,-0.010615065659191902,1,True
2024-02-29,1.0240491828211309,1.0473421732927368,2.2745968516313386,5,True
2024-03-01,1.0473421732927368,1.0440449621490973,-0.3148169936930456,1,True
2024-03-02,1.0440449621490973,1.0435107110898838,-0.05117126930183069,1,True
2024-03-03,1.0435107110898838,1.047444643309549,0.37699011403116156,6,True
2024-03-04,1.047444643309549,1.0632545589247293,1.5093795854668413,0,True
2024-03-05,1.0632545589247293,1.0557306170335732,-0.7076331653602441,5,True
2024-03-06,1.0557306170335732,1.034439392604774,-2.0167288970574737,4,True
2024-03-07,1.034439392604774,1.034439392604774,0.0,0,False
2024-03-08,1.034439392604774,1.035018168299992,0.055950662683157404,2,True
2024-03-09,1.035018168299992,1.025769937526396,-0.8935331820103309,3,True
2024-03-10,1.025769937526396,1.0236509195787595,-0.20657828525822985,2,True
2024-03-11,1.0236509195787595,1.019886517643569,-0.36774273956005077,0,True
2024-03-12,1.019886517643569,1.016084929707794,-0.3727461702855317,1,True
2024-03-13,1.016084929707794,1.0199995503952886,0.3852651065910706,2,True
2024-03-14,1.0199995503952886,1.0149883242418463,-0.4912968982682675,1,True
2024-03-15,1.0149883242418463,0.9924537007279677,-2.2201854913662222,6,True
2024-03-16,0.9924537007279677,0.993529598278309,0.1084078329852689,1,True
2024-03-17,0.993529598278309,0.9790642803109256,-1.4559523936126695,4,True
2024-03-18,0.9790642803109256,0.9790642803109256,0.0,0,False
2024-03-19,0.9790642803109256,0.9569436285660184,-2.259366641164995,5,True
2024-03-20,0.9569436285660184,0.9569436285660184,0.0,0,False
2024-03-21,0.9569436285660184,0.9576670430523091,0.07559635329561498,2,True
2024-03-22,0.9576670430523091,0.9576670430523091,0.0,0,False
2024-03-23,0.9576670430523091,0.9583993762331949,0.0764705422619194,1,True
2024-03-24,0.9583993762331949,0.9567026088400942,-0.1770417881290398,2,True
2024-03-25,0.9567026088400942,0.960396886539196,0.38614692433844855,2,True
2024-03-26,0.960396886539196,0.966725263086252,0.6589334717504558,2,True
2024-03-27,0.966725263086252,0.9638135581149382,-0.3011926017137734,3,True
2024-03-28,0.9638135581149382,0.9632280637144839,-0.0607476825289166,0,True
2024-03-29,0.9632280637144839,0.9574275498792267,-0.6021952696113053,4,True
2024-03-30,0.9574275498792267,0.9569979341525641,-0.04487187847445062,0,True
2024-03-31,0.9569979341525641,0.9569979341525641,0.0,0,False
2024-04-01,0.9569979341525641,0.9559327665132573,-0.11130302389315005,4,True
2024-04-02,0.9559327665132573,0.9499963270568826,-0.6210101446807448,5,True
2024-04-03,0.9499963270568826,0.9491152942705985,-0.0927406518521634,1,True
2024-04-04,0.9491152942705985,0.9488389807683635,-0.029112743615344883,1,True
2024-04-05,0.9488389807683635,0.9447499896084222,-0.4309467931671751,3,True
2024-04-06,0.9447499896084222,0.9445468667055926,-0.021500175185362735,1,True
2024-04-07,0.9445468667055926,0.9516172628208184,0.7485489989380811,1,True
2024-04-08,0.9516172628208184,0.9489873437200598,-0.2763631139858558,0,True
2024-04-09,0.9489873437200598,0.9466203389657422,-0.24942426998434408,1,True
2024-04-10,0.9466203389657422,0.9412603433814549,-0.5662244263781036,5,True
2024-04-11,0.9412603433814549,0.9404473924758008,-0.08636833702497793,1,True
2024-04-12,0.9404473924758008,0.9394434782677245,-0.10674857691225226,3,True
2024-04-13,0.9394434782677245,0.9290055376258578,-1.111077024145568,7,True
2024-04-14,0.9290055376258578,0.9075534980605687,-2.3091401177339987,10,True
2024-04-15,0.9075534980605687,0.9075534980605687,0.0,0,False
2024-04-16,0.9075534980605687,0.9075534980605687,0.0,0,False
2024-04-17,0.9075534980605687,0.9075534980605687,0.0,0,False
2024-04-18,0.9075534980605687,0.9075534980605687,0.0,0,False
2024-04-19,0.9075534980605687,0.9075534980605687,0.0,0,False
2024-04-20,0.9075534980605687,0.9075534980605687,0.0,0,False
2024-04-21,0.9075534980605687,0.9075534980605687,0.0,0,False
2024-04-22,0.9075534980605687,0.9075534980605687,0.0,0,False
2024-04-23,0.9075534980605687,0.9075534980605687,0.0,0,False
2024-04-24,0.9075534980605687,0.9075534980605687,0.0,0,False
2024-04-25,0.9075534980605687,0.9075534980605687,0.0,0,False
2024-04-26,0.9075534980605687,0.9075534980605687,0.0,0,False
2024-04-27,0.9075534980605687,0.9075534980605687,0.0,0,False
2024-04-28,0.9075534980605687,0.9075534980605687,0.0,0,False
2024-04-29,0.9075534980605687,0.9075534980605687,0.0,0,False
2024-04-30,0.9075534980605687,0.9075534980605687,0.0,0,False
2024-05-01,0.9075534980605687,0.9075534980605687,0.0,0,False
2024-05-02,0.9075534980605687,0.9075534980605687,0.0,0,False
2024-05-03,0.9075534980605687,0.9075534980605687,0.0,0,False
2024-05-04,0.9075534980605687,0.9075534980605687,0.0,0,False
2024-05-05,0.9075534980605687,0.9075534980605687,0.0,0,False
2024-05-06,0.9075534980605687,0.9075534980605687,0.0,0,False
2024-05-07,0.9075534980605687,0.9075534980605687,0.0,0,False
2024-05-08,0.9075534980605687,0.9075534980605687,0.0,0,False
2024-05-09,0.9075534980605687,0.9075534980605687,0.0,0,False
2024-05-10,0.9075534980605687,0.9075534980605687,0.0,0,False
2024-05-11,0.9075534980605687,0.9075534980605687,0.0,0,False
2024-05-12,0.9075534980605687,0.9075534980605687,0.0,0,False
2024-05-13,0.9075534980605687,0.9075534980605687,0.0,0,False
2024-05-14,0.9075534980605687,0.9075534980605687,0.0,0,False
2024-05-15,0.9075534980605687,0.9075534980605687,0.0,0,False
2024-05-16,0.9075534980605687,0.9075534980605687,0.0,0,False
2024-05-17,0.9075534980605687,0.9075534980605687,0.0,0,False
2024-05-18,0.9075534980605687,0.9075534980605687,0.0,0,False
2024-05-19,0.9075534980605687,0.9075534980605687,0.0,0,False
2024-05-20,0.9075534980605687,0.9075534980605687,0.0,0,False
2024-05-21,0.9075534980605687,0.9075534980605687,0.0,0,False
2024-05-22,0.9075534980605687,0.9075534980605687,0.0,0,False
2024-05-23,0.9075534980605687,0.9075534980605687,0.0,0,False
2024-05-24,0.9075534980605687,0.9075534980605687,0.0,0,False
2024-05-25,0.9075534980605687,0.9075534980605687,0.0,0,False
2024-05-26,0.9075534980605687,0.9075534980605687,0.0,0,False
2024-05-27,0.9075534980605687,0.9075534980605687,0.0,0,False
2024-05-28,0.9075534980605687,0.9075534980605687,0.0,0,False
2024-05-29,0.9075534980605687,0.9075534980605687,0.0,0,False
2024-05-30,0.9075534980605687,0.9075534980605687,0.0,0,False
2024-05-31,0.9075534980605687,0.9075534980605687,0.0,0,False
2024-06-01,0.9075534980605687,0.9075534980605687,0.0,0,False
2024-06-02,0.9075534980605687,0.9075534980605687,0.0,0,False
2024-06-03,0.9075534980605687,0.9075534980605687,0.0,0,False
2024-06-04,0.9075534980605687,0.9075534980605687,0.0,0,False
2024-06-05,0.9075534980605687,0.9075534980605687,0.0,0,False
2024-06-06,0.9075534980605687,0.9075534980605687,0.0,0,False
2024-06-07,0.9075534980605687,0.9075534980605687,0.0,0,False
2024-06-08,0.9075534980605687,0.9075534980605687,0.0,0,False
2024-06-09,0.9075534980605687,0.9075534980605687,0.0,0,False
2024-06-10,0.9075534980605687,0.9075534980605687,0.0,0,False
2024-06-11,0.9075534980605687,0.9075534980605687,0.0,0,False
2024-06-12,0.9075534980605687,0.9075534980605687,0.0,0,False
2024-06-13,0.9075534980605687,0.9075534980605687,0.0,0,False
2024-06-14,0.9075534980605687,0.9075534980605687,0.0,0,False
2024-06-15,0.9075534980605687,0.9075534980605687,0.0,0,False
2024-06-16,0.9075534980605687,0.9075534980605687,0.0,0,False
2024-06-17,0.9075534980605687,0.9075534980605687,0.0,0,False
2024-06-18,0.9075534980605687,0.9075534980605687,0.0,0,False
2024-06-19,0.9075534980605687,0.9075534980605687,0.0,0,False
2024-06-20,0.9075534980605687,0.9075534980605687,0.0,0,False
2024-06-21,0.9075534980605687,0.9075534980605687,0.0,0,False
2024-06-22,0.9075534980605687,0.9075534980605687,0.0,0,False
2024-06-23,0.9075534980605687,0.9075534980605687,0.0,0,False
2024-06-24,0.9075534980605687,0.9075534980605687,0.0,0,False
2024-06-25,0.9075534980605687,0.9075534980605687,0.0,0,False
2024-06-26,0.9075534980605687,0.9075534980605687,0.0,0,False
2024-06-27,0.9075534980605687,0.9075534980605687,0.0,0,False
2024-06-28,0.9075534980605687,0.9075534980605687,0.0,0,False
2024-06-29,0.9075534980605687,0.9075534980605687,0.0,0,False
2024-06-30,0.9075534980605687,0.9075534980605687,0.0,0,False
2024-07-01,0.9075534980605687,0.9075534980605687,0.0,0,False
2024-07-02,0.9075534980605687,0.9075534980605687,0.0,0,False
2024-07-03,0.9075534980605687,0.9075534980605687,0.0,0,False
2024-07-04,0.9075534980605687,0.9075534980605687,0.0,0,False
2024-07-05,0.9075534980605687,0.9075534980605687,0.0,0,False
2024-07-06,0.9075534980605687,0.9075534980605687,0.0,0,False
2024-07-07,0.9075534980605687,0.9075534980605687,0.0,0,False
2024-07-08,0.9075534980605687,0.9075534980605687,0.0,0,False
2024-07-09,0.9075534980605687,0.9075534980605687,0.0,0,False
2024-07-10,0.9075534980605687,0.9075534980605687,0.0,0,False
2024-07-11,0.9075534980605687,0.9075534980605687,0.0,0,False
2024-07-12,0.9075534980605687,0.9075534980605687,0.0,0,False
2024-07-13,0.9075534980605687,0.9075534980605687,0.0,0,False
2024-07-14,0.9075534980605687,0.9075534980605687,0.0,0,False
2024-07-15,0.9075534980605687,0.9075534980605687,0.0,0,False
2024-07-16,0.9075534980605687,0.9075534980605687,0.0,0,False
2024-07-17,0.9075534980605687,0.9075534980605687,0.0,0,False
2024-07-18,0.9075534980605687,0.9075534980605687,0.0,0,False
2024-07-19,0.9075534980605687,0.9075534980605687,0.0,0,False
2024-07-20,0.9075534980605687,0.9075534980605687,0.0,0,False
2024-07-21,0.9075534980605687,0.9075534980605687,0.0,0,False
2024-07-22,0.9075534980605687,0.9075534980605687,0.0,0,False
2024-07-23,0.9075534980605687,0.9075534980605687,0.0,0,False
2024-07-24,0.9075534980605687,0.9075534980605687,0.0,0,False
2024-07-25,0.9075534980605687,0.9075534980605687,0.0,0,False
2024-07-26,0.9075534980605687,0.9075534980605687,0.0,0,False
2024-07-27,0.9075534980605687,0.9075534980605687,0.0,0,False
2024-07-28,0.9075534980605687,0.9075534980605687,0.0,0,False
2024-07-29,0.9075534980605687,0.9075534980605687,0.0,0,False
2024-07-30,0.9075534980605687,0.9075534980605687,0.0,0,False
2024-07-31,0.9075534980605687,0.9075534980605687,0.0,0,False
2024-08-01,0.9075534980605687,0.9075534980605687,0.0,0,False
2024-08-02,0.9075534980605687,0.9075534980605687,0.0,0,False
2024-08-03,0.9075534980605687,0.9075534980605687,0.0,0,False
2024-08-04,0.9075534980605687,0.9075534980605687,0.0,0,False
2024-08-05,0.9075534980605687,0.9075534980605687,0.0,0,False
2024-08-06,0.9075534980605687,0.9075534980605687,0.0,0,False
2024-08-07,0.9075534980605687,0.9075534980605687,0.0,0,False
2024-08-08,0.9075534980605687,0.9075534980605687,0.0,0,False
2024-08-09,0.9075534980605687,0.9075534980605687,0.0,0,False
2024-08-10,0.9075534980605687,0.9075534980605687,0.0,0,False
2024-08-11,0.9075534980605687,0.9075534980605687,0.0,0,False
2024-08-12,0.9075534980605687,0.9075534980605687,0.0,0,False
2024-08-13,0.9075534980605687,0.9075534980605687,0.0,0,False
2024-08-14,0.9075534980605687,0.9075534980605687,0.0,0,False
2024-08-15,0.9075534980605687,0.9075534980605687,0.0,0,False
2024-08-16,0.9075534980605687,0.9075534980605687,0.0,0,False
2024-08-17,0.9075534980605687,0.9075534980605687,0.0,0,False
2024-08-18,0.9075534980605687,0.9075534980605687,0.0,0,False
2024-08-19,0.9075534980605687,0.9075534980605687,0.0,0,False
2024-08-20,0.9075534980605687,0.9075534980605687,0.0,0,False
2024-08-21,0.9075534980605687,0.9075534980605687,0.0,0,False
2024-08-22,0.9075534980605687,0.9075534980605687,0.0,0,False
2024-08-23,0.9075534980605687,0.9075534980605687,0.0,0,False
2024-08-24,0.9075534980605687,0.9075534980605687,0.0,0,False
2024-08-25,0.9075534980605687,0.9075534980605687,0.0,0,False
2024-08-26,0.9075534980605687,0.9075534980605687,0.0,0,False
2024-08-27,0.9075534980605687,0.9075534980605687,0.0,0,False
2024-08-28,0.9075534980605687,0.9075534980605687,0.0,0,False
2024-08-29,0.9075534980605687,0.9075534980605687,0.0,0,False
2024-08-30,0.9075534980605687,0.9075534980605687,0.0,0,False
2024-08-31,0.9075534980605687,0.9075534980605687,0.0,0,False
2024-09-01,0.9075534980605687,0.9075534980605687,0.0,0,False
2024-09-02,0.9075534980605687,0.9075534980605687,0.0,0,False
2024-09-03,0.9075534980605687,0.9075534980605687,0.0,0,False
2024-09-04,0.9075534980605687,0.9075534980605687,0.0,0,False
2024-09-05,0.9075534980605687,0.9075534980605687,0.0,0,False
2024-09-06,0.9075534980605687,0.9075534980605687,0.0,0,False
2024-09-07,0.9075534980605687,0.9075534980605687,0.0,0,False
2024-09-08,0.9075534980605687,0.9075534980605687,0.0,0,False
2024-09-09,0.9075534980605687,0.9075534980605687,0.0,0,False
2024-09-10,0.9075534980605687,0.9075534980605687,0.0,0,False
2024-09-11,0.9075534980605687,0.9075534980605687,0.0,0,False
2024-09-12,0.9075534980605687,0.9075534980605687,0.0,0,False
2024-09-13,0.9075534980605687,0.9075534980605687,0.0,0,False
2024-09-14,0.9075534980605687,0.9075534980605687,0.0,0,False
2024-09-15,0.9075534980605687,0.9075534980605687,0.0,0,False
2024-09-16,0.9075534980605687,0.9075534980605687,0.0,0,False
2024-09-17,0.9075534980605687,0.9075534980605687,0.0,0,False
2024-09-18,0.9075534980605687,0.9075534980605687,0.0,0,False
2024-09-19,0.9075534980605687,0.9075534980605687,0.0,0,False
2024-09-20,0.9075534980605687,0.9075534980605687,0.0,0,False
2024-09-21,0.9075534980605687,0.9075534980605687,0.0,0,False
2024-09-22,0.9075534980605687,0.9075534980605687,0.0,0,False
2024-09-23,0.9075534980605687,0.9075534980605687,0.0,0,False
2024-09-24,0.9075534980605687,0.9075534980605687,0.0,0,False
2024-09-25,0.9075534980605687,0.9075534980605687,0.0,0,False
2024-09-26,0.9075534980605687,0.9075534980605687,0.0,0,False
2024-09-27,0.9075534980605687,0.9075534980605687,0.0,0,False
2024-09-28,0.9075534980605687,0.9075534980605687,0.0,0,False
2024-09-29,0.9075534980605687,0.9075534980605687,0.0,0,False
2024-09-30,0.9075534980605687,0.9075534980605687,0.0,0,False
2024-10-01,0.9075534980605687,0.9075534980605687,0.0,0,False
2024-10-02,0.9075534980605687,0.9075534980605687,0.0,0,False
2024-10-03,0.9075534980605687,0.9075534980605687,0.0,0,False
2024-10-04,0.9075534980605687,0.9075534980605687,0.0,0,False
2024-10-05,0.9075534980605687,0.9075534980605687,0.0,0,False
2024-10-06,0.9075534980605687,0.9075534980605687,0.0,0,False
2024-10-07,0.9075534980605687,0.9075534980605687,0.0,0,False
2024-10-08,0.9075534980605687,0.9075534980605687,0.0,0,False
2024-10-09,0.9075534980605687,0.9075534980605687,0.0,0,False
2024-10-10,0.9075534980605687,0.9075534980605687,0.0,0,False
2024-10-11,0.9075534980605687,0.9075534980605687,0.0,0,False
2024-10-12,0.9075534980605687,0.9075534980605687,0.0,0,False
2024-10-13,0.9075534980605687,0.9075534980605687,0.0,0,False
2024-10-14,0.9075534980605687,0.9075534980605687,0.0,0,False
2024-10-15,0.9075534980605687,0.9075534980605687,0.0,0,False
2024-10-16,0.9075534980605687,0.9075534980605687,0.0,0,False
2024-10-17,0.9075534980605687,0.9075534980605687,0.0,0,False
2024-10-18,0.9075534980605687,0.9075534980605687,0.0,0,False
2024-10-19,0.9075534980605687,0.9075534980605687,0.0,0,False
2024-10-20,0.9075534980605687,0.9075534980605687,0.0,0,False
2024-10-21,0.9075534980605687,0.9075534980605687,0.0,0,False
2024-10-22,0.9075534980605687,0.9075534980605687,0.0,0,False
2024-10-23,0.9075534980605687,0.9075534980605687,0.0,0,False
2024-10-24,0.9075534980605687,0.9075534980605687,0.0,0,False
2024-10-25,0.9075534980605687,0.9075534980605687,0.0,0,False
2024-10-26,0.9075534980605687,0.9075534980605687,0.0,0,False
2024-10-27,0.9075534980605687,0.9075534980605687,0.0,0,False
2024-10-28,0.9075534980605687,0.9075534980605687,0.0,0,False
2024-10-29,0.9075534980605687,0.9075534980605687,0.0,0,False
2024-10-30,0.9075534980605687,0.9075534980605687,0.0,0,False
2024-10-31,0.9075534980605687,0.9075534980605687,0.0,0,False
2024-11-01,0.9075534980605687,0.9075534980605687,0.0,0,False
2024-11-02,0.9075534980605687,0.9075534980605687,0.0,0,False
2024-11-03,0.9075534980605687,0.9075534980605687,0.0,0,False
2024-11-04,0.9075534980605687,0.9075534980605687,0.0,0,False
2024-11-05,0.9075534980605687,0.9075534980605687,0.0,0,False
2024-11-06,0.9075534980605687,0.9075534980605687,0.0,0,False
2024-11-07,0.9075534980605687,0.9075534980605687,0.0,0,False
2024-11-08,0.9075534980605687,0.9075534980605687,0.0,0,False
2024-11-09,0.9075534980605687,0.9075534980605687,0.0,0,False
2024-11-10,0.9075534980605687,0.9075534980605687,0.0,0,False
2024-11-11,0.9075534980605687,0.9075534980605687,0.0,0,False
2024-11-12,0.9075534980605687,0.9075534980605687,0.0,0,False
2024-11-13,0.9075534980605687,0.9075534980605687,0.0,0,False
2024-11-14,0.9075534980605687,0.9075534980605687,0.0,0,False
2024-11-15,0.9075534980605687,0.9075534980605687,0.0,0,False
2024-11-16,0.9075534980605687,0.9075534980605687,0.0,0,False
2024-11-17,0.9075534980605687,0.9075534980605687,0.0,0,False
2024-11-18,0.9075534980605687,0.9075534980605687,0.0,0,False
2024-11-19,0.9075534980605687,0.9075534980605687,0.0,0,False
2024-11-20,0.9075534980605687,0.9075534980605687,0.0,0,False
2024-11-21,0.9075534980605687,0.9075534980605687,0.0,0,False
2024-11-22,0.9075534980605687,0.9075534980605687,0.0,0,False
2024-11-23,0.9075534980605687,0.9075534980605687,0.0,0,False
2024-11-24,0.9075534980605687,0.9075534980605687,0.0,0,False
2024-11-25,0.9075534980605687,0.9075534980605687,0.0,0,False
2024-11-26,0.9075534980605687,0.9075534980605687,0.0,0,False
2024-11-27,0.9075534980605687,0.9075534980605687,0.0,0,False
2024-11-28,0.9075534980605687,0.9075534980605687,0.0,0,False
2024-11-29,0.9075534980605687,0.9075534980605687,0.0,0,False
2024-11-30,0.9075534980605687,0.9075534980605687,0.0,0,False
2024-12-01,0.9075534980605687,0.9075534980605687,0.0,0,False
2024-12-02,0.9075534980605687,0.9075534980605687,0.0,0,False
2024-12-03,0.9075534980605687,0.9075534980605687,0.0,0,False
2024-12-04,0.9075534980605687,0.9075534980605687,0.0,0,False
2024-12-05,0.9075534980605687,0.9075534980605687,0.0,0,False
2024-12-06,0.9075534980605687,0.9075534980605687,0.0,0,False
2024-12-07,0.9075534980605687,0.9075534980605687,0.0,0,False
2024-12-08,0.9075534980605687,0.9075534980605687,0.0,0,False
2024-12-09,0.9075534980605687,0.9075534980605687,0.0,0,False
2024-12-10,0.9075534980605687,0.9075534980605687,0.0,0,False
2024-12-11,0.9075534980605687,0.9075534980605687,0.0,0,False
2024-12-12,0.9075534980605687,0.9075534980605687,0.0,0,False
2024-12-13,0.9075534980605687,0.9075534980605687,0.0,0,False
2024-12-14,0.9075534980605687,0.9075534980605687,0.0,0,False
2024-12-15,0.9075534980605687,0.9075534980605687,0.0,0,False
2024-12-16,0.9075534980605687,0.9075534980605687,0.0,0,False
2024-12-17,0.9075534980605687,0.9075534980605687,0.0,0,False
2024-12-18,0.9075534980605687,0.9075534980605687,0.0,0,False
2024-12-19,0.9075534980605687,0.9075534980605687,0.0,0,False
2024-12-20,0.9075534980605687,0.9075534980605687,0.0,0,False
2024-12-21,0.9075534980605687,0.9075534980605687,0.0,0,False
2024-12-22,0.9075534980605687,0.9075534980605687,0.0,0,False
2024-12-23,0.9075534980605687,0.9075534980605687,0.0,0,False
2024-12-24,0.9075534980605687,0.9075534980605687,0.0,0,False
2024-12-25,0.9075534980605687,0.9075534980605687,0.0,0,False
2024-12-26,0.9075534980605687,0.9075534980605687,0.0,0,False
2024-12-27,0.9075534980605687,0.9075534980605687,0.0,0,False
2024-12-28,0.9075534980605687,0.9075534980605687,0.0,0,False
2024-12-29,0.9075534980605687,0.9075534980605687,0.0,0,False
2024-12-30,0.9075534980605687,0.9075534980605687,0.0,0,False
2024-12-31,0.9075534980605687,0.9075534980605687,0.0,0,False
