day,start_equity,end_equity,return_pct,entries,active
2024-01-02,1.0,0.9989153035442373,-0.10846964557627015,1,True
2024-01-03,0.9989153035442373,0.9911614874099226,-0.7762235803980055,9,True
2024-01-04,0.9911614874099226,0.9977057891450402,0.6602659423560642,0,True
2024-01-05,0.9977057891450402,0.982970938753975,-1.4768732978578614,4,True
2024-01-06,0.982970938753975,0.9724781167021812,-1.067460047709512,7,True
2024-01-07,0.9724781167021812,0.970736956025961,-0.17904368708313578,3,True
2024-01-08,0.970736956025961,0.9702067466050662,-0.05461926813473683,7,True
2024-01-09,0.9702067466050662,0.9749132097193469,0.4850989885144985,0,True
2024-01-10,0.9749132097193469,0.9655298856287905,-0.9624778900326536,4,True
2024-01-11,0.9655298856287905,0.9825029075264954,1.7578971039981184,3,True
2024-01-12,0.9825029075264954,0.9779173352234887,-0.4667235351548338,5,True
2024-01-13,0.9779173352234887,0.9621651219458989,-1.6107919054313413,5,True
2024-01-14,0.9621651219458989,0.9666760913149941,0.4688352618698266,0,True
2024-01-15,0.9666760913149941,0.9611999875910996,-0.5664879656271604,2,True
2024-01-16,0.9611999875910996,0.9621851640943165,0.10249443569865235,1,True
2024-01-17,0.9621851640943165,0.9674127726167403,0.5433058747423614,0,True
2024-01-18,0.9674127726167403,0.9665381043911606,-0.09041313597853984,1,True
2024-01-19,0.9665381043911606,0.9577747005538931,-0.9066796019167489,1,True
2024-01-20,0.9577747005538931,0.9739771921100551,1.6916808876651146,6,True
2024-01-21,0.9739771921100551,0.9752705701280933,0.1327934605158676,1,True
2024-01-22,0.9752705701280933,0.9542387276049721,-2.1565136042563937,4,True
2024-01-23,0.9542387276049721,0.9292086992850919,-2.6230363111233834,8,True
2024-01-24,0.9292086992850919,0.9378492414624638,0.9298817568130557,1,True
2024-01-25,0.9378492414624638,0.9282856535537561,-1.0197361671684502,2,True
2024-01-26,0.9282856535537561,0.9282856535537561,0.0,0,False
2024-01-27,0.9282856535537561,0.9282856535537561,0.0,0,False
2024-01-28,0.9282856535537561,0.9263577542203874,-0.20768384451361754,1,True
2024-01-29,0.9263577542203874,0.9236465971182616,-0.29266847389942674,0,True
2024-01-30,0.9236465971182616,0.9236465971182616,0.0,0,False
2024-01-31,0.9236465971182616,0.9190389333649994,-0.49885570602845597,1,True
2024-02-01,0.9190389333649994,0.9190389333649994,0.0,0,False
2024-02-02,0.9190389333649994,0.9184680247292192,-0.06212017957606397,2,True
2024-02-03,0.9184680247292192,0.9278457311814288,1.0210161050488775,1,True
2024-02-04,0.9278457311814288,0.9271853934255416,-0.07116891673859538,1,True
2024-02-05,0.9271853934255416,0.9271853934255416,0.0,0,False
2024-02-06,0.9271853934255416,0.9209043286877772,-0.6774335297236145,2,True
2024-02-07,0.9209043286877772,0.9158902092962505,-0.5444777742191098,4,True
2024-02-08,0.9158902092962505,0.9388285032266174,2.5044807442577754,1,True
2024-02-09,0.9388285032266174,0.9514210061583576,1.3412995971534336,0,True
2024-02-10,0.9514210061583576,0.9457007106945098,-0.6012370366873854,2,True
2024-02-11,0.9457007106945098,0.9438931386186351,-0.1911357425698923,0,True
2024-02-12,0.9438931386186351,0.9457983316680254,0.201844146486585,1,True
2024-02-13,0.9457983316680254,0.9458677166989782,0.007336133785562637,0,True
2024-02-14,0.9458677166989782,0.9472525013934935,0.14640363235443044,2,True
2024-02-15,0.9472525013934935,0.9568757186968491,1.0159083548683112,1,True
2024-02-16,0.9568757186968491,0.9500162563842462,-0.7168603172358234,3,True
2024-02-17,0.9500162563842462,0.9459454113324628,-0.42850267292026123,5,True
2024-02-18,0.9459454113324628,0.9493697133308167,0.3619978444137084,1,True
2024-02-19,0.9493697133308167,0.9504979875504486,0.1188445558973461,2,True
2024-02-20,0.9504979875504486,0.9444317213631659,-0.6382197823391667,6,True
2024-02-21,0.9444317213631659,0.9279989312276244,-1.7399659248868549,6,True
2024-02-22,0.9279989312276244,0.9496800762415254,2.336332972411892,3,True
2024-02-23,0.9496800762415254,0.9507226153778521,0.10977793073776443,3,True
2024-02-24,0.9507226153778521,0.9469945346778151,-0.3921312735950089,5,True
2024-02-25,0.9469945346778151,0.9387377686331213,-0.8718916258057319,4,True
2024-02-26,0.9387377686331213,0.9365278037041614,-0.23541877218573593,4,True
2024-02-27,0.9365278037041614,0.9384883644225521,0.2093435678723221,2,True
2024-02-28,0.9384883644225521,0.9702715460089938,3.3866356570118716,5,True
2024-02-29,0.9702715460089938,0.9923858853913602,2.2791907557558444,6,True
2024-03-01,0.9923858853913602,0.9900270359293138,-0.23769478151295376,5,True
2024-03-02,0.9900270359293138,0.9985964322904458,0.8655719541121432,4,True
2024-03-03,0.9985964322904458,1.000390950088409,0.17970400653717356,9,True
2024-03-04,1.000390950088409,1.024623372590474,2.4222952536629316,1,True
2024-03-05,1.024623372590474,1.0423991965903652,1.734864192581309,8,True
2024-03-06,1.0423991965903652,1.0304639068699213,-1.144982628486635,13,True
2024-03-07,1.0304639068699213,1.0405821790700467,0.9819142749851517,3,True
2024-03-08,1.0405821790700467,1.0424661013845653,0.18104502963929292,5,True
2024-03-09,1.0424661013845653,1.029200021378042,-1.2725670397247368,5,True
2024-03-10,1.029200021378042,1.0642670936050231,3.407216430099602,6,True
2024-03-11,1.0642670936050231,1.0761558215760096,1.1170812329370783,3,True
2024-03-12,1.0761558215760096,1.0733083060746325,-0.2646006688145852,3,True
2024-03-13,1.0733083060746325,1.0840920631346782,1.0047212901467928,5,True
2024-03-14,1.0840920631346782,1.103170730013003,1.7598751551743952,5,True
2024-03-15,1.103170730013003,1.0710415642155693,-2.9124382041078034,14,True
2024-03-16,1.0710415642155693,1.0858161598413143,1.379460528832599,1,True
2024-03-17,1.0858161598413143,1.0789957222108475,-0.628139263599059,6,True
2024-03-18,1.0789957222108475,1.0786054390962154,-0.03617096032896283,4,True
2024-03-19,1.0786054390962154,1.054430921383704,-2.2412753390867124,11,True
2024-03-20,1.054430921383704,1.0400221731079062,-1.3664952329821234,4,True
2024-03-21,1.0400221731079062,1.040149434968947,0.012236456522907169,4,True
2024-03-22,1.040149434968947,1.0472123878330672,0.6790325146243115,6,True
2024-03-23,1.0472123878330672,1.0789534225687374,3.0310026031443282,5,True
2024-03-24,1.0789534225687374,1.0840567013956628,0.47298416411485356,4,True
2024-03-25,1.0840567013956628,1.0974252723536295,1.2331984978973365,4,True
2024-03-26,1.0974252723536295,1.129686274531371,2.939699220572156,4,True
2024-03-27,1.129686274531371,1.1230149085803172,-0.5905503237012666,6,True
2024-03-28,1.1230149085803172,1.1105122924423507,-1.1133081175005888,2,True
2024-03-29,1.1105122924423507,1.0970540099740584,-1.2118985588798314,6,True
2024-03-30,1.0970540099740584,1.085474244803944,-1.0555328238021966,2,True
2024-03-31,1.085474244803944,1.085380923892712,-0.008597247855379742,0,True
2024-04-01,1.085380923892712,1.0830038316785804,-0.21900994957660957,5,True
2024-04-02,1.0830038316785804,1.0510090624296922,-2.954261869904795,5,True
2024-04-03,1.0510090624296922,1.026994308556083,-2.2849235779273336,3,True
2024-04-04,1.026994308556083,1.0262131113468254,-0.0760663620771207,1,True
2024-04-05,1.0262131113468254,1.0153857805276294,-1.0550762506810973,5,True
2024-04-06,1.0153857805276294,1.0075787192950316,-0.7688763603269089,1,True
2024-04-07,1.0075787192950316,1.0284127659738085,2.067733893124868,3,True
2024-04-08,1.0284127659738085,1.0134239305179786,-1.457472714434549,1,True
2024-04-09,1.0134239305179786,1.0027480659765144,-1.0534450805802065,3,True
2024-04-10,1.0027480659765144,1.0024666633056045,-0.028063147709578296,4,True
2024-04-11,1.0024666633056045,1.0153565914721447,1.2858211288578891,1,True
2024-04-12,1.0153565914721447,1.0105256550780357,-0.4757871702102956,8,True
2024-04-13,1.0105256550780357,0.975290078810974,-3.4868561812357757,10,True
2024-04-14,0.975290078810974,0.9513054873592123,-2.459226436610795,10,True
2024-04-15,0.9513054873592123,0.9538759601438727,0.27020476795480697,1,True
2024-04-16,0.9538759601438727,0.9457227535172784,-0.8547449529354378,1,True
2024-04-17,0.9457227535172784,0.9445413544864151,-0.12492022915484569,0,True
2024-04-18,0.9445413544864151,0.9657433518945561,2.244687043868976,1,True
2024-04-19,0.9657433518945561,0.982825685752798,1.7688274865915954,5,True
2024-04-20,0.982825685752798,0.9826983317980129,-0.01295793919829924,0,True
2024-04-21,0.9826983317980129,0.9826983317980129,0.0,0,False
2024-04-22,0.9826983317980129,0.9826983317980129,0.0,0,False
2024-04-23,0.9826983317980129,0.9962518492201579,1.3792144530607287,3,True
2024-04-24,0.9962518492201579,0.9890245752852265,-0.7254464762688984,2,True
2024-04-25,0.9890245752852265,0.989600120465705,0.058193213279111866,2,True
2024-04-26,0.989600120465705,0.9838748760217833,-0.5785412032112025,1,True
2024-04-27,0.9838748760217833,0.9868665660866602,0.30407220854888894,6,True
2024-04-28,0.9868665660866602,0.9937824904779222,0.7007963010325247,3,True
2024-04-29,0.9937824904779222,0.9992849450947058,0.5536880222288154,2,True
2024-04-30,0.9992849450947058,0.9888799996925042,-1.0412390833342777,2,True
2024-05-01,0.9888799996925042,0.974923437675059,-1.411350418835966,6,True
2024-05-02,0.974923437675059,0.9857574200937141,1.1112649465573776,3,True
2024-05-03,0.9857574200937141,0.9901988961906906,0.4505648150793684,1,True
2024-05-04,0.9901988961906906,0.9911763387380316,0.0987117387326153,0,True
2024-05-05,0.9911763387380316,0.9870452765363281,-0.4167837790562179,1,True
2024-05-06,0.9870452765363281,0.986227337360277,-0.08286744240562083,0,True
2024-05-07,0.986227337360277,0.9917585113688079,0.5608416841633712,3,True
2024-05-08,0.9917585113688079,0.9911743686005579,-0.05889969801659012,3,True
2024-05-09,0.9911743686005579,0.984532196741864,-0.6701315196509738,1,True
2024-05-10,0.984532196741864,0.9846385492565657,0.010802339939064431,2,True
2024-05-11,0.9846385492565657,0.9807403025150996,-0.3959063703538157,4,True
2024-05-12,0.9807403025150996,0.9749219305805109,-0.5932632644612967,0,True
2024-05-13,0.9749219305805109,0.9714064846625939,-0.36058742835169966,4,True
2024-05-14,0.9714064846625939,0.9609515499306157,-1.07626775166213,3,True
2024-05-15,0.9609515499306157,0.964604541824795,0.38014319186467915,3,True
2024-05-16,0.964604541824795,0.9691236293287169,0.46849121147334305,2,True
2024-05-17,0.9691236293287169,0.9697551894710003,0.06516817082675708,0,True
2024-05-18,0.9697551894710003,0.9765861628365491,0.7044018366403559,2,True
2024-05-19,0.9765861628365491,0.9756957857947949,-0.09117239990049653,0,True
2024-05-20,0.9756957857947949,0.9819360702334123,0.6395727571513632,2,True
2024-05-21,0.9819360702334123,0.974720282717282,-0.7348530861500113,2,True
2024-05-22,0.974720282717282,0.9788282963803158,0.421455645878388,1,True
2024-05-23,0.9788282963803158,0.9617840143111644,-1.7412943753445487,5,True
2024-05-24,0.9617840143111644,0.9801377619659739,1.9083024235908574,3,True
2024-05-25,0.9801377619659739,0.979086848225578,-0.1072210235312232,0,True
2024-05-26,0.979086848225578,0.9838685222876745,0.48838099201948815,3,True
2024-05-27,0.9838685222876745,1.0054941510704603,2.198020192017336,3,True
2024-05-28,1.0054941510704603,1.0161291181518193,1.0576856235351428,2,True
2024-05-29,1.0161291181518193,1.016964727249697,0.08223453918905221,1,True
2024-05-30,1.016964727249697,0.993571738302867,-2.3002753507581963,5,True
2024-05-31,0.993571738302867,0.9929860832511619,-0.05894441529763483,1,True
2024-06-01,0.9929860832511619,0.9887273099998168,-0.42888549227209083,2,True
2024-06-02,0.9887273099998168,1.0003466368914204,1.1751801304654697,0,True
2024-06-03,1.0003466368914204,0.9866086615192982,-1.3733214933188687,5,True
2024-06-04,0.9866086615192982,0.9934076576152928,0.6891279553054686,5,True
2024-06-05,0.9934076576152928,1.0002163690738912,0.6853894678991113,0,True
2024-06-06,1.0002163690738912,0.9992977271228874,-0.09184432282930421,2,True
2024-06-07,0.9992977271228874,0.9956909932714569,-0.36092685428343874,0,True
2024-06-08,0.9956909932714569,1.0181253213345995,2.2531416086663647,7,True
2024-06-09,1.0181253213345995,1.0260607256139118,0.7794133112130286,1,True
2024-06-10,1.0260607256139118,1.0193409660763595,-0.6549085614335093,0,True
2024-06-11,1.0193409660763595,1.016414847764033,-0.2870598170492289,2,True
2024-06-12,1.016414847764033,1.0268131247773868,1.023034741791573,3,True
2024-06-13,1.0268131247773868,1.0270652186988691,0.024551100429004435,3,True
2024-06-14,1.0270652186988691,1.0079276896019187,-1.8633217003682256,5,True
2024-06-15,1.0079276896019187,1.0131234614086764,0.5154905317473535,5,True
2024-06-16,1.0131234614086764,1.0142142486623111,0.10766577768499541,0,True
2024-06-17,1.0142142486623111,0.9963056425108094,-1.7657616401191456,4,True
2024-06-18,0.9963056425108094,1.0014773935933496,0.5190928227111868,5,True
2024-06-19,1.0014773935933496,1.0176015568097785,1.6100376623155332,0,True
2024-06-20,1.0176015568097785,1.0225427805029277,0.48557548483318946,1,True
2024-06-21,1.0225427805029277,1.0203950570493572,-0.21003751574228957,1,True
2024-06-22,1.0203950570493572,1.0247645842975335,0.42821917040754,2,True
2024-06-23,1.0247645842975335,1.023749762988699,-0.09902970149288093,2,True
2024-06-24,1.023749762988699,1.0181655374614318,-0.5454678212539643,1,True
2024-06-25,1.0181655374614318,1.0238849320957524,0.56173524087062,0,True
2024-06-26,1.0238849320957524,1.0238849320957524,0.0,0,False
2024-06-27,1.0238849320957524,1.018787589188476,-0.497843336442394,1,True
2024-06-28,1.018787589188476,1.016488212707529,-0.22569733920477786,2,True
2024-06-29,1.016488212707529,0.9985004443258009,-1.7695993083693184,5,True
2024-06-30,0.9985004443258009,1.0091415638332666,1.0657100422875265,0,True
2024-07-01,1.0091415638332666,1.0021139268478143,-0.6963975360164021,2,True
2024-07-02,1.0021139268478143,1.0076832078891473,0.5557532823489808,0,True
2024-07-03,1.0076832078891473,1.002659987318795,-0.4984920390679992,1,True
2024-07-04,1.002659987318795,0.9852120513271583,-1.7401647829085154,5,True
2024-07-05,0.9852120513271583,0.9269599394041181,-5.912647114351676,18,True
2024-07-06,0.9269599394041181,0.9381868983245271,1.2111590202728673,1,True
2024-07-07,0.9381868983245271,0.9363932870297669,-0.19117846326390797,1,True
2024-07-08,0.9363932870297669,0.9365263386660353,0.014208948110949748,2,True
2024-07-09,0.9365263386660353,0.9511059499725987,1.5567753628082937,2,True
2024-07-10,0.9511059499725987,0.9523612270988296,0.13198078786775813,1,True
2024-07-11,0.9523612270988296,0.9416897369156089,-1.1205296771403916,2,True
2024-07-12,0.9416897369156089,0.9416897369156089,0.0,0,False
2024-07-13,0.9416897369156089,0.9403522834929198,-0.14202697239430462,2,True
2024-07-14,0.9403522834929198,0.9644712666103996,2.564888025569556,1,True
2024-07-15,0.9644712666103996,0.967107362037449,0.27332026554962585,0,True
2024-07-16,0.967107362037449,0.9574815178309347,-0.9953232272200907,2,True
2024-07-17,0.9574815178309347,0.9624904787256279,0.5231391730714963,1,True
2024-07-18,0.9624904787256279,0.9637344054524417,0.12924041892454774,0,True
2024-07-19,0.9637344054524417,0.960927368278683,-0.2912666765737093,2,True
2024-07-20,0.960927368278683,0.9621083572321991,0.12290095927143252,0,True
2024-07-21,0.9621083572321991,0.9616647608940083,-0.046106692126335336,1,True
2024-07-22,0.9616647608940083,0.9612915970502576,-0.03880394280059152,1,True
2024-07-23,0.9612915970502576,0.9547937504074334,-0.6759495935221849,3,True
2024-07-24,0.9547937504074334,0.9499660554025247,-0.5056270008940378,1,True
2024-07-25,0.9499660554025247,0.9433736935692629,-0.6939576204613274,3,True
2024-07-26,0.9433736935692629,0.942204871087879,-0.1238981423111074,0,True
2024-07-27,0.942204871087879,0.9457884436256971,0.3803389950298719,1,True
2024-07-28,0.9457884436256971,0.9335361161157392,-1.2954617486113928,2,True
2024-07-29,0.9335361161157392,0.9328352885829827,-0.07507235345884933,0,True
2024-07-30,0.9328352885829827,0.9292766574765492,-0.3814854723001804,2,True
2024-07-31,0.9292766574765492,0.92038702803168,-0.9566181796720197,4,True
2024-08-01,0.92038702803168,0.9204171454095516,0.0032722514501148936,1,True
2024-08-02,0.9204171454095516,0.905722357451391,-1.5965356611889248,4,True
2024-08-03,0.905722357451391,0.8996899659447118,-0.6660309814647491,7,True
2024-08-04,0.8996899659447118,0.8682613805541178,-3.4932684124794777,4,True
2024-08-05,0.8682613805541178,0.8491238645676179,-2.204119222058054,16,True
2024-08-06,0.8491238645676179,0.8627476970227378,1.6044576090270768,0,True
2024-08-07,0.8627476970227378,0.862336686909708,-0.04763966504323092,1,True
2024-08-08,0.862336686909708,0.8584437035594719,-0.4514458690360379,0,True
2024-08-09,0.8584437035594719,0.8584437035594719,0.0,0,False
2024-08-10,0.8584437035594719,0.8584437035594719,0.0,0,False
2024-08-11,0.8584437035594719,0.8541522964934144,-0.4999054740879916,1,True
2024-08-12,0.8541522964934144,0.85524415188508,0.12782912323106022,1,True
2024-08-13,0.85524415188508,0.8498876303489065,-0.6263148978413846,0,True
2024-08-14,0.8498876303489065,0.8498876303489065,0.0,0,False
2024-08-15,0.8498876303489065,0.8498876303489065,0.0,0,False
2024-08-16,0.8498876303489065,0.8498876303489065,0.0,0,False
2024-08-17,0.8498876303489065,0.8738095688958076,2.8147178159400266,1,True
2024-08-18,0.8738095688958076,0.8926262320549522,2.1534054820345316,1,True
2024-08-19,0.8926262320549522,0.884005922686911,-0.965724404961299,3,True
2024-08-20,0.884005922686911,0.8749339514305288,-1.0262342167129623,2,True
2024-08-21,0.8749339514305288,0.8741551003335346,-0.08901827340460633,0,True
2024-08-22,0.8741551003335346,0.8745902041242883,0.049774209472408515,1,True
2024-08-23,0.8745902041242883,0.8751733451842214,0.06667591944011786,0,True
2024-08-24,0.8751733451842214,0.8728880507437293,-0.2611247763734226,2,True
2024-08-25,0.8728880507437293,0.8712586174396793,-0.1866715098988614,2,True
2024-08-26,0.8712586174396793,0.8736575667479407,0.2753429647916805,2,True
2024-08-27,0.8736575667479407,0.8666218444349569,-0.8053180766433687,1,True
2024-08-28,0.8666218444349569,0.8670465493927255,0.04900695274367983,4,True
2024-08-29,0.8670465493927255,0.8600342687952516,-0.8087548012716606,3,True
2024-08-30,0.8600342687952516,0.8624576776311359,0.28178049687241913,0,True
2024-08-31,0.8624576776311359,0.8624576776311359,0.0,0,False
2024-09-01,0.8624576776311359,0.8581736450781011,-0.4967238003842134,1,True
2024-09-02,0.8581736450781011,0.8593222359826866,0.13384131651827946,1,True
2024-09-03,0.8593222359826866,0.8572018448316227,-0.24675157493616595,0,True
2024-09-04,0.8572018448316227,0.8572018448316227,0.0,0,False
2024-09-05,0.8572018448316227,0.8572018448316227,0.0,0,False
2024-09-06,0.8572018448316227,0.8569095668334521,-0.03409675328311934,1,True
2024-09-07,0.8569095668334521,0.8584602047685428,0.18095701053038038,0,True
2024-09-08,0.8584602047685428,0.8584602047685428,0.0,0,False
2024-09-09,0.8584602047685428,0.8584602047685428,0.0,0,False
2024-09-10,0.8584602047685428,0.8584602047685428,0.0,0,False
2024-09-11,0.8584602047685428,0.8499190004434747,-0.9949447018771207,2,True
2024-09-12,0.8499190004434747,0.8499190004434747,0.0,0,False
2024-09-13,0.8499190004434747,0.8496406695021779,-0.03274793729185488,1,True
2024-09-14,0.8496406695021779,0.8515972450081913,0.23028270376461712,0,True
2024-09-15,0.8515972450081913,0.8535130100172352,0.2249613911122328,2,True
2024-09-16,0.8535130100172352,0.8479030886727309,-0.6572742628013439,2,True
2024-09-17,0.8479030886727309,0.8543044724121213,0.7549664371916398,1,True
2024-09-18,0.8543044724121213,0.8544014040484343,0.011346263474365514,0,True
2024-09-19,0.8544014040484343,0.8544158654477132,0.001692576722178707,1,True
2024-09-20,0.8544158654477132,0.8604581519124295,0.7071833177571207,2,True
2024-09-21,0.8604581519124295,0.8503235548518686,-1.1778140561555461,2,True
2024-09-22,0.8503235548518686,0.8591046993686828,1.032682731968304,2,True
2024-09-23,0.8591046993686828,0.8678666738279346,1.019895999368936,0,True
2024-09-24,0.8678666738279346,0.8678666738279346,0.0,0,False
2024-09-25,0.8678666738279346,0.8678666738279346,0.0,0,False
2024-09-26,0.8678666738279346,0.8678666738279346,0.0,0,False
2024-09-27,0.8678666738279346,0.8678666738279346,0.0,0,False
2024-09-28,0.8678666738279346,0.8678666738279346,0.0,0,False
2024-09-29,0.8678666738279346,0.8678666738279346,0.0,0,False
2024-09-30,0.8678666738279346,0.8640153342799207,-0.44377087681297667,2,True
2024-10-01,0.8640153342799207,0.8643679788954717,0.04081462464375907,0,True
2024-10-02,0.8643679788954717,0.8441985735833119,-2.3334281006028523,11,True
2024-10-03,0.8441985735833119,0.8449798579176033,0.09254745965456834,3,True
2024-10-04,0.8449798579176033,0.852482698353731,0.8879312762102964,1,True
2024-10-05,0.852482698353731,0.8531422450122661,0.0773677471471057,0,True
2024-10-06,0.8531422450122661,0.8531422450122661,0.0,0,False
2024-10-07,0.8531422450122661,0.8531422450122661,0.0,0,False
2024-10-08,0.8531422450122661,0.8463855780548295,-0.7919742571579569,2,True
2024-10-09,0.8463855780548295,0.8468537008380749,0.05530845460779421,0,True
2024-10-10,0.8468537008380749,0.8468537008380749,0.0,0,False
2024-10-11,0.8468537008380749,0.8454836940495477,-0.16177608802693255,1,True
2024-10-12,0.8454836940495477,0.846331230069238,0.10024273982516263,1,True
2024-10-13,0.846331230069238,0.8462762809843549,-0.00649262167469189,0,True
2024-10-14,0.8462762809843549,0.8462762809843549,0.0,0,False
2024-10-15,0.8462762809843549,0.8463708581735084,0.011175687098718967,1,True
2024-10-16,0.8463708581735084,0.8408204936340826,-0.6557839847420643,5,True
2024-10-17,0.8408204936340826,0.8364967072824467,-0.5142341777313431,2,True
2024-10-18,0.8364967072824467,0.844496831344278,0.956384405602928,2,True
2024-10-19,0.844496831344278,0.8505775909707675,0.7200452862339501,2,True
2024-10-20,0.8505775909707675,0.8523720849804639,0.21097358180437453,2,True
2024-10-21,0.8523720849804639,0.8478230504657724,-0.5336911654956089,1,True
2024-10-22,0.8478230504657724,0.8448747412926256,-0.3477505325583108,0,True
2024-10-23,0.8448747412926256,0.8406614250076858,-0.49869123540059457,1,True
2024-10-24,0.8406614250076858,0.8343905323270983,-0.7459474758854556,3,True
2024-10-25,0.8343905323270983,0.8303301753823247,-0.486625481409686,2,True
2024-10-26,0.8303301753823247,0.8144484000415929,-1.912706030877298,9,True
2024-10-27,0.8144484000415929,0.8227915178509583,1.0243887530430706,0,True
2024-10-28,0.8227915178509583,0.8197012501280098,-0.3755833228592298,1,True
2024-10-29,0.8197012501280098,0.8333984646576136,1.6710008100469187,2,True
2024-10-30,0.8333984646576136,0.8361585149076183,0.3311801457587915,0,True
2024-10-31,0.8361585149076183,0.8361585149076183,0.0,0,False
2024-11-01,0.8361585149076183,0.832008217786456,-0.4963529100245889,3,True
2024-11-02,0.832008217786456,0.8253928190798278,-0.7951121834142927,1,True
2024-11-03,0.8253928190798278,0.819097219639074,-0.7627397882831399,2,True
2024-11-04,0.819097219639074,0.8314926797413871,1.513307554355392,4,True
2024-11-05,0.8314926797413871,0.824479845850899,-0.8434029620885242,1,True
2024-11-06,0.824479845850899,0.8292172561312208,0.5745938247201821,2,True
2024-11-07,0.8292172561312208,0.8252640233897673,-0.47674270068830404,2,True
2024-11-08,0.8252640233897673,0.8220131316524535,-0.39392141728907815,2,True
2024-11-09,0.8220131316524535,0.8206086558869666,-0.17085806922129132,2,True
2024-11-10,0.8206086558869666,0.8361731981307828,1.8967070517911022,3,True
2024-11-11,0.8361731981307828,0.825743492653967,-1.2473140134281802,5,True
2024-11-12,0.825743492653967,0.8144188864843046,-1.3714435863448005,7,True
2024-11-13,0.8144188864843046,0.8111083229821852,-0.40649395011091993,2,True
2024-11-14,0.8111083229821852,0.8100848965982863,-0.1261762892699747,3,True
2024-11-15,0.8100848965982863,0.8290706600096562,2.3436757667122388,6,True
2024-11-16,0.8290706600096562,0.8318204191848741,0.3316676500391358,1,True
2024-11-17,0.8318204191848741,0.8208586538597378,-1.3178043087567093,4,True
2024-11-18,0.8208586538597378,0.8196845851830776,-0.14302933533557605,2,True
2024-11-19,0.8196845851830776,0.8087523033011405,-1.333718125185368,3,True
2024-11-20,0.8087523033011405,0.8090228281311048,0.03344965187241922,1,True
2024-11-21,0.8090228281311048,0.8249000060553373,1.962512968998631,4,True
2024-11-22,0.8249000060553373,0.8247407132815288,-0.01931055553876515,5,True
2024-11-23,0.8247407132815288,0.8496205621964691,3.016687367833071,0,True
2024-11-24,0.8496205621964691,0.8416365682252072,-0.9397128937912447,9,True
2024-11-25,0.8416365682252072,0.8502287189248624,1.0208860955000842,2,True
2024-11-26,0.8502287189248624,0.8358886018625986,-1.6866187583497894,5,True
2024-11-27,0.8358886018625986,0.8424291947989453,0.7824718415554877,3,True
2024-11-28,0.8424291947989453,0.841010657985828,-0.16838647353097924,2,True
2024-11-29,0.841010657985828,0.8519233561513203,1.2975695446746816,5,True
2024-11-30,0.8519233561513203,0.8557306433643669,0.4469048988451796,1,True
2024-12-01,0.8557306433643669,0.8584664038337884,0.319698784966449,3,True
2024-12-02,0.8584664038337884,0.8610928604392958,0.3059475121889532,8,True
2024-12-03,0.8610928604392958,0.8603151060273116,-0.090321781507674,7,True
2024-12-04,0.8603151060273116,0.8812905263170498,2.4381090303757125,3,True
2024-12-05,0.8812905263170498,0.877978205290662,-0.3758489314789615,6,True
2024-12-06,0.877978205290662,0.8800650897523966,0.23769205763413126,2,True
2024-12-07,0.8800650897523966,0.8811281117344023,0.12078901826508837,2,True
2024-12-08,0.8811281117344023,0.8793369707374273,-0.20327815820667672,0,True
2024-12-09,0.8793369707374273,0.8770872773780408,-0.25583973314574626,2,True
2024-12-10,0.8770872773780408,0.8306333559285138,-5.296385279740468,16,True
2024-12-11,0.8306333559285138,0.8449501945826839,1.7236050722001295,3,True
2024-12-12,0.8449501945826839,0.8443355704544449,-0.07274087066666546,0,True
2024-12-13,0.8443355704544449,0.8443355704544449,0.0,0,False
2024-12-14,0.8443355704544449,0.8443355704544449,0.0,0,False
2024-12-15,0.8443355704544449,0.8380839961139837,-0.740413475307744,3,True
2024-12-16,0.8380839961139837,0.8352606059761883,-0.33688629670615144,0,True
2024-12-17,0.8352606059761883,0.8352606059761883,0.0,0,False
2024-12-18,0.8352606059761883,0.831106808110185,-0.49730561171967835,2,True
2024-12-19,0.831106808110185,0.8231487032090078,-0.9575309483113026,9,True
2024-12-20,0.8231487032090078,0.7933479677229739,-3.620334378206158,12,True
2024-12-21,0.7933479677229739,0.8145045404125791,2.666745684157701,2,True
2024-12-22,0.8145045404125791,0.8174907871429533,0.3666335277715538,1,True
2024-12-23,0.8174907871429533,0.825785628680831,1.01467095022163,3,True
2024-12-24,0.825785628680831,0.8239968996827295,-0.2166093639773048,0,True
2024-12-25,0.8239968996827295,0.8300166573705984,0.7305558661915734,3,True
2024-12-26,0.8300166573705984,0.8190356082078843,-1.3229914201361659,1,True
2024-12-27,0.8190356082078843,0.8190356082078843,0.0,0,False
2024-12-28,0.8190356082078843,0.8149547293529483,-0.4982541435366028,1,True
2024-12-29,0.8149547293529483,0.8464653094135809,3.8665436159442956,4,True
2024-12-30,0.8464653094135809,0.8379477422811874,-1.0062511762347737,2,True
2024-12-31,0.8379477422811874,0.8347359736102848,-0.3832898531546891,2,True
