day,start_equity,end_equity,return_pct,entries,active
2021-09-02,1.0,1.0,0.0,0,False
2021-09-03,1.0,1.0,0.0,0,False
2021-09-04,1.0,1.0,0.0,0,False
2021-09-05,1.0,1.0,0.0,0,False
2021-09-06,1.0,1.0,0.0,0,False
2021-09-07,1.0,1.0,0.0,0,False
2021-09-08,1.0,1.0,0.0,0,False
2021-09-09,1.0,1.0,0.0,0,False
2021-09-10,1.0,1.0,0.0,0,False
2021-09-11,1.0,1.0,0.0,0,False
2021-09-12,1.0,1.0,0.0,0,False
2021-09-13,1.0,1.0,0.0,0,False
2021-09-14,1.0,1.0,0.0,0,False
2021-09-15,1.0,1.0,0.0,0,False
2021-09-16,1.0,1.0,0.0,0,False
2021-09-17,1.0,1.0,0.0,0,False
2021-09-18,1.0,1.0,0.0,0,False
2021-09-19,1.0,1.0,0.0,0,False
2021-09-20,1.0,1.0,0.0,0,False
2021-09-21,1.0,1.0,0.0,0,False
2021-09-22,1.0,1.0,0.0,0,False
2021-09-23,1.0,1.0,0.0,0,False
2021-09-24,1.0,1.0,0.0,0,False
2021-09-25,1.0,1.0,0.0,0,False
2021-09-26,1.0,1.0,0.0,0,False
2021-09-27,1.0,1.0,0.0,0,False
2021-09-28,1.0,1.0,0.0,0,False
2021-09-29,1.0,1.0,0.0,0,False
2021-09-30,1.0,1.0,0.0,0,False
2021-10-01,1.0,1.0,0.0,0,False
2021-10-02,1.0,1.0,0.0,0,False
2021-10-03,1.0,1.0,0.0,0,False
2021-10-04,1.0,1.0,0.0,0,False
2021-10-05,1.0,1.0,0.0,0,False
2021-10-06,1.0,0.996980279639708,-0.30197203602919664,1,True
2021-10-07,0.996980279639708,0.996980279639708,0.0,0,False
2021-10-08,0.996980279639708,0.996980279639708,0.0,0,False
2021-10-09,0.996980279639708,0.996980279639708,0.0,0,False
2021-10-10,0.996980279639708,0.996980279639708,0.0,0,False
2021-10-11,0.996980279639708,0.996980279639708,0.0,0,False
2021-10-12,0.996980279639708,0.996980279639708,0.0,0,False
2021-10-13,0.996980279639708,1.0027599920182781,0.5797218356875522,1,True
2021-10-14,1.0027599920182781,1.0070393638161521,0.4267593274499104,0,True
2021-10-15,1.0070393638161521,1.0070393638161521,0.0,0,False
2021-10-16,1.0070393638161521,1.0038613811376194,-0.31557680789059406,1,True
2021-10-17,1.0038613811376194,1.0038613811376194,0.0,0,False
2021-10-18,1.0038613811376194,1.0038613811376194,0.0,0,False
2021-10-19,1.0038613811376194,1.0038613811376194,0.0,0,False
2021-10-20,1.0038613811376194,1.0038613811376194,0.0,0,False
2021-10-21,1.0038613811376194,1.0038613811376194,0.0,0,False
2021-10-22,1.0038613811376194,1.0038613811376194,0.0,0,False
2021-10-23,1.0038613811376194,1.0038613811376194,0.0,0,False
2021-10-24,1.0038613811376194,1.0038613811376194,0.0,0,False
2021-10-25,1.0038613811376194,1.0085118673439846,0.4632597979907338,1,True
2021-10-26,1.0085118673439846,1.0085118673439846,0.0,0,False
2021-10-27,1.0085118673439846,1.0242550216815611,1.561028169062384,4,True
2021-10-28,1.0242550216815611,1.0176970813929074,-0.6402644019149917,0,True
2021-10-29,1.0176970813929074,1.0176970813929074,0.0,0,False
2021-10-30,1.0176970813929074,1.0165635319218496,-0.11138377929770238,1,True
2021-10-31,1.0165635319218496,1.016103763481819,-0.04522771332956532,0,True
2021-11-01,1.016103763481819,1.016103763481819,0.0,0,False
2021-11-02,1.016103763481819,1.016103763481819,0.0,0,False
2021-11-03,1.016103763481819,1.016103763481819,0.0,0,False
2021-11-04,1.016103763481819,1.016103763481819,0.0,0,False
2021-11-05,1.016103763481819,1.016103763481819,0.0,0,False
2021-11-06,1.016103763481819,1.016103763481819,0.0,0,False
2021-11-07,1.016103763481819,1.016103763481819,0.0,0,False
2021-11-08,1.016103763481819,1.016103763481819,0.0,0,False
2021-11-09,1.016103763481819,1.016103763481819,0.0,0,False
2021-11-10,1.016103763481819,1.016103763481819,0.0,0,False
2021-11-11,1.016103763481819,1.0301830294887593,1.3856130164005664,6,True
2021-11-12,1.0301830294887593,1.0301830294887593,0.0,0,False
2021-11-13,1.0301830294887593,1.0301830294887593,0.0,0,False
2021-11-14,1.0301830294887593,1.0301830294887593,0.0,0,False
2021-11-15,1.0301830294887593,1.0301830294887593,0.0,0,False
2021-11-16,1.0301830294887593,1.0657187277444915,3.449454828756715,4,True
2021-11-17,1.0657187277444915,1.0645533870056496,-0.10934787092540255,0,True
2021-11-18,1.0645533870056496,1.0612794666422778,-0.30753933089073815,1,True
2021-11-19,1.0612794666422778,1.0612794666422778,0.0,0,False
2021-11-20,1.0612794666422778,1.0612794666422778,0.0,0,False
2021-11-21,1.0612794666422778,1.0612794666422778,0.0,0,False
2021-11-22,1.0612794666422778,1.0612794666422778,0.0,0,False
2021-11-23,1.0612794666422778,1.0612794666422778,0.0,0,False
2021-11-24,1.0612794666422778,1.0612794666422778,0.0,0,False
2021-11-25,1.0612794666422778,1.0612794666422778,0.0,0,False
2021-11-26,1.0612794666422778,1.0673829976890163,0.5751106318912624,5,True
2021-11-27,1.0673829976890163,1.0654934196376946,-0.17702905661911572,0,True
2021-11-28,1.0654934196376946,1.0601719001594934,-0.4994417966476705,1,True
2021-11-29,1.0601719001594934,1.0601719001594934,0.0,0,False
2021-11-30,1.0601719001594934,1.0601719001594934,0.0,0,False
2021-12-01,1.0601719001594934,1.0618750455226635,0.1606480385788256,1,True
2021-12-02,1.0618750455226635,1.0610829972483289,-0.07458959297276246,1,True
2021-12-03,1.0610829972483289,1.0605871550755244,-0.046729819824686825,1,True
2021-12-04,1.0605871550755244,1.0256889700806961,-3.2904589526490224,11,True
2021-12-05,1.0256889700806961,1.0253843164363217,-0.02970234186593368,0,True
2021-12-06,1.0253843164363217,1.0253843164363217,0.0,0,False
2021-12-07,1.0253843164363217,1.0253843164363217,0.0,0,False
2021-12-08,1.0253843164363217,1.0253843164363217,0.0,0,False
2021-12-09,1.0253843164363217,1.0253843164363217,0.0,0,False
2021-12-10,1.0253843164363217,1.0253843164363217,0.0,0,False
2021-12-11,1.0253843164363217,1.0253843164363217,0.0,0,False
2021-12-12,1.0253843164363217,1.0253843164363217,0.0,0,False
2021-12-13,1.0253843164363217,1.0253843164363217,0.0,0,False
2021-12-14,1.0253843164363217,1.0253843164363217,0.0,0,False
2021-12-15,1.0253843164363217,1.0253843164363217,0.0,0,False
2021-12-16,1.0253843164363217,1.0253843164363217,0.0,0,False
2021-12-17,1.0253843164363217,1.0247402447964475,-0.06281270637262804,1,True
2021-12-18,1.0247402447964475,1.0247402447964475,0.0,0,False
2021-12-19,1.0247402447964475,1.0247402447964475,0.0,0,False
2021-12-20,1.0247402447964475,1.0247402447964475,0.0,0,False
2021-12-21,1.0247402447964475,1.0247402447964475,0.0,0,False
2021-12-22,1.0247402447964475,1.0247402447964475,0.0,0,False
2021-12-23,1.0247402447964475,1.0247402447964475,0.0,0,False
2021-12-24,1.0247402447964475,1.0247402447964475,0.0,0,False
2021-12-25,1.0247402447964475,1.0247402447964475,0.0,0,False
2021-12-26,1.0247402447964475,1.0247402447964475,0.0,0,False
2021-12-27,1.0247402447964475,1.0247402447964475,0.0,0,False
2021-12-28,1.0247402447964475,1.0247402447964475,0.0,0,False
2021-12-29,1.0247402447964475,1.0247402447964475,0.0,0,False
2021-12-30,1.0247402447964475,1.0247402447964475,0.0,0,False
2021-12-31,1.0247402447964475,1.0247402447964475,0.0,0,False
2022-01-01,1.0247402447964475,1.0247402447964475,0.0,0,False
2022-01-02,1.0247402447964475,1.0247402447964475,0.0,0,False
2022-01-03,1.0247402447964475,1.0247402447964475,0.0,0,False
2022-01-04,1.0247402447964475,1.0247402447964475,0.0,0,False
2022-01-05,1.0247402447964475,1.0247402447964475,0.0,0,False
2022-01-06,1.0247402447964475,1.0250583176907733,0.031039367873075818,1,True
2022-01-07,1.0250583176907733,1.0250583176907733,0.0,0,False
2022-01-08,1.0250583176907733,1.0250583176907733,0.0,0,False
2022-01-09,1.0250583176907733,1.0250583176907733,0.0,0,False
2022-01-10,1.0250583176907733,1.0250583176907733,0.0,0,False
2022-01-11,1.0250583176907733,1.0250583176907733,0.0,0,False
2022-01-12,1.0250583176907733,1.0250583176907733,0.0,0,False
2022-01-13,1.0250583176907733,1.0250583176907733,0.0,0,False
2022-01-14,1.0250583176907733,1.0250583176907733,0.0,0,False
2022-01-15,1.0250583176907733,1.0250583176907733,0.0,0,False
2022-01-16,1.0250583176907733,1.0250583176907733,0.0,0,False
2022-01-17,1.0250583176907733,1.0250583176907733,0.0,0,False
2022-01-18,1.0250583176907733,1.0250583176907733,0.0,0,False
2022-01-19,1.0250583176907733,1.0250583176907733,0.0,0,False
2022-01-20,1.0250583176907733,1.0250583176907733,0.0,0,False
2022-01-21,1.0250583176907733,1.0250583176907733,0.0,0,False
2022-01-22,1.0250583176907733,1.0250583176907733,0.0,0,False
2022-01-23,1.0250583176907733,1.0250583176907733,0.0,0,False
2022-01-24,1.0250583176907733,1.0250583176907733,0.0,0,False
2022-01-25,1.0250583176907733,1.0250583176907733,0.0,0,False
2022-01-26,1.0250583176907733,1.0250583176907733,0.0,0,False
2022-01-27,1.0250583176907733,1.0250583176907733,0.0,0,False
2022-01-28,1.0250583176907733,1.0250583176907733,0.0,0,False
2022-01-29,1.0250583176907733,1.0250583176907733,0.0,0,False
2022-01-30,1.0250583176907733,1.0250583176907733,0.0,0,False
2022-01-31,1.0250583176907733,1.0250583176907733,0.0,0,False
2022-02-01,1.0250583176907733,1.0250583176907733,0.0,0,False
2022-02-02,1.0250583176907733,1.0250583176907733,0.0,0,False
2022-02-03,1.0250583176907733,1.0250583176907733,0.0,0,False
2022-02-04,1.0250583176907733,1.0250583176907733,0.0,0,False
2022-02-05,1.0250583176907733,1.0250583176907733,0.0,0,False
2022-02-06,1.0250583176907733,1.0250583176907733,0.0,0,False
2022-02-07,1.0250583176907733,1.0250583176907733,0.0,0,False
2022-02-08,1.0250583176907733,1.0250583176907733,0.0,0,False
2022-02-09,1.0250583176907733,1.0250583176907733,0.0,0,False
2022-02-10,1.0250583176907733,1.0262324195153532,0.11454000268247277,2,True
2022-02-11,1.0262324195153532,1.022784449955964,-0.3359833010359914,0,True
2022-02-12,1.022784449955964,1.022784449955964,0.0,0,False
2022-02-13,1.022784449955964,1.022784449955964,0.0,0,False
2022-02-14,1.022784449955964,1.022784449955964,0.0,0,False
2022-02-15,1.022784449955964,1.022784449955964,0.0,0,False
2022-02-16,1.022784449955964,1.022784449955964,0.0,0,False
2022-02-17,1.022784449955964,1.022784449955964,0.0,0,False
2022-02-18,1.022784449955964,1.022784449955964,0.0,0,False
2022-02-19,1.022784449955964,1.022784449955964,0.0,0,False
2022-02-20,1.022784449955964,1.022784449955964,0.0,0,False
2022-02-21,1.022784449955964,1.022784449955964,0.0,0,False
2022-02-22,1.022784449955964,1.022784449955964,0.0,0,False
2022-02-23,1.022784449955964,1.022784449955964,0.0,0,False
2022-02-24,1.022784449955964,1.022784449955964,0.0,0,False
2022-02-25,1.022784449955964,1.022784449955964,0.0,0,False
2022-02-26,1.022784449955964,1.022784449955964,0.0,0,False
2022-02-27,1.022784449955964,1.022784449955964,0.0,0,False
2022-02-28,1.022784449955964,1.022784449955964,0.0,0,False
2022-03-01,1.022784449955964,1.022784449955964,0.0,0,False
2022-03-02,1.022784449955964,1.022784449955964,0.0,0,False
2022-03-03,1.022784449955964,1.022784449955964,0.0,0,False
2022-03-04,1.022784449955964,1.022784449955964,0.0,0,False
2022-03-05,1.022784449955964,1.022784449955964,0.0,0,False
2022-03-06,1.022784449955964,1.022784449955964,0.0,0,False
2022-03-07,1.022784449955964,1.022784449955964,0.0,0,False
2022-03-08,1.022784449955964,1.022784449955964,0.0,0,False
2022-03-09,1.022784449955964,1.022784449955964,0.0,0,False
2022-03-10,1.022784449955964,1.022784449955964,0.0,0,False
2022-03-11,1.022784449955964,1.022784449955964,0.0,0,False
2022-03-12,1.022784449955964,1.022784449955964,0.0,0,False
2022-03-13,1.022784449955964,1.022784449955964,0.0,0,False
2022-03-14,1.022784449955964,1.022784449955964,0.0,0,False
2022-03-15,1.022784449955964,1.022784449955964,0.0,0,False
2022-03-16,1.022784449955964,1.022784449955964,0.0,0,False
2022-03-17,1.022784449955964,1.022784449955964,0.0,0,False
2022-03-18,1.022784449955964,1.022784449955964,0.0,0,False
2022-03-19,1.022784449955964,1.022784449955964,0.0,0,False
2022-03-20,1.022784449955964,1.022784449955964,0.0,0,False
2022-03-21,1.022784449955964,1.022784449955964,0.0,0,False
2022-03-22,1.022784449955964,1.022784449955964,0.0,0,False
2022-03-23,1.022784449955964,1.022784449955964,0.0,0,False
2022-03-24,1.022784449955964,1.022784449955964,0.0,0,False
2022-03-25,1.022784449955964,1.022784449955964,0.0,0,False
2022-03-26,1.022784449955964,1.0247113071436438,0.18839328147419732,1,True
2022-03-27,1.0247113071436438,1.0247113071436438,0.0,0,False
2022-03-28,1.0247113071436438,1.0247113071436438,0.0,0,False
2022-03-29,1.0247113071436438,1.0247113071436438,0.0,0,False
2022-03-30,1.0247113071436438,1.0216303939310574,-0.3006615805942858,1,True
2022-03-31,1.0216303939310574,1.0216303939310574,0.0,0,False
2022-04-01,1.0216303939310574,1.0216303939310574,0.0,0,False
2022-04-02,1.0216303939310574,1.0216303939310574,0.0,0,False
2022-04-03,1.0216303939310574,1.0216303939310574,0.0,0,False
2022-04-04,1.0216303939310574,1.0165278066201235,-0.4994553158603643,1,True
2022-04-05,1.0165278066201235,1.0165278066201235,0.0,0,False
2022-04-06,1.0165278066201235,1.0185763917804458,0.2015277050938291,1,True
2022-04-07,1.0185763917804458,1.0156903266057495,-0.28334302640290465,1,True
2022-04-08,1.0156903266057495,1.0156903266057495,0.0,0,False
2022-04-09,1.0156903266057495,1.0156903266057495,0.0,0,False
2022-04-10,1.0156903266057495,1.0156903266057495,0.0,0,False
2022-04-11,1.0156903266057495,1.0156903266057495,0.0,0,False
2022-04-12,1.0156903266057495,1.0156903266057495,0.0,0,False
2022-04-13,1.0156903266057495,1.0156903266057495,0.0,0,False
2022-04-14,1.0156903266057495,1.0156903266057495,0.0,0,False
2022-04-15,1.0156903266057495,1.0156903266057495,0.0,0,False
2022-04-16,1.0156903266057495,1.0156903266057495,0.0,0,False
2022-04-17,1.0156903266057495,1.0156903266057495,0.0,0,False
2022-04-18,1.0156903266057495,1.0187267754410956,0.2989541945814578,1,True
2022-04-19,1.0187267754410956,1.0159506338688309,-0.2725109066719744,0,True
2022-04-20,1.0159506338688309,1.0159506338688309,0.0,0,False
2022-04-21,1.0159506338688309,1.0159506338688309,0.0,0,False
2022-04-22,1.0159506338688309,1.0159506338688309,0.0,0,False
2022-04-23,1.0159506338688309,1.0159506338688309,0.0,0,False
2022-04-24,1.0159506338688309,1.0159506338688309,0.0,0,False
2022-04-25,1.0159506338688309,1.0159506338688309,0.0,0,False
2022-04-26,1.0159506338688309,1.0159506338688309,0.0,0,False
2022-04-27,1.0159506338688309,1.0159506338688309,0.0,0,False
2022-04-28,1.0159506338688309,1.0159506338688309,0.0,0,False
2022-04-29,1.0159506338688309,1.0159506338688309,0.0,0,False
2022-04-30,1.0159506338688309,1.0159506338688309,0.0,0,False
2022-05-01,1.0159506338688309,1.0324190039285661,1.6209813263290407,4,True
2022-05-02,1.0324190039285661,1.0324190039285661,0.0,0,False
2022-05-03,1.0324190039285661,1.0324190039285661,0.0,0,False
2022-05-04,1.0324190039285661,1.0324190039285661,0.0,0,False
2022-05-05,1.0324190039285661,1.0324190039285661,0.0,0,False
2022-05-06,1.0324190039285661,1.0282417144118887,-0.4046118388737474,2,True
2022-05-07,1.0282417144118887,1.0272188479753719,-0.09947723596313018,0,True
2022-05-08,1.0272188479753719,1.0272188479753719,0.0,0,False
2022-05-09,1.0272188479753719,1.0272188479753719,0.0,0,False
2022-05-10,1.0272188479753719,1.0207065939022075,-0.6339694881961955,2,True
2022-05-11,1.0207065939022075,1.0058338654493375,-1.4571012416027318,5,True
2022-05-12,1.0058338654493375,1.0009296519985025,-0.4875768871277941,1,True
2022-05-13,1.0009296519985025,1.0009296519985025,0.0,0,False
2022-05-14,1.0009296519985025,1.0009296519985025,0.0,0,False
2022-05-15,1.0009296519985025,0.9978748276685917,-0.30519870440558483,1,True
2022-05-16,0.9978748276685917,1.003950365391601,0.6088476785414132,1,True
2022-05-17,1.003950365391601,1.003950365391601,0.0,0,False
2022-05-18,1.003950365391601,1.003950365391601,0.0,0,False
2022-05-19,1.003950365391601,1.003950365391601,0.0,0,False
2022-05-20,1.003950365391601,0.9989377216207068,-0.4992919912867433,1,True
2022-05-21,0.9989377216207068,0.9989377216207068,0.0,0,False
2022-05-22,0.9989377216207068,0.9989377216207068,0.0,0,False
2022-05-23,0.9989377216207068,0.9986776568610556,-0.026034131460095367,1,True
2022-05-24,0.9986776568610556,0.9953015331448825,-0.3380594021482941,1,True
2022-05-25,0.9953015331448825,0.9952399777255752,-0.006184600069170099,1,True
2022-05-26,0.9952399777255752,0.9936922728531941,-0.15551072173749514,1,True
2022-05-27,0.9936922728531941,0.9936922728531941,0.0,0,False
2022-05-28,0.9936922728531941,0.9936922728531941,0.0,0,False
2022-05-29,0.9936922728531941,0.9936922728531941,0.0,0,False
2022-05-30,0.9936922728531941,0.9936922728531941,0.0,0,False
2022-05-31,0.9936922728531941,0.9936922728531941,0.0,0,False
2022-06-01,0.9936922728531941,0.9936922728531941,0.0,0,False
2022-06-02,0.9936922728531941,0.988728077217424,-0.4995707193653054,1,True
2022-06-03,0.988728077217424,0.988728077217424,0.0,0,False
2022-06-04,0.988728077217424,0.988728077217424,0.0,0,False
2022-06-05,0.988728077217424,0.988728077217424,0.0,0,False
2022-06-06,0.988728077217424,0.988728077217424,0.0,0,False
2022-06-07,0.988728077217424,0.9897623546656892,0.10460686533511065,1,True
2022-06-08,0.9897623546656892,0.988672678963776,-0.11009468048330806,1,True
2022-06-09,0.988672678963776,0.988672678963776,0.0,0,False
2022-06-10,0.988672678963776,0.9908585496169703,0.22109143902766526,1,True
2022-06-11,0.9908585496169703,0.9908585496169703,0.0,0,False
2022-06-12,0.9908585496169703,0.9820012513655312,-0.8939013802588658,4,True
2022-06-13,0.9820012513655312,0.9820012513655312,0.0,0,False
2022-06-14,0.9820012513655312,0.9820012513655312,0.0,0,False
2022-06-15,0.9820012513655312,0.9820012513655312,0.0,0,False
2022-06-16,0.9820012513655312,0.9922708579645635,1.0457834534072008,2,True
2022-06-17,0.9922708579645635,0.9955396519752862,0.32942557815593965,0,True
2022-06-18,0.9955396519752862,0.9854640012246311,-1.0120793009764761,4,True
2022-06-19,0.9854640012246311,0.9872933616571596,0.1856344250277253,0,True
2022-06-20,0.9872933616571596,0.9872933616571596,0.0,0,False
2022-06-21,0.9872933616571596,0.9872933616571596,0.0,0,False
2022-06-22,0.9872933616571596,0.9872933616571596,0.0,0,False
2022-06-23,0.9872933616571596,0.9872933616571596,0.0,0,False
2022-06-24,0.9872933616571596,0.9872933616571596,0.0,0,False
2022-06-25,0.9872933616571596,0.9872933616571596,0.0,0,False
2022-06-26,0.9872933616571596,0.9872933616571596,0.0,0,False
2022-06-27,0.9872933616571596,0.9872933616571596,0.0,0,False
2022-06-28,0.9872933616571596,0.9889835678015478,0.17119593932559685,1,True
2022-06-29,0.9889835678015478,0.9836141988195741,-0.5429179166150822,0,True
2022-06-30,0.9836141988195741,0.9836141988195741,0.0,0,False
2022-07-01,0.9836141988195741,0.9836141988195741,0.0,0,False
2022-07-02,0.9836141988195741,0.9836141988195741,0.0,0,False
2022-07-03,0.9836141988195741,0.9836141988195741,0.0,0,False
2022-07-04,0.9836141988195741,0.9836141988195741,0.0,0,False
2022-07-05,0.9836141988195741,0.9836141988195741,0.0,0,False
2022-07-06,0.9836141988195741,0.9836141988195741,0.0,0,False
2022-07-07,0.9836141988195741,0.9836141988195741,0.0,0,False
2022-07-08,0.9836141988195741,0.9836141988195741,0.0,0,False
2022-07-09,0.9836141988195741,0.9836141988195741,0.0,0,False
2022-07-10,0.9836141988195741,0.9836141988195741,0.0,0,False
2022-07-11,0.9836141988195741,0.9836141988195741,0.0,0,False
2022-07-12,0.9836141988195741,0.9836141988195741,0.0,0,False
2022-07-13,0.9836141988195741,0.9956892124811743,1.2276168518196684,4,True
2022-07-14,0.9956892124811743,1.01318761673226,1.7574162732446608,0,True
2022-07-15,1.01318761673226,1.01318761673226,0.0,0,False
2022-07-16,1.01318761673226,1.01318761673226,0.0,0,False
2022-07-17,1.01318761673226,1.01318761673226,0.0,0,False
2022-07-18,1.01318761673226,1.01318761673226,0.0,0,False
2022-07-19,1.01318761673226,1.01318761673226,0.0,0,False
2022-07-20,1.01318761673226,1.01318761673226,0.0,0,False
2022-07-21,1.01318761673226,1.0113643802231722,-0.17995053225858815,3,True
2022-07-22,1.0113643802231722,1.0113643802231722,0.0,0,False
2022-07-23,1.0113643802231722,1.0113643802231722,0.0,0,False
2022-07-24,1.0113643802231722,1.0174889971253318,0.60557965278627,1,True
2022-07-25,1.0174889971253318,1.01862103000855,0.11125750611717944,1,True
2022-07-26,1.01862103000855,1.01862103000855,0.0,0,False
2022-07-27,1.01862103000855,1.01862103000855,0.0,0,False
2022-07-28,1.01862103000855,1.01862103000855,0.0,0,False
2022-07-29,1.01862103000855,1.01862103000855,0.0,0,False
2022-07-30,1.01862103000855,1.01862103000855,0.0,0,False
2022-07-31,1.01862103000855,1.01862103000855,0.0,0,False
2022-08-01,1.01862103000855,1.01862103000855,0.0,0,False
2022-08-02,1.01862103000855,1.01862103000855,0.0,0,False
2022-08-03,1.01862103000855,1.01862103000855,0.0,0,False
2022-08-04,1.01862103000855,1.01862103000855,0.0,0,False
2022-08-05,1.01862103000855,1.01862103000855,0.0,0,False
2022-08-06,1.01862103000855,1.01862103000855,0.0,0,False
2022-08-07,1.01862103000855,1.01862103000855,0.0,0,False
2022-08-08,1.01862103000855,1.01862103000855,0.0,0,False
2022-08-09,1.01862103000855,1.0209214778900102,0.22583942542799829,1,True
2022-08-10,1.0209214778900102,1.0209214778900102,0.0,0,False
2022-08-11,1.0209214778900102,1.0209214778900102,0.0,0,False
2022-08-12,1.0209214778900102,1.018383864484077,-0.24856107554694917,1,True
2022-08-13,1.018383864484077,1.018383864484077,0.0,0,False
2022-08-14,1.018383864484077,1.018383864484077,0.0,0,False
2022-08-15,1.018383864484077,1.018383864484077,0.0,0,False
2022-08-16,1.018383864484077,1.018383864484077,0.0,0,False
2022-08-17,1.018383864484077,1.018383864484077,0.0,0,False
2022-08-18,1.018383864484077,1.018383864484077,0.0,0,False
2022-08-19,1.018383864484077,1.006283343500337,-1.18820823912702,8,True
2022-08-20,1.006283343500337,1.0097934722689303,0.3488211139800246,0,True
2022-08-21,1.0097934722689303,1.0097934722689303,0.0,0,False
2022-08-22,1.0097934722689303,1.0097934722689303,0.0,0,False
2022-08-23,1.0097934722689303,1.0097934722689303,0.0,0,False
2022-08-24,1.0097934722689303,1.0097934722689303,0.0,0,False
2022-08-25,1.0097934722689303,1.0097934722689303,0.0,0,False
2022-08-26,1.0097934722689303,1.0097934722689303,0.0,0,False
2022-08-27,1.0097934722689303,1.0097934722689303,0.0,0,False
2022-08-28,1.0097934722689303,1.0097934722689303,0.0,0,False
2022-08-29,1.0097934722689303,1.0097934722689303,0.0,0,False
2022-08-30,1.0097934722689303,1.0097934722689303,0.0,0,False
2022-08-31,1.0097934722689303,1.0097934722689303,0.0,0,False
2022-09-01,1.0097934722689303,1.0097934722689303,0.0,0,False
2022-09-02,1.0097934722689303,1.0097934722689303,0.0,0,False
2022-09-03,1.0097934722689303,1.0097934722689303,0.0,0,False
2022-09-04,1.0097934722689303,1.0097934722689303,0.0,0,False
2022-09-05,1.0097934722689303,1.0097934722689303,0.0,0,False
2022-09-06,1.0097934722689303,1.0097934722689303,0.0,0,False
2022-09-07,1.0097934722689303,1.0029766741922965,-0.6750685426116898,4,True
2022-09-08,1.0029766741922965,1.0029766741922965,0.0,0,False
2022-09-09,1.0029766741922965,1.0029766741922965,0.0,0,False
2022-09-10,1.0029766741922965,1.0029766741922965,0.0,0,False
2022-09-11,1.0029766741922965,1.0029766741922965,0.0,0,False
2022-09-12,1.0029766741922965,1.0029766741922965,0.0,0,False
2022-09-13,1.0029766741922965,0.9947932078611454,-0.8159179113254367,4,True
2022-09-14,0.9947932078611454,0.987968048548014,-0.6860882502209509,0,True
2022-09-15,0.987968048548014,0.9930186339153416,0.5112093832133846,1,True
2022-09-16,0.9930186339153416,0.9930186339153416,0.0,0,False
2022-09-17,0.9930186339153416,0.9930186339153416,0.0,0,False
2022-09-18,0.9930186339153416,0.9930186339153416,0.0,0,False
2022-09-19,0.9930186339153416,0.9892317014401469,-0.38135563078643964,5,True
2022-09-20,0.9892317014401469,0.9892317014401469,0.0,0,False
2022-09-21,0.9892317014401469,0.9892317014401469,0.0,0,False
2022-09-22,0.9892317014401469,0.9892317014401469,0.0,0,False
2022-09-23,0.9892317014401469,0.9892317014401469,0.0,0,False
2022-09-24,0.9892317014401469,0.9892317014401469,0.0,0,False
2022-09-25,0.9892317014401469,0.9892317014401469,0.0,0,False
2022-09-26,0.9892317014401469,0.9892317014401469,0.0,0,False
2022-09-27,0.9892317014401469,0.9892317014401469,0.0,0,False
2022-09-28,0.9892317014401469,0.9892317014401469,0.0,0,False
2022-09-29,0.9892317014401469,0.9892317014401469,0.0,0,False
2022-09-30,0.9892317014401469,0.9892317014401469,0.0,0,False
2022-10-01,0.9892317014401469,0.9892317014401469,0.0,0,False
2022-10-02,0.9892317014401469,0.9892317014401469,0.0,0,False
2022-10-03,0.9892317014401469,0.9892317014401469,0.0,0,False
2022-10-04,0.9892317014401469,0.9892317014401469,0.0,0,False
2022-10-05,0.9892317014401469,0.9892317014401469,0.0,0,False
2022-10-06,0.9892317014401469,0.9892317014401469,0.0,0,False
2022-10-07,0.9892317014401469,0.9892317014401469,0.0,0,False
2022-10-08,0.9892317014401469,0.9892317014401469,0.0,0,False
2022-10-09,0.9892317014401469,0.9892317014401469,0.0,0,False
2022-10-10,0.9892317014401469,0.9892317014401469,0.0,0,False
2022-10-11,0.9892317014401469,1.0145191922037764,2.5562758175678546,4,True
2022-10-12,1.0145191922037764,1.0145191922037764,0.0,0,False
2022-10-13,1.0145191922037764,1.0145191922037764,0.0,0,False
2022-10-14,1.0145191922037764,1.0145191922037764,0.0,0,False
2022-10-15,1.0145191922037764,1.0145191922037764,0.0,0,False
2022-10-16,1.0145191922037764,1.0145191922037764,0.0,0,False
2022-10-17,1.0145191922037764,1.0145191922037764,0.0,0,False
2022-10-18,1.0145191922037764,1.0145191922037764,0.0,0,False
2022-10-19,1.0145191922037764,1.0145191922037764,0.0,0,False
2022-10-20,1.0145191922037764,1.0187805210174068,0.42003432230530713,1,True
2022-10-21,1.0187805210174068,1.0187805210174068,0.0,0,False
2022-10-22,1.0187805210174068,1.0187805210174068,0.0,0,False
2022-10-23,1.0187805210174068,1.0187805210174068,0.0,0,False
2022-10-24,1.0187805210174068,1.0187805210174068,0.0,0,False
2022-10-25,1.0187805210174068,1.0187805210174068,0.0,0,False
2022-10-26,1.0187805210174068,1.0187805210174068,0.0,0,False
2022-10-27,1.0187805210174068,1.0187805210174068,0.0,0,False
2022-10-28,1.0187805210174068,1.0187805210174068,0.0,0,False
2022-10-29,1.0187805210174068,1.0187805210174068,0.0,0,False
2022-10-30,1.0187805210174068,1.0187805210174068,0.0,0,False
2022-10-31,1.0187805210174068,1.0187805210174068,0.0,0,False
2022-11-01,1.0187805210174068,1.0187805210174068,0.0,0,False
2022-11-02,1.0187805210174068,1.0247595161183571,0.5868776422010225,1,True
2022-11-03,1.0247595161183571,1.0247595161183571,0.0,0,False
2022-11-04,1.0247595161183571,1.037014460111443,1.1958848686280943,2,True
2022-11-05,1.037014460111443,1.0359795593605594,-0.09979617360131865,0,True
2022-11-06,1.0359795593605594,1.0359795593605594,0.0,0,False
2022-11-07,1.0359795593605594,1.0336428314415336,-0.22555733826139512,1,True
2022-11-08,1.0336428314415336,1.0280906982480549,-0.5371423304639578,3,True
2022-11-09,1.0280906982480549,1.0177649402016342,-1.004362559063765,4,True
2022-11-10,1.0177649402016342,1.0264566096638925,0.8539957625713024,1,True
2022-11-11,1.0264566096638925,1.0327459922861821,0.6127275681286681,5,True
2022-11-12,1.0327459922861821,1.0418363030685271,0.8802078003926184,1,True
2022-11-13,1.0418363030685271,1.0383380188148223,-0.3357806061663693,1,True
2022-11-14,1.0383380188148223,1.0435493032945558,0.5018870912269602,2,True
2022-11-15,1.0435493032945558,1.0435493032945558,0.0,0,False
2022-11-16,1.0435493032945558,1.0435493032945558,0.0,0,False
2022-11-17,1.0435493032945558,1.0435493032945558,0.0,0,False
2022-11-18,1.0435493032945558,1.0435493032945558,0.0,0,False
2022-11-19,1.0435493032945558,1.0448583340906372,0.1254402443611191,2,True
2022-11-20,1.0448583340906372,1.0415817157175806,-0.3135945100067872,1,True
2022-11-21,1.0415817157175806,1.0348494270685167,-0.6463524222317774,1,True
2022-11-22,1.0348494270685167,1.0348494270685167,0.0,0,False
2022-11-23,1.0348494270685167,1.0348494270685167,0.0,0,False
2022-11-24,1.0348494270685167,1.0348494270685167,0.0,0,False
2022-11-25,1.0348494270685167,1.0348494270685167,0.0,0,False
2022-11-26,1.0348494270685167,1.0348494270685167,0.0,0,False
2022-11-27,1.0348494270685167,1.0348494270685167,0.0,0,False
2022-11-28,1.0348494270685167,1.030708621066249,-0.40013608685057767,2,True
2022-11-29,1.030708621066249,1.030708621066249,0.0,0,False
2022-11-30,1.030708621066249,1.030708621066249,0.0,0,False
2022-12-01,1.030708621066249,1.0306415435898721,-0.006507899032370812,1,True
2022-12-02,1.0306415435898721,1.0306415435898721,0.0,0,False
2022-12-03,1.0306415435898721,1.0306415435898721,0.0,0,False
2022-12-04,1.0306415435898721,1.0306415435898721,0.0,0,False
2022-12-05,1.0306415435898721,1.0306415435898721,0.0,0,False
2022-12-06,1.0306415435898721,1.0306415435898721,0.0,0,False
2022-12-07,1.0306415435898721,1.0306415435898721,0.0,0,False
2022-12-08,1.0306415435898721,1.025498011038756,-0.4990612481232337,1,True
2022-12-09,1.025498011038756,1.025498011038756,0.0,0,False
2022-12-10,1.025498011038756,1.025498011038756,0.0,0,False
2022-12-11,1.025498011038756,1.025498011038756,0.0,0,False
2022-12-12,1.025498011038756,1.025498011038756,0.0,0,False
2022-12-13,1.025498011038756,1.025498011038756,0.0,0,False
2022-12-14,1.025498011038756,1.025498011038756,0.0,0,False
2022-12-15,1.025498011038756,1.025498011038756,0.0,0,False
2022-12-16,1.025498011038756,1.025498011038756,0.0,0,False
2022-12-17,1.025498011038756,1.0312597826485974,0.5618510760450057,4,True
2022-12-18,1.0312597826485974,1.0312597826485974,0.0,0,False
2022-12-19,1.0312597826485974,1.0312597826485974,0.0,0,False
2022-12-20,1.0312597826485974,1.0312597826485974,0.0,0,False
2022-12-21,1.0312597826485974,1.0312597826485974,0.0,0,False
2022-12-22,1.0312597826485974,1.0312597826485974,0.0,0,False
2022-12-23,1.0312597826485974,1.0312597826485974,0.0,0,False
2022-12-24,1.0312597826485974,1.0312597826485974,0.0,0,False
2022-12-25,1.0312597826485974,1.0312597826485974,0.0,0,False
2022-12-26,1.0312597826485974,1.0312597826485974,0.0,0,False
2022-12-27,1.0312597826485974,1.0312597826485974,0.0,0,False
2022-12-28,1.0312597826485974,1.0340421141166343,0.26979927995358643,1,True
2022-12-29,1.0340421141166343,1.0321361516585161,-0.18432155055371213,0,True
2022-12-30,1.0321361516585161,1.0321361516585161,0.0,0,False
2022-12-31,1.0321361516585161,1.0321361516585161,0.0,0,False
2023-01-01,1.0321361516585161,1.0321361516585161,0.0,0,False
2023-01-02,1.0321361516585161,1.0325136318779404,0.036572715607108286,1,True
2023-01-03,1.0325136318779404,1.0326058668253062,0.00893304887394919,0,True
2023-01-04,1.0326058668253062,1.0326058668253062,0.0,0,False
2023-01-05,1.0326058668253062,1.0326058668253062,0.0,0,False
2023-01-06,1.0326058668253062,1.0326058668253062,0.0,0,False
2023-01-07,1.0326058668253062,1.0326058668253062,0.0,0,False
2023-01-08,1.0326058668253062,1.0326058668253062,0.0,0,False
2023-01-09,1.0326058668253062,1.0326058668253062,0.0,0,False
2023-01-10,1.0326058668253062,1.030340202757072,-0.2194122792658404,2,True
2023-01-11,1.030340202757072,1.0309442379691915,0.058624831924758425,0,True
2023-01-12,1.0309442379691915,1.0309442379691915,0.0,0,False
2023-01-13,1.0309442379691915,1.0309442379691915,0.0,0,False
2023-01-14,1.0309442379691915,1.0309442379691915,0.0,0,False
2023-01-15,1.0309442379691915,1.0300896239833546,-0.08289623767823162,1,True
2023-01-16,1.0300896239833546,1.0300896239833546,0.0,0,False
2023-01-17,1.0300896239833546,1.0300896239833546,0.0,0,False
2023-01-18,1.0300896239833546,1.0300896239833546,0.0,0,False
2023-01-19,1.0300896239833546,1.0249452399596901,-0.49941130401558453,1,True
2023-01-20,1.0249452399596901,1.0249452399596901,0.0,0,False
2023-01-21,1.0249452399596901,1.0262793267275534,0.1301617604386074,1,True
2023-01-22,1.0262793267275534,1.025571163173386,-0.0690030029568578,0,True
2023-01-23,1.025571163173386,1.025571163173386,0.0,0,False
2023-01-24,1.025571163173386,1.031834300380497,0.6106974759051642,1,True
2023-01-25,1.031834300380497,1.0377545244305533,0.5737572445375205,5,True
2023-01-26,1.0377545244305533,1.0377545244305533,0.0,0,False
2023-01-27,1.0377545244305533,1.0377545244305533,0.0,0,False
2023-01-28,1.0377545244305533,1.0377545244305533,0.0,0,False
2023-01-29,1.0377545244305533,1.0377545244305533,0.0,0,False
2023-01-30,1.0377545244305533,1.0379366546441557,0.0175504138324456,2,True
2023-01-31,1.0379366546441557,1.0390744198805977,0.1096179840408551,2,True
2023-02-01,1.0390744198805977,1.0390744198805977,0.0,0,False
2023-02-02,1.0390744198805977,1.0390744198805977,0.0,0,False
2023-02-03,1.0390744198805977,1.0390744198805977,0.0,0,False
2023-02-04,1.0390744198805977,1.0390744198805977,0.0,0,False
2023-02-05,1.0390744198805977,1.0422947430268075,0.30992228127220134,4,True
2023-02-06,1.0422947430268075,1.0549254067061895,1.2118130465383237,1,True
2023-02-07,1.0549254067061895,1.054446893546709,-0.04535990473245599,0,True
2023-02-08,1.054446893546709,1.054446893546709,0.0,0,False
2023-02-09,1.054446893546709,1.054446893546709,0.0,0,False
2023-02-10,1.054446893546709,1.054446893546709,0.0,0,False
2023-02-11,1.054446893546709,1.054446893546709,0.0,0,False
2023-02-12,1.054446893546709,1.054446893546709,0.0,0,False
2023-02-13,1.054446893546709,1.054446893546709,0.0,0,False
2023-02-14,1.054446893546709,1.054446893546709,0.0,0,False
2023-02-15,1.054446893546709,1.054446893546709,0.0,0,False
2023-02-16,1.054446893546709,1.054446893546709,0.0,0,False
2023-02-17,1.054446893546709,1.054446893546709,0.0,0,False
2023-02-18,1.054446893546709,1.054446893546709,0.0,0,False
2023-02-19,1.054446893546709,1.054446893546709,0.0,0,False
2023-02-20,1.054446893546709,1.054446893546709,0.0,0,False
2023-02-21,1.054446893546709,1.0516730113263375,-0.26306514224166966,2,True
2023-02-22,1.0516730113263375,1.0520474168757699,0.03560094681522852,0,True
2023-02-23,1.0520474168757699,1.0639360544287229,1.1300476919812397,1,True
2023-02-24,1.0639360544287229,1.0639360544287229,0.0,0,False
2023-02-25,1.0639360544287229,1.0639360544287229,0.0,0,False
2023-02-26,1.0639360544287229,1.0639360544287229,0.0,0,False
2023-02-27,1.0639360544287229,1.058622069278737,-0.49946471198771825,1,True
2023-02-28,1.058622069278737,1.058622069278737,0.0,0,False
2023-03-01,1.058622069278737,1.058622069278737,0.0,0,False
2023-03-02,1.058622069278737,1.058622069278737,0.0,0,False
2023-03-03,1.058622069278737,1.053605773425665,-0.4738514337311761,5,True
2023-03-04,1.053605773425665,1.053605773425665,0.0,0,False
2023-03-05,1.053605773425665,1.053605773425665,0.0,0,False
2023-03-06,1.053605773425665,1.053605773425665,0.0,0,False
2023-03-07,1.053605773425665,1.053605773425665,0.0,0,False
2023-03-08,1.053605773425665,1.053605773425665,0.0,0,False
2023-03-09,1.053605773425665,1.053605773425665,0.0,0,False
2023-03-10,1.053605773425665,1.053605773425665,0.0,0,False
2023-03-11,1.053605773425665,1.0592338754750017,0.5341753235688529,1,True
2023-03-12,1.0592338754750017,1.057463484981575,-0.16713877212743977,0,True
2023-03-13,1.057463484981575,1.057463484981575,0.0,0,False
2023-03-14,1.057463484981575,1.057463484981575,0.0,0,False
2023-03-15,1.057463484981575,1.057463484981575,0.0,0,False
2023-03-16,1.057463484981575,1.0601527482484905,0.2543126363329984,1,True
2023-03-17,1.0601527482484905,1.0548586301891334,-0.4993731392107126,1,True
2023-03-18,1.0548586301891334,1.0548586301891334,0.0,0,False
2023-03-19,1.0548586301891334,1.0548586301891334,0.0,0,False
2023-03-20,1.0548586301891334,1.0548586301891334,0.0,0,False
2023-03-21,1.0548586301891334,1.0495919181274553,-0.49928131703617096,1,True
2023-03-22,1.0495919181274553,1.0495919181274553,0.0,0,False
2023-03-23,1.0495919181274553,1.0599100458918131,0.9830609007323687,3,True
2023-03-24,1.0599100458918131,1.0568960287570697,-0.28436537104500337,0,True
2023-03-25,1.0568960287570697,1.0517009241875594,-0.49154357932631454,1,True
2023-03-26,1.0517009241875594,1.0517009241875594,0.0,0,False
2023-03-27,1.0517009241875594,1.0517009241875594,0.0,0,False
2023-03-28,1.0517009241875594,1.0517009241875594,0.0,0,False
2023-03-29,1.0517009241875594,1.0517009241875594,0.0,0,False
2023-03-30,1.0517009241875594,1.0517009241875594,0.0,0,False
2023-03-31,1.0517009241875594,1.0517009241875594,0.0,0,False
2023-04-01,1.0517009241875594,1.0517009241875594,0.0,0,False
2023-04-02,1.0517009241875594,1.0517009241875594,0.0,0,False
2023-04-03,1.0517009241875594,1.0517009241875594,0.0,0,False
2023-04-04,1.0517009241875594,1.0517009241875594,0.0,0,False
2023-04-05,1.0517009241875594,1.0517009241875594,0.0,0,False
2023-04-06,1.0517009241875594,1.0464438505566411,-0.49986393565065734,1,True
2023-04-07,1.0464438505566411,1.0441197372960178,-0.22209631786617168,1,True
2023-04-08,1.0441197372960178,1.0441197372960178,0.0,0,False
2023-04-09,1.0441197372960178,1.0441197372960178,0.0,0,False
2023-04-10,1.0441197372960178,1.0441197372960178,0.0,0,False
2023-04-11,1.0441197372960178,1.0441197372960178,0.0,0,False
2023-04-12,1.0441197372960178,1.0441197372960178,0.0,0,False
2023-04-13,1.0441197372960178,1.0441197372960178,0.0,0,False
2023-04-14,1.0441197372960178,1.0441197372960178,0.0,0,False
2023-04-15,1.0441197372960178,1.0441197372960178,0.0,0,False
2023-04-16,1.0441197372960178,1.0441197372960178,0.0,0,False
2023-04-17,1.0441197372960178,1.0441197372960178,0.0,0,False
2023-04-18,1.0441197372960178,1.0441197372960178,0.0,0,False
2023-04-19,1.0441197372960178,1.0337029232330455,-0.9976647017466589,2,True
2023-04-20,1.0337029232330455,1.0337029232330455,0.0,0,False
2023-04-21,1.0337029232330455,1.0337029232330455,0.0,0,False
2023-04-22,1.0337029232330455,1.0337029232330455,0.0,0,False
2023-04-23,1.0337029232330455,1.0337029232330455,0.0,0,False
2023-04-24,1.0337029232330455,1.0337029232330455,0.0,0,False
2023-04-25,1.0337029232330455,1.0337029232330455,0.0,0,False
2023-04-26,1.0337029232330455,1.0337029232330455,0.0,0,False
2023-04-27,1.0337029232330455,1.0337029232330455,0.0,0,False
2023-04-28,1.0337029232330455,1.0337029232330455,0.0,0,False
2023-04-29,1.0337029232330455,1.0337029232330455,0.0,0,False
2023-04-30,1.0337029232330455,1.0337029232330455,0.0,0,False
2023-05-01,1.0337029232330455,1.0337029232330455,0.0,0,False
2023-05-02,1.0337029232330455,1.0337029232330455,0.0,0,False
2023-05-03,1.0337029232330455,1.0337029232330455,0.0,0,False
2023-05-04,1.0337029232330455,1.0337029232330455,0.0,0,False
2023-05-05,1.0337029232330455,1.0337029232330455,0.0,0,False
2023-05-06,1.0337029232330455,1.0337029232330455,0.0,0,False
2023-05-07,1.0337029232330455,1.0337029232330455,0.0,0,False
2023-05-08,1.0337029232330455,1.029987893876428,-0.35939042766738316,5,True
2023-05-09,1.029987893876428,1.026232311776331,-0.36462390698229763,2,True
2023-05-10,1.026232311776331,1.0277743621585482,0.15026328488410012,1,True
2023-05-11,1.0277743621585482,1.0257032141260314,-0.20151777557156914,0,True
2023-05-12,1.0257032141260314,1.0257032141260314,0.0,0,False
2023-05-13,1.0257032141260314,1.0257032141260314,0.0,0,False
2023-05-14,1.0257032141260314,1.0257032141260314,0.0,0,False
2023-05-15,1.0257032141260314,1.0257032141260314,0.0,0,False
2023-05-16,1.0257032141260314,1.0257032141260314,0.0,0,False
2023-05-17,1.0257032141260314,1.0257032141260314,0.0,0,False
2023-05-18,1.0257032141260314,1.0257032141260314,0.0,0,False
2023-05-19,1.0257032141260314,1.0257032141260314,0.0,0,False
2023-05-20,1.0257032141260314,1.0257032141260314,0.0,0,False
2023-05-21,1.0257032141260314,1.0257032141260314,0.0,0,False
2023-05-22,1.0257032141260314,1.0257032141260314,0.0,0,False
2023-05-23,1.0257032141260314,1.0257032141260314,0.0,0,False
2023-05-24,1.0257032141260314,1.0257032141260314,0.0,0,False
2023-05-25,1.0257032141260314,1.0257032141260314,0.0,0,False
2023-05-26,1.0257032141260314,1.0277339476284932,0.19798451194210642,1,True
2023-05-27,1.0277339476284932,1.0312603192690741,0.34312106248099994,0,True
2023-05-28,1.0312603192690741,1.0312603192690741,0.0,0,False
2023-05-29,1.0312603192690741,1.0312603192690741,0.0,0,False
2023-05-30,1.0312603192690741,1.0312603192690741,0.0,0,False
2023-05-31,1.0312603192690741,1.0312603192690741,0.0,0,False
2023-06-01,1.0312603192690741,1.0312603192690741,0.0,0,False
2023-06-02,1.0312603192690741,1.0443856775286784,1.2727492772055093,1,True
2023-06-03,1.0443856775286784,1.0443856775286784,0.0,0,False
2023-06-04,1.0443856775286784,1.0443856775286784,0.0,0,False
2023-06-05,1.0443856775286784,1.0443856775286784,0.0,0,False
2023-06-06,1.0443856775286784,1.036311835686474,-0.7730709081830267,4,True
2023-06-07,1.036311835686474,1.036311835686474,0.0,0,False
2023-06-08,1.036311835686474,1.032444778679554,-0.373155731098862,1,True
2023-06-09,1.032444778679554,1.032444778679554,0.0,0,False
2023-06-10,1.032444778679554,1.0537220268571348,2.060860650076912,5,True
2023-06-11,1.0537220268571348,1.0529491302860656,-0.07334918995424156,0,True
2023-06-12,1.0529491302860656,1.0529491302860656,0.0,0,False
2023-06-13,1.0529491302860656,1.0529491302860656,0.0,0,False
2023-06-14,1.0529491302860656,1.0529491302860656,0.0,0,False
2023-06-15,1.0529491302860656,1.0529491302860656,0.0,0,False
2023-06-16,1.0529491302860656,1.0529491302860656,0.0,0,False
2023-06-17,1.0529491302860656,1.0529491302860656,0.0,0,False
2023-06-18,1.0529491302860656,1.0529491302860656,0.0,0,False
2023-06-19,1.0529491302860656,1.0585226167463995,0.5293215313088906,1,True
2023-06-20,1.0585226167463995,1.0593968894093573,0.08259366867806595,0,True
2023-06-21,1.0593968894093573,1.0593968894093573,0.0,0,False
2023-06-22,1.0593968894093573,1.0579133028467997,-0.14004067572679357,1,True
2023-06-23,1.0579133028467997,1.0579133028467997,0.0,0,False
2023-06-24,1.0579133028467997,1.0579133028467997,0.0,0,False
2023-06-25,1.0579133028467997,1.0579133028467997,0.0,0,False
2023-06-26,1.0579133028467997,1.0579133028467997,0.0,0,False
2023-06-27,1.0579133028467997,1.0579133028467997,0.0,0,False
2023-06-28,1.0579133028467997,1.0579133028467997,0.0,0,False
2023-06-29,1.0579133028467997,1.0579133028467997,0.0,0,False
2023-06-30,1.0579133028467997,1.0368137510415518,-1.994449994008951,4,True
2023-07-01,1.0368137510415518,1.03163598235738,-0.4993923623187291,1,True
2023-07-02,1.03163598235738,1.03163598235738,0.0,0,False
2023-07-03,1.03163598235738,1.03163598235738,0.0,0,False
2023-07-04,1.03163598235738,1.03163598235738,0.0,0,False
2023-07-05,1.03163598235738,1.03163598235738,0.0,0,False
2023-07-06,1.03163598235738,1.03163598235738,0.0,0,False
2023-07-07,1.03163598235738,1.03163598235738,0.0,0,False
2023-07-08,1.03163598235738,1.03163598235738,0.0,0,False
2023-07-09,1.03163598235738,1.03163598235738,0.0,0,False
2023-07-10,1.03163598235738,1.03163598235738,0.0,0,False
2023-07-11,1.03163598235738,1.03163598235738,0.0,0,False
2023-07-12,1.03163598235738,1.03163598235738,0.0,0,False
2023-07-13,1.03163598235738,1.03163598235738,0.0,0,False
2023-07-14,1.03163598235738,1.03163598235738,0.0,0,False
2023-07-15,1.03163598235738,1.03163598235738,0.0,0,False
2023-07-16,1.03163598235738,1.03163598235738,0.0,0,False
2023-07-17,1.03163598235738,1.03163598235738,0.0,0,False
2023-07-18,1.03163598235738,1.03163598235738,0.0,0,False
2023-07-19,1.03163598235738,1.03163598235738,0.0,0,False
2023-07-20,1.03163598235738,1.03163598235738,0.0,0,False
2023-07-21,1.03163598235738,1.03163598235738,0.0,0,False
2023-07-22,1.03163598235738,1.03163598235738,0.0,0,False
2023-07-23,1.03163598235738,1.03163598235738,0.0,0,False
2023-07-24,1.03163598235738,1.0315994624827738,-0.0035399962031834598,1,True
2023-07-25,1.0315994624827738,1.0301121119520837,-0.14417907189583357,0,True
2023-07-26,1.0301121119520837,1.0301121119520837,0.0,0,False
2023-07-27,1.0301121119520837,1.0301121119520837,0.0,0,False
2023-07-28,1.0301121119520837,1.0301121119520837,0.0,0,False
2023-07-29,1.0301121119520837,1.0301121119520837,0.0,0,False
2023-07-30,1.0301121119520837,1.0301121119520837,0.0,0,False
2023-07-31,1.0301121119520837,1.0301121119520837,0.0,0,False
2023-08-01,1.0301121119520837,1.0301121119520837,0.0,0,False
2023-08-02,1.0301121119520837,1.0301121119520837,0.0,0,False
2023-08-03,1.0301121119520837,1.0301121119520837,0.0,0,False
2023-08-04,1.0301121119520837,1.0301121119520837,0.0,0,False
2023-08-05,1.0301121119520837,1.0301121119520837,0.0,0,False
2023-08-06,1.0301121119520837,1.0301121119520837,0.0,0,False
2023-08-07,1.0301121119520837,1.0301121119520837,0.0,0,False
2023-08-08,1.0301121119520837,1.0301121119520837,0.0,0,False
2023-08-09,1.0301121119520837,1.0301121119520837,0.0,0,False
2023-08-10,1.0301121119520837,1.0301121119520837,0.0,0,False
2023-08-11,1.0301121119520837,1.0301121119520837,0.0,0,False
2023-08-12,1.0301121119520837,1.0301121119520837,0.0,0,False
2023-08-13,1.0301121119520837,1.0301121119520837,0.0,0,False
2023-08-14,1.0301121119520837,1.0301121119520837,0.0,0,False
2023-08-15,1.0301121119520837,1.0301121119520837,0.0,0,False
2023-08-16,1.0301121119520837,1.0387661097563137,0.840102519310304,4,True
2023-08-17,1.0387661097563137,1.0387661097563137,0.0,0,False
2023-08-18,1.0387661097563137,1.084769036067795,4.428612550930566,4,True
2023-08-19,1.084769036067795,1.084769036067795,0.0,0,False
2023-08-20,1.084769036067795,1.084769036067795,0.0,0,False
2023-08-21,1.084769036067795,1.084769036067795,0.0,0,False
2023-08-22,1.084769036067795,1.084769036067795,0.0,0,False
2023-08-23,1.084769036067795,1.084769036067795,0.0,0,False
2023-08-24,1.084769036067795,1.084769036067795,0.0,0,False
2023-08-25,1.084769036067795,1.0690249733601536,-1.4513746414363538,3,True
2023-08-26,1.0690249733601536,1.0690249733601536,0.0,0,False
2023-08-27,1.0690249733601536,1.0690249733601536,0.0,0,False
2023-08-28,1.0690249733601536,1.0690249733601536,0.0,0,False
2023-08-29,1.0690249733601536,1.0690249733601536,0.0,0,False
2023-08-30,1.0690249733601536,1.0690249733601536,0.0,0,False
2023-08-31,1.0690249733601536,1.0690249733601536,0.0,0,False
2023-09-01,1.0690249733601536,1.0690249733601536,0.0,0,False
2023-09-02,1.0690249733601536,1.071085056276054,0.19270671567430675,1,True
2023-09-03,1.071085056276054,1.0717104249427472,0.05838646175004847,0,True
2023-09-04,1.0717104249427472,1.0717104249427472,0.0,0,False
2023-09-05,1.0717104249427472,1.0717104249427472,0.0,0,False
2023-09-06,1.0717104249427472,1.0717104249427472,0.0,0,False
2023-09-07,1.0717104249427472,1.0717104249427472,0.0,0,False
2023-09-08,1.0717104249427472,1.0717104249427472,0.0,0,False
2023-09-09,1.0717104249427472,1.0717104249427472,0.0,0,False
2023-09-10,1.0717104249427472,1.0704882237087612,-0.11404211487924254,2,True
2023-09-11,1.0704882237087612,1.0701397797676813,-0.03255000226650706,1,True
2023-09-12,1.0701397797676813,1.0701397797676813,0.0,0,False
2023-09-13,1.0701397797676813,1.0667528377755535,-0.31649528932220505,1,True
2023-09-14,1.0667528377755535,1.0667528377755535,0.0,0,False
2023-09-15,1.0667528377755535,1.0667528377755535,0.0,0,False
2023-09-16,1.0667528377755535,1.0667528377755535,0.0,0,False
2023-09-17,1.0667528377755535,1.0667528377755535,0.0,0,False
2023-09-18,1.0667528377755535,1.0614248704817577,-0.4994565849860688,1,True
2023-09-19,1.0614248704817577,1.0614248704817577,0.0,0,False
2023-09-20,1.0614248704817577,1.064075512118419,0.24972484726670796,1,True
2023-09-21,1.064075512118419,1.0672926296805176,0.3023392161044747,0,True
2023-09-22,1.0672926296805176,1.0672926296805176,0.0,0,False
2023-09-23,1.0672926296805176,1.0672926296805176,0.0,0,False
2023-09-24,1.0672926296805176,1.0672926296805176,0.0,0,False
2023-09-25,1.0672926296805176,1.0672926296805176,0.0,0,False
2023-09-26,1.0672926296805176,1.0683138387373663,0.09568219890681018,1,True
2023-09-27,1.0683138387373663,1.0668960384150417,-0.1327138403449224,0,True
2023-09-28,1.0668960384150417,1.0668960384150417,0.0,0,False
2023-09-29,1.0668960384150417,1.0668960384150417,0.0,0,False
2023-09-30,1.0668960384150417,1.0668960384150417,0.0,0,False
2023-10-01,1.0668960384150417,1.0668960384150417,0.0,0,False
2023-10-02,1.0668960384150417,1.0668960384150417,0.0,0,False
2023-10-03,1.0668960384150417,1.0673067765672164,0.03849842321890229,1,True
2023-10-04,1.0673067765672164,1.064713143386121,-0.2430072813214279,0,True
2023-10-05,1.064713143386121,1.064713143386121,0.0,0,False
2023-10-06,1.064713143386121,1.064713143386121,0.0,0,False
2023-10-07,1.064713143386121,1.064713143386121,0.0,0,False
2023-10-08,1.064713143386121,1.064713143386121,0.0,0,False
2023-10-09,1.064713143386121,1.064713143386121,0.0,0,False
2023-10-10,1.064713143386121,1.064713143386121,0.0,0,False
2023-10-11,1.064713143386121,1.064713143386121,0.0,0,False
2023-10-12,1.064713143386121,1.064713143386121,0.0,0,False
2023-10-13,1.064713143386121,1.064713143386121,0.0,0,False
2023-10-14,1.064713143386121,1.064713143386121,0.0,0,False
2023-10-15,1.064713143386121,1.0647624134746245,0.004627545814539502,1,True
2023-10-16,1.0647624134746245,1.0656414337973645,0.08255553648550684,1,True
2023-10-17,1.0656414337973645,1.0598079520627484,-0.5474150637920339,1,True
2023-10-18,1.0598079520627484,1.0598079520627484,0.0,0,False
2023-10-19,1.0598079520627484,1.0503502229855641,-0.8924002748588844,2,True
2023-10-20,1.0503502229855641,1.0503502229855641,0.0,0,False
2023-10-21,1.0503502229855641,1.0513889722108127,0.09889551147006514,1,True
2023-10-22,1.0513889722108127,1.0513889722108127,0.0,0,False
2023-10-23,1.0513889722108127,1.0513889722108127,0.0,0,False
2023-10-24,1.0513889722108127,1.0513889722108127,0.0,0,False
2023-10-25,1.0513889722108127,1.0513889722108127,0.0,0,False
2023-10-26,1.0513889722108127,1.0583861146595095,0.6655141563814748,2,True
2023-10-27,1.0583861146595095,1.0594171248972517,0.09741343196607577,1,True
2023-10-28,1.0594171248972517,1.060792192507735,0.1297947312883574,0,True
2023-10-29,1.060792192507735,1.060792192507735,0.0,0,False
2023-10-30,1.060792192507735,1.060792192507735,0.0,0,False
2023-10-31,1.060792192507735,1.060792192507735,0.0,0,False
2023-11-01,1.060792192507735,1.060792192507735,0.0,0,False
2023-11-02,1.060792192507735,1.060792192507735,0.0,0,False
2023-11-03,1.060792192507735,1.060792192507735,0.0,0,False
2023-11-04,1.060792192507735,1.060792192507735,0.0,0,False
2023-11-05,1.060792192507735,1.060792192507735,0.0,0,False
2023-11-06,1.060792192507735,1.060792192507735,0.0,0,False
2023-11-07,1.060792192507735,1.0554926125261463,-0.4995870085601206,1,True
2023-11-08,1.0554926125261463,1.0554926125261463,0.0,0,False
2023-11-09,1.0554926125261463,1.058926614323662,0.3253458865331904,3,True
2023-11-10,1.058926614323662,1.0729616530643014,1.3254023981259078,4,True
2023-11-11,1.0729616530643014,1.0729616530643014,0.0,0,False
2023-11-12,1.0729616530643014,1.0729616530643014,0.0,0,False
2023-11-13,1.0729616530643014,1.0729616530643014,0.0,0,False
2023-11-14,1.0729616530643014,1.0729616530643014,0.0,0,False
2023-11-15,1.0729616530643014,1.0729616530643014,0.0,0,False
2023-11-16,1.0729616530643014,1.0729616530643014,0.0,0,False
2023-11-17,1.0729616530643014,1.0729616530643014,0.0,0,False
2023-11-18,1.0729616530643014,1.0729616530643014,0.0,0,False
2023-11-19,1.0729616530643014,1.0729616530643014,0.0,0,False
2023-11-20,1.0729616530643014,1.0748197402190347,0.17317367768239222,1,True
2023-11-21,1.0748197402190347,1.0709416740797786,-0.36081084056623913,0,True
2023-11-22,1.0709416740797786,1.0673257068240622,-0.3376437151746292,1,True
2023-11-23,1.0673257068240622,1.0673257068240622,0.0,0,False
2023-11-24,1.0673257068240622,1.0673257068240622,0.0,0,False
2023-11-25,1.0673257068240622,1.0715114195594548,0.39216826772097146,1,True
2023-11-26,1.0715114195594548,1.0715114195594548,0.0,0,False
2023-11-27,1.0715114195594548,1.0661607303535123,-0.4993590463219122,1,True
2023-11-28,1.0661607303535123,1.0661607303535123,0.0,0,False
2023-11-29,1.0661607303535123,1.0631659303529044,-0.28089573319914907,1,True
2023-11-30,1.0631659303529044,1.0631659303529044,0.0,0,False
2023-12-01,1.0631659303529044,1.0631659303529044,0.0,0,False
2023-12-02,1.0631659303529044,1.0631659303529044,0.0,0,False
2023-12-03,1.0631659303529044,1.0640319565696197,0.08145729579838168,1,True
2023-12-04,1.0640319565696197,1.0740819912980575,0.9445237679551077,4,True
2023-12-05,1.0740819912980575,1.0786333948481293,0.4237482414700233,0,True
2023-12-06,1.0786333948481293,1.0786333948481293,0.0,0,False
2023-12-07,1.0786333948481293,1.0732458954153286,-0.49947456276924207,1,True
2023-12-08,1.0732458954153286,1.0732458954153286,0.0,0,False
2023-12-09,1.0732458954153286,1.0732458954153286,0.0,0,False
2023-12-10,1.0732458954153286,1.0732458954153286,0.0,0,False
2023-12-11,1.0732458954153286,1.0865147673611824,1.236331021859538,4,True
2023-12-12,1.0865147673611824,1.0865147673611824,0.0,0,False
2023-12-13,1.0865147673611824,1.0845082513792987,-0.18467452465067424,1,True
2023-12-14,1.0845082513792987,1.0845082513792987,0.0,0,False
2023-12-15,1.0845082513792987,1.0845082513792987,0.0,0,False
2023-12-16,1.0845082513792987,1.0845082513792987,0.0,0,False
2023-12-17,1.0845082513792987,1.0845082513792987,0.0,0,False
2023-12-18,1.0845082513792987,1.0884378777890822,0.3623417714697652,1,True
2023-12-19,1.0884378777890822,1.0856396030707836,-0.25709089837838706,0,True
2023-12-20,1.0856396030707836,1.0856396030707836,0.0,0,False
2023-12-21,1.0856396030707836,1.0856396030707836,0.0,0,False
2023-12-22,1.0856396030707836,1.0856396030707836,0.0,0,False
2023-12-23,1.0856396030707836,1.0856396030707836,0.0,0,False
2023-12-24,1.0856396030707836,1.0840978898554,-0.14200966978570317,1,True
2023-12-25,1.0840978898554,1.085147406388657,0.09681012601150396,0,True
2023-12-26,1.085147406388657,1.085147406388657,0.0,0,False
2023-12-27,1.085147406388657,1.079918780103621,-0.4818355786737616,2,True
2023-12-28,1.079918780103621,1.079918780103621,0.0,0,False
2023-12-29,1.079918780103621,1.079918780103621,0.0,0,False
2023-12-30,1.079918780103621,1.079918780103621,0.0,0,False
2023-12-31,1.079918780103621,1.079918780103621,0.0,0,False
