day,start_equity,end_equity,return_pct,entries,active
2024-01-02,1.0111757462734035,1.0150980372001075,0.38789408677564197,1,True
2024-01-03,1.0150980372001075,0.9913796148284959,-2.336564696453647,4,True
2024-01-04,0.9913796148284959,0.9985342203090118,0.7216817224705352,8,True
2024-01-05,0.9985342203090118,1.0024174370771246,0.38889170637648185,7,True
2024-01-06,1.0024174370771246,1.0120006161503423,0.9560068209867323,7,True
2024-01-07,1.0120006161503423,1.0424922954485296,3.013009953904766,8,True
2024-01-08,1.0424922954485296,1.0180197842104222,-2.347500441485584,3,True
2024-01-09,1.0180197842104222,1.008395566519583,-0.9453861152908472,5,True
2024-01-10,1.008395566519583,0.9861605663558436,-2.204987893836363,6,True
2024-01-11,0.9861605663558436,1.0140118402501614,2.8242128964085955,5,True
2024-01-12,1.0140118402501614,0.9929237734355267,-2.0796667235593813,1,True
2024-01-13,0.9929237734355267,1.003570551142778,1.0722653633735924,8,True
2024-01-14,1.003570551142778,1.002232918128463,-0.133287391981729,0,True
2024-01-15,1.002232918128463,1.010450842124921,0.8199614927639542,4,True
2024-01-16,1.010450842124921,1.0040200205648715,-0.6364309169682891,1,True
2024-01-17,1.0040200205648715,1.0122612082517612,0.8208190591909803,0,True
2024-01-18,1.0122612082517612,1.0060342436859493,-0.6151539261853523,2,True
2024-01-19,1.0060342436859493,0.9971759921999775,-0.8805119250729021,1,True
2024-01-20,0.9971759921999775,1.0236995958892718,2.659871867831254,7,True
2024-01-21,1.0236995958892718,1.020785757014258,-0.28463808002997526,3,True
2024-01-22,1.020785757014258,1.0001846192578734,-2.0181646946800913,3,True
2024-01-23,1.0001846192578734,0.9759385023194563,-2.4241641464560204,9,True
2024-01-24,0.9759385023194563,0.9710716366721094,-0.49868568929088974,1,True
2024-01-25,0.9710716366721094,0.9564113700506108,-1.509699806673348,4,True
2024-01-26,0.9564113700506108,0.9517790176707311,-0.48434727199391236,0,True
2024-01-27,0.9517790176707311,0.9517790176707311,0.0,0,False
2024-01-28,0.9517790176707311,0.9473392897349543,-0.4664662545978526,2,True
2024-01-29,0.9473392897349543,0.947233020376347,-0.0112176661264618,0,True
2024-01-30,0.947233020376347,0.947233020376347,0.0,0,False
2024-01-31,0.947233020376347,0.9425149143762712,-0.4980934889918909,1,True
2024-02-01,0.9425149143762712,0.9425149143762712,0.0,0,False
2024-02-02,0.9425149143762712,0.9426211245271354,0.011268803203456912,3,True
2024-02-03,0.9426211245271354,0.9452079325484606,0.2744271217794747,1,True
2024-02-04,0.9452079325484606,0.9459188349703261,0.07521122045059947,1,True
2024-02-05,0.9459188349703261,0.9459188349703261,0.0,0,False
2024-02-06,0.9459188349703261,0.9423615457470734,-0.3760670674629596,2,True
2024-02-07,0.9423615457470734,0.9388833398532249,-0.36909463353484995,5,True
2024-02-08,0.9388833398532249,0.9567352404901568,1.9013971043221112,1,True
2024-02-09,0.9567352404901568,0.9664385851603832,1.0142142004986754,0,True
2024-02-10,0.9664385851603832,0.9633641837143591,-0.3181165873580971,2,True
2024-02-11,0.9633641837143591,0.9619768824825177,-0.1440058967619562,0,True
2024-02-12,0.9619768824825177,0.9635388463811002,0.16237021149112518,3,True
2024-02-13,0.9635388463811002,0.964470549611752,0.09669596966963567,0,True
2024-02-14,0.964470549611752,0.965768926431053,0.13462068072722655,2,True
2024-02-15,0.965768926431053,0.9645956056734407,-0.12149083755969015,6,True
2024-02-16,0.9645956056734407,0.9666617160699263,0.21419446494814753,5,True
2024-02-17,0.9666617160699263,0.9552910531811105,-1.1762814953554357,5,True
2024-02-18,0.9552910531811105,0.952127867086189,-0.3311227593295385,4,True
2024-02-19,0.952127867086189,0.9489048044145589,-0.33851153642773246,6,True
2024-02-20,0.9489048044145589,0.9442853837158693,-0.4868160301432556,9,True
2024-02-21,0.9442853837158693,0.934793477427179,-1.0051946638566678,7,True
2024-02-22,0.934793477427179,0.9474055705914219,1.3491849770876696,3,True
2024-02-23,0.9474055705914219,0.9401791731928382,-0.7627564817961452,7,True
2024-02-24,0.9401791731928382,0.9426821156511596,0.266219730205397,8,True
2024-02-25,0.9426821156511596,0.9471897223426444,0.4781682623066663,8,True
2024-02-26,0.9471897223426444,0.9520576075680275,0.513929269982305,7,True
2024-02-27,0.9520576075680275,0.9531456151019461,0.11427959035985591,4,True
2024-02-28,0.9531456151019461,0.9768225406739541,2.484082725332115,6,True
2024-02-29,0.9768225406739541,0.9568125720395495,-2.0484753167754333,7,True
2024-03-01,0.9568125720395495,0.9612634242679275,0.4651749316891385,10,True
2024-03-02,0.9612634242679275,0.9604296059558458,-0.08674191600671621,9,True
2024-03-03,0.9604296059558458,0.9602791580369806,-0.015664648187874164,10,True
2024-03-04,0.9602791580369806,0.9879215411633853,2.878577848436459,4,True
2024-03-05,0.9879215411633853,0.9795271969101945,-0.8496974611268748,9,True
2024-03-06,0.9795271969101945,0.9518424209818502,-2.8263407096477455,11,True
2024-03-07,0.9518424209818502,0.9493584525086683,-0.2609642540011614,10,True
2024-03-08,0.9493584525086683,0.9476754752573883,-0.17727521641934807,6,True
2024-03-09,0.9476754752573883,0.9504174503251362,0.289336923803285,7,True
2024-03-10,0.9504174503251362,0.9613679970508374,1.1521828352325514,7,True
2024-03-11,0.9613679970508374,0.9709387218207399,0.9955318670126667,8,True
2024-03-12,0.9709387218207399,0.9737419650495266,0.2887147423196623,5,True
2024-03-13,0.9737419650495266,0.9654549487787102,-0.8510484880247415,6,True
2024-03-14,0.9654549487787102,0.9660470341363616,0.06132708298822731,5,True
2024-03-15,0.9660470341363616,0.9437576148288447,-2.307280962509606,11,True
2024-03-16,0.9437576148288447,0.942476631849838,-0.13573220060735247,4,True
2024-03-17,0.942476631849838,0.9278981801702822,-1.546823675717246,8,True
2024-03-18,0.9278981801702822,0.9323728213148839,0.4822340683737991,4,True
2024-03-19,0.9323728213148839,0.9123335523973753,-2.1492763902371204,11,True
2024-03-20,0.9123335523973753,0.8996430822275195,-1.390990185169505,7,True
2024-03-21,0.8996430822275195,0.9169181695081993,1.920215652401458,6,True
2024-03-22,0.9169181695081993,0.9139858010916312,-0.31980699195227613,8,True
2024-03-23,0.9139858010916312,0.9254533439354611,1.2546740693491598,5,True
2024-03-24,0.9254533439354611,0.9195168470638618,-0.6414690605962337,6,True
2024-03-25,0.9195168470638618,0.9306914793506752,1.2152721641256914,4,True
2024-03-26,0.9306914793506752,0.9520671184949739,2.2967481295963044,8,True
2024-03-27,0.9520671184949739,0.9464313126508664,-0.5919546778400009,7,True
2024-03-28,0.9464313126508664,0.932591916136234,-1.4622716228470445,6,True
2024-03-29,0.932591916136234,0.9206979634889093,-1.2753651883024908,7,True
2024-03-30,0.9206979634889093,0.9144056880306164,-0.6834245005222783,2,True
2024-03-31,0.9144056880306164,0.9121258896520275,-0.24932023153738658,1,True
2024-04-01,0.9121258896520275,0.908901711938546,-0.3534794648479389,6,True
2024-04-02,0.908901711938546,0.9030802038042326,-0.6404991934603088,9,True
2024-04-03,0.9030802038042326,0.9075968843936006,0.5001416895577426,4,True
2024-04-04,0.9075968843936006,0.9057203482193718,-0.20675877214835214,3,True
2024-04-05,0.9057203482193718,0.8917792831936492,-1.5392240058568207,4,True
2024-04-06,0.8917792831936492,0.8917792831936492,0.0,0,False
2024-04-07,0.8917792831936492,0.8917792831936492,0.0,0,False
2024-04-08,0.8917792831936492,0.8917792831936492,0.0,0,False
2024-04-09,0.8917792831936492,0.8917792831936492,0.0,0,False
2024-04-10,0.8917792831936492,0.8917792831936492,0.0,0,False
2024-04-11,0.8917792831936492,0.8917792831936492,0.0,0,False
2024-04-12,0.8917792831936492,0.8917792831936492,0.0,0,False
2024-04-13,0.8917792831936492,0.8917792831936492,0.0,0,False
2024-04-14,0.8917792831936492,0.8917792831936492,0.0,0,False
2024-04-15,0.8917792831936492,0.8917792831936492,0.0,0,False
2024-04-16,0.8917792831936492,0.8917792831936492,0.0,0,False
2024-04-17,0.8917792831936492,0.8917792831936492,0.0,0,False
2024-04-18,0.8917792831936492,0.8917792831936492,0.0,0,False
2024-04-19,0.8917792831936492,0.8917792831936492,0.0,0,False
2024-04-20,0.8917792831936492,0.8917792831936492,0.0,0,False
2024-04-21,0.8917792831936492,0.8917792831936492,0.0,0,False
2024-04-22,0.8917792831936492,0.8917792831936492,0.0,0,False
2024-04-23,0.8917792831936492,0.8917792831936492,0.0,0,False
2024-04-24,0.8917792831936492,0.8917792831936492,0.0,0,False
2024-04-25,0.8917792831936492,0.8917792831936492,0.0,0,False
2024-04-26,0.8917792831936492,0.8917792831936492,0.0,0,False
2024-04-27,0.8917792831936492,0.8917792831936492,0.0,0,False
2024-04-28,0.8917792831936492,0.8917792831936492,0.0,0,False
2024-04-29,0.8917792831936492,0.8917792831936492,0.0,0,False
2024-04-30,0.8917792831936492,0.8917792831936492,0.0,0,False
2024-05-01,0.8917792831936492,0.8917792831936492,0.0,0,False
2024-05-02,0.8917792831936492,0.8917792831936492,0.0,0,False
2024-05-03,0.8917792831936492,0.8917792831936492,0.0,0,False
2024-05-04,0.8917792831936492,0.8917792831936492,0.0,0,False
2024-05-05,0.8917792831936492,0.8917792831936492,0.0,0,False
2024-05-06,0.8917792831936492,0.8917792831936492,0.0,0,False
2024-05-07,0.8917792831936492,0.8917792831936492,0.0,0,False
2024-05-08,0.8917792831936492,0.8917792831936492,0.0,0,False
2024-05-09,0.8917792831936492,0.8917792831936492,0.0,0,False
2024-05-10,0.8917792831936492,0.8917792831936492,0.0,0,False
2024-05-11,0.8917792831936492,0.8917792831936492,0.0,0,False
2024-05-12,0.8917792831936492,0.8917792831936492,0.0,0,False
2024-05-13,0.8917792831936492,0.8917792831936492,0.0,0,False
2024-05-14,0.8917792831936492,0.8917792831936492,0.0,0,False
2024-05-15,0.8917792831936492,0.8917792831936492,0.0,0,False
2024-05-16,0.8917792831936492,0.8917792831936492,0.0,0,False
2024-05-17,0.8917792831936492,0.8917792831936492,0.0,0,False
2024-05-18,0.8917792831936492,0.8917792831936492,0.0,0,False
2024-05-19,0.8917792831936492,0.8917792831936492,0.0,0,False
2024-05-20,0.8917792831936492,0.8917792831936492,0.0,0,False
2024-05-21,0.8917792831936492,0.8917792831936492,0.0,0,False
2024-05-22,0.8917792831936492,0.8917792831936492,0.0,0,False
2024-05-23,0.8917792831936492,0.8917792831936492,0.0,0,False
2024-05-24,0.8917792831936492,0.8917792831936492,0.0,0,False
2024-05-25,0.8917792831936492,0.8917792831936492,0.0,0,False
2024-05-26,0.8917792831936492,0.8917792831936492,0.0,0,False
2024-05-27,0.8917792831936492,0.8917792831936492,0.0,0,False
2024-05-28,0.8917792831936492,0.8917792831936492,0.0,0,False
2024-05-29,0.8917792831936492,0.8917792831936492,0.0,0,False
2024-05-30,0.8917792831936492,0.8917792831936492,0.0,0,False
2024-05-31,0.8917792831936492,0.8917792831936492,0.0,0,False
2024-06-01,0.8917792831936492,0.8917792831936492,0.0,0,False
2024-06-02,0.8917792831936492,0.8917792831936492,0.0,0,False
2024-06-03,0.8917792831936492,0.8917792831936492,0.0,0,False
2024-06-04,0.8917792831936492,0.8917792831936492,0.0,0,False
2024-06-05,0.8917792831936492,0.8917792831936492,0.0,0,False
2024-06-06,0.8917792831936492,0.8917792831936492,0.0,0,False
2024-06-07,0.8917792831936492,0.8917792831936492,0.0,0,False
2024-06-08,0.8917792831936492,0.8917792831936492,0.0,0,False
2024-06-09,0.8917792831936492,0.8917792831936492,0.0,0,False
2024-06-10,0.8917792831936492,0.8917792831936492,0.0,0,False
2024-06-11,0.8917792831936492,0.8917792831936492,0.0,0,False
2024-06-12,0.8917792831936492,0.8917792831936492,0.0,0,False
2024-06-13,0.8917792831936492,0.8917792831936492,0.0,0,False
2024-06-14,0.8917792831936492,0.8917792831936492,0.0,0,False
2024-06-15,0.8917792831936492,0.8917792831936492,0.0,0,False
2024-06-16,0.8917792831936492,0.8917792831936492,0.0,0,False
2024-06-17,0.8917792831936492,0.8917792831936492,0.0,0,False
2024-06-18,0.8917792831936492,0.8917792831936492,0.0,0,False
2024-06-19,0.8917792831936492,0.8917792831936492,0.0,0,False
2024-06-20,0.8917792831936492,0.8917792831936492,0.0,0,False
2024-06-21,0.8917792831936492,0.8917792831936492,0.0,0,False
2024-06-22,0.8917792831936492,0.8917792831936492,0.0,0,False
2024-06-23,0.8917792831936492,0.8917792831936492,0.0,0,False
2024-06-24,0.8917792831936492,0.8917792831936492,0.0,0,False
2024-06-25,0.8917792831936492,0.8917792831936492,0.0,0,False
2024-06-26,0.8917792831936492,0.8917792831936492,0.0,0,False
2024-06-27,0.8917792831936492,0.8917792831936492,0.0,0,False
2024-06-28,0.8917792831936492,0.8917792831936492,0.0,0,False
2024-06-29,0.8917792831936492,0.8917792831936492,0.0,0,False
2024-06-30,0.8917792831936492,0.8917792831936492,0.0,0,False
2024-07-01,0.8917792831936492,0.8917792831936492,0.0,0,False
2024-07-02,0.8917792831936492,0.8917792831936492,0.0,0,False
2024-07-03,0.8917792831936492,0.8917792831936492,0.0,0,False
2024-07-04,0.8917792831936492,0.8917792831936492,0.0,0,False
2024-07-05,0.8917792831936492,0.8917792831936492,0.0,0,False
2024-07-06,0.8917792831936492,0.8917792831936492,0.0,0,False
2024-07-07,0.8917792831936492,0.8917792831936492,0.0,0,False
2024-07-08,0.8917792831936492,0.8917792831936492,0.0,0,False
2024-07-09,0.8917792831936492,0.8917792831936492,0.0,0,False
2024-07-10,0.8917792831936492,0.8917792831936492,0.0,0,False
2024-07-11,0.8917792831936492,0.8917792831936492,0.0,0,False
2024-07-12,0.8917792831936492,0.8917792831936492,0.0,0,False
2024-07-13,0.8917792831936492,0.8917792831936492,0.0,0,False
2024-07-14,0.8917792831936492,0.8917792831936492,0.0,0,False
2024-07-15,0.8917792831936492,0.8917792831936492,0.0,0,False
2024-07-16,0.8917792831936492,0.8917792831936492,0.0,0,False
2024-07-17,0.8917792831936492,0.8917792831936492,0.0,0,False
2024-07-18,0.8917792831936492,0.8917792831936492,0.0,0,False
2024-07-19,0.8917792831936492,0.8917792831936492,0.0,0,False
2024-07-20,0.8917792831936492,0.8917792831936492,0.0,0,False
2024-07-21,0.8917792831936492,0.8917792831936492,0.0,0,False
2024-07-22,0.8917792831936492,0.8917792831936492,0.0,0,False
2024-07-23,0.8917792831936492,0.8917792831936492,0.0,0,False
2024-07-24,0.8917792831936492,0.8917792831936492,0.0,0,False
2024-07-25,0.8917792831936492,0.8917792831936492,0.0,0,False
2024-07-26,0.8917792831936492,0.8917792831936492,0.0,0,False
2024-07-27,0.8917792831936492,0.8917792831936492,0.0,0,False
2024-07-28,0.8917792831936492,0.8917792831936492,0.0,0,False
2024-07-29,0.8917792831936492,0.8917792831936492,0.0,0,False
2024-07-30,0.8917792831936492,0.8917792831936492,0.0,0,False
2024-07-31,0.8917792831936492,0.8917792831936492,0.0,0,False
2024-08-01,0.8917792831936492,0.8917792831936492,0.0,0,False
2024-08-02,0.8917792831936492,0.8917792831936492,0.0,0,False
2024-08-03,0.8917792831936492,0.8917792831936492,0.0,0,False
2024-08-04,0.8917792831936492,0.8917792831936492,0.0,0,False
2024-08-05,0.8917792831936492,0.8917792831936492,0.0,0,False
2024-08-06,0.8917792831936492,0.8917792831936492,0.0,0,False
2024-08-07,0.8917792831936492,0.8917792831936492,0.0,0,False
2024-08-08,0.8917792831936492,0.8917792831936492,0.0,0,False
2024-08-09,0.8917792831936492,0.8917792831936492,0.0,0,False
2024-08-10,0.8917792831936492,0.8917792831936492,0.0,0,False
2024-08-11,0.8917792831936492,0.8917792831936492,0.0,0,False
2024-08-12,0.8917792831936492,0.8917792831936492,0.0,0,False
2024-08-13,0.8917792831936492,0.8917792831936492,0.0,0,False
2024-08-14,0.8917792831936492,0.8917792831936492,0.0,0,False
2024-08-15,0.8917792831936492,0.8917792831936492,0.0,0,False
2024-08-16,0.8917792831936492,0.8917792831936492,0.0,0,False
2024-08-17,0.8917792831936492,0.8917792831936492,0.0,0,False
2024-08-18,0.8917792831936492,0.8917792831936492,0.0,0,False
2024-08-19,0.8917792831936492,0.8917792831936492,0.0,0,False
2024-08-20,0.8917792831936492,0.8917792831936492,0.0,0,False
2024-08-21,0.8917792831936492,0.8917792831936492,0.0,0,False
2024-08-22,0.8917792831936492,0.8917792831936492,0.0,0,False
2024-08-23,0.8917792831936492,0.8917792831936492,0.0,0,False
2024-08-24,0.8917792831936492,0.8917792831936492,0.0,0,False
2024-08-25,0.8917792831936492,0.8917792831936492,0.0,0,False
2024-08-26,0.8917792831936492,0.8917792831936492,0.0,0,False
2024-08-27,0.8917792831936492,0.8917792831936492,0.0,0,False
2024-08-28,0.8917792831936492,0.8917792831936492,0.0,0,False
2024-08-29,0.8917792831936492,0.8917792831936492,0.0,0,False
2024-08-30,0.8917792831936492,0.8917792831936492,0.0,0,False
2024-08-31,0.8917792831936492,0.8917792831936492,0.0,0,False
2024-09-01,0.8917792831936492,0.8917792831936492,0.0,0,False
2024-09-02,0.8917792831936492,0.8917792831936492,0.0,0,False
2024-09-03,0.8917792831936492,0.8917792831936492,0.0,0,False
2024-09-04,0.8917792831936492,0.8917792831936492,0.0,0,False
2024-09-05,0.8917792831936492,0.8917792831936492,0.0,0,False
2024-09-06,0.8917792831936492,0.8917792831936492,0.0,0,False
2024-09-07,0.8917792831936492,0.8917792831936492,0.0,0,False
2024-09-08,0.8917792831936492,0.8917792831936492,0.0,0,False
2024-09-09,0.8917792831936492,0.8917792831936492,0.0,0,False
2024-09-10,0.8917792831936492,0.8917792831936492,0.0,0,False
2024-09-11,0.8917792831936492,0.8917792831936492,0.0,0,False
2024-09-12,0.8917792831936492,0.8917792831936492,0.0,0,False
2024-09-13,0.8917792831936492,0.8917792831936492,0.0,0,False
2024-09-14,0.8917792831936492,0.8917792831936492,0.0,0,False
2024-09-15,0.8917792831936492,0.8917792831936492,0.0,0,False
2024-09-16,0.8917792831936492,0.8917792831936492,0.0,0,False
2024-09-17,0.8917792831936492,0.8917792831936492,0.0,0,False
2024-09-18,0.8917792831936492,0.8917792831936492,0.0,0,False
2024-09-19,0.8917792831936492,0.8917792831936492,0.0,0,False
2024-09-20,0.8917792831936492,0.8917792831936492,0.0,0,False
2024-09-21,0.8917792831936492,0.8917792831936492,0.0,0,False
2024-09-22,0.8917792831936492,0.8917792831936492,0.0,0,False
2024-09-23,0.8917792831936492,0.8917792831936492,0.0,0,False
2024-09-24,0.8917792831936492,0.8917792831936492,0.0,0,False
2024-09-25,0.8917792831936492,0.8917792831936492,0.0,0,False
2024-09-26,0.8917792831936492,0.8917792831936492,0.0,0,False
2024-09-27,0.8917792831936492,0.8917792831936492,0.0,0,False
2024-09-28,0.8917792831936492,0.8917792831936492,0.0,0,False
2024-09-29,0.8917792831936492,0.8917792831936492,0.0,0,False
2024-09-30,0.8917792831936492,0.8917792831936492,0.0,0,False
2024-10-01,0.8917792831936492,0.8917792831936492,0.0,0,False
2024-10-02,0.8917792831936492,0.8917792831936492,0.0,0,False
2024-10-03,0.8917792831936492,0.8917792831936492,0.0,0,False
2024-10-04,0.8917792831936492,0.8917792831936492,0.0,0,False
2024-10-05,0.8917792831936492,0.8917792831936492,0.0,0,False
2024-10-06,0.8917792831936492,0.8917792831936492,0.0,0,False
2024-10-07,0.8917792831936492,0.8917792831936492,0.0,0,False
2024-10-08,0.8917792831936492,0.8917792831936492,0.0,0,False
2024-10-09,0.8917792831936492,0.8917792831936492,0.0,0,False
2024-10-10,0.8917792831936492,0.8917792831936492,0.0,0,False
2024-10-11,0.8917792831936492,0.8917792831936492,0.0,0,False
2024-10-12,0.8917792831936492,0.8917792831936492,0.0,0,False
2024-10-13,0.8917792831936492,0.8917792831936492,0.0,0,False
2024-10-14,0.8917792831936492,0.8917792831936492,0.0,0,False
2024-10-15,0.8917792831936492,0.8917792831936492,0.0,0,False
2024-10-16,0.8917792831936492,0.8917792831936492,0.0,0,False
2024-10-17,0.8917792831936492,0.8917792831936492,0.0,0,False
2024-10-18,0.8917792831936492,0.8917792831936492,0.0,0,False
2024-10-19,0.8917792831936492,0.8917792831936492,0.0,0,False
2024-10-20,0.8917792831936492,0.8917792831936492,0.0,0,False
2024-10-21,0.8917792831936492,0.8917792831936492,0.0,0,False
2024-10-22,0.8917792831936492,0.8917792831936492,0.0,0,False
2024-10-23,0.8917792831936492,0.8917792831936492,0.0,0,False
2024-10-24,0.8917792831936492,0.8917792831936492,0.0,0,False
2024-10-25,0.8917792831936492,0.8917792831936492,0.0,0,False
2024-10-26,0.8917792831936492,0.8917792831936492,0.0,0,False
2024-10-27,0.8917792831936492,0.8917792831936492,0.0,0,False
2024-10-28,0.8917792831936492,0.8917792831936492,0.0,0,False
2024-10-29,0.8917792831936492,0.8917792831936492,0.0,0,False
2024-10-30,0.8917792831936492,0.8917792831936492,0.0,0,False
2024-10-31,0.8917792831936492,0.8917792831936492,0.0,0,False
2024-11-01,0.8917792831936492,0.8917792831936492,0.0,0,False
2024-11-02,0.8917792831936492,0.8917792831936492,0.0,0,False
2024-11-03,0.8917792831936492,0.8917792831936492,0.0,0,False
2024-11-04,0.8917792831936492,0.8917792831936492,0.0,0,False
2024-11-05,0.8917792831936492,0.8917792831936492,0.0,0,False
2024-11-06,0.8917792831936492,0.8917792831936492,0.0,0,False
2024-11-07,0.8917792831936492,0.8917792831936492,0.0,0,False
2024-11-08,0.8917792831936492,0.8917792831936492,0.0,0,False
2024-11-09,0.8917792831936492,0.8917792831936492,0.0,0,False
2024-11-10,0.8917792831936492,0.8917792831936492,0.0,0,False
2024-11-11,0.8917792831936492,0.8917792831936492,0.0,0,False
2024-11-12,0.8917792831936492,0.8917792831936492,0.0,0,False
2024-11-13,0.8917792831936492,0.8917792831936492,0.0,0,False
2024-11-14,0.8917792831936492,0.8917792831936492,0.0,0,False
2024-11-15,0.8917792831936492,0.8917792831936492,0.0,0,False
2024-11-16,0.8917792831936492,0.8917792831936492,0.0,0,False
2024-11-17,0.8917792831936492,0.8917792831936492,0.0,0,False
2024-11-18,0.8917792831936492,0.8917792831936492,0.0,0,False
2024-11-19,0.8917792831936492,0.8917792831936492,0.0,0,False
2024-11-20,0.8917792831936492,0.8917792831936492,0.0,0,False
2024-11-21,0.8917792831936492,0.8917792831936492,0.0,0,False
2024-11-22,0.8917792831936492,0.8917792831936492,0.0,0,False
2024-11-23,0.8917792831936492,0.8917792831936492,0.0,0,False
2024-11-24,0.8917792831936492,0.8917792831936492,0.0,0,False
2024-11-25,0.8917792831936492,0.8917792831936492,0.0,0,False
2024-11-26,0.8917792831936492,0.8917792831936492,0.0,0,False
2024-11-27,0.8917792831936492,0.8917792831936492,0.0,0,False
2024-11-28,0.8917792831936492,0.8917792831936492,0.0,0,False
2024-11-29,0.8917792831936492,0.8917792831936492,0.0,0,False
2024-11-30,0.8917792831936492,0.8917792831936492,0.0,0,False
2024-12-01,0.8917792831936492,0.8917792831936492,0.0,0,False
2024-12-02,0.8917792831936492,0.8917792831936492,0.0,0,False
2024-12-03,0.8917792831936492,0.8917792831936492,0.0,0,False
2024-12-04,0.8917792831936492,0.8917792831936492,0.0,0,False
2024-12-05,0.8917792831936492,0.8917792831936492,0.0,0,False
2024-12-06,0.8917792831936492,0.8917792831936492,0.0,0,False
2024-12-07,0.8917792831936492,0.8917792831936492,0.0,0,False
2024-12-08,0.8917792831936492,0.8917792831936492,0.0,0,False
2024-12-09,0.8917792831936492,0.8917792831936492,0.0,0,False
2024-12-10,0.8917792831936492,0.8917792831936492,0.0,0,False
2024-12-11,0.8917792831936492,0.8917792831936492,0.0,0,False
2024-12-12,0.8917792831936492,0.8917792831936492,0.0,0,False
2024-12-13,0.8917792831936492,0.8917792831936492,0.0,0,False
2024-12-14,0.8917792831936492,0.8917792831936492,0.0,0,False
2024-12-15,0.8917792831936492,0.8917792831936492,0.0,0,False
2024-12-16,0.8917792831936492,0.8917792831936492,0.0,0,False
2024-12-17,0.8917792831936492,0.8917792831936492,0.0,0,False
2024-12-18,0.8917792831936492,0.8917792831936492,0.0,0,False
2024-12-19,0.8917792831936492,0.8917792831936492,0.0,0,False
2024-12-20,0.8917792831936492,0.8917792831936492,0.0,0,False
2024-12-21,0.8917792831936492,0.8917792831936492,0.0,0,False
2024-12-22,0.8917792831936492,0.8917792831936492,0.0,0,False
2024-12-23,0.8917792831936492,0.8917792831936492,0.0,0,False
2024-12-24,0.8917792831936492,0.8917792831936492,0.0,0,False
2024-12-25,0.8917792831936492,0.8917792831936492,0.0,0,False
2024-12-26,0.8917792831936492,0.8917792831936492,0.0,0,False
2024-12-27,0.8917792831936492,0.8917792831936492,0.0,0,False
2024-12-28,0.8917792831936492,0.8917792831936492,0.0,0,False
2024-12-29,0.8917792831936492,0.8917792831936492,0.0,0,False
2024-12-30,0.8917792831936492,0.8917792831936492,0.0,0,False
2024-12-31,0.8917792831936492,0.8917792831936492,0.0,0,False
