day,start_equity,end_equity,return_pct,entries,active
2024-01-02,1.0,0.9989153035442373,-0.10846964557627015,1,True
2024-01-03,0.9989153035442373,0.989548024167323,-0.9377451064848441,8,True
2024-01-04,0.989548024167323,1.0089143172080213,1.9570847061207042,5,True
2024-01-05,1.0089143172080213,0.9914974641765378,-1.7262965481232628,4,True
2024-01-06,0.9914974641765378,0.9809143673648281,-1.0673851617461594,7,True
2024-01-07,0.9809143673648281,0.9791581021167578,-0.17904368683969718,3,True
2024-01-08,0.9791581021167578,0.9679305354003807,-1.146655140993602,7,True
2024-01-09,0.9679305354003807,0.9738700313103729,0.6136283227737405,0,True
2024-01-10,0.9738700313103729,0.9663197315349692,-0.7752882348422308,4,True
2024-01-11,0.9663197315349692,0.9775260246231416,1.1596879089255108,3,True
2024-01-12,0.9775260246231416,0.9713373942060761,-0.6330911158555996,5,True
2024-01-13,0.9713373942060761,0.9627953028103395,-0.8794154787707398,6,True
2024-01-14,0.9627953028103395,0.9678357498945103,0.5235221930827816,0,True
2024-01-15,0.9678357498945103,0.9623530768443205,-0.5664879656271604,2,True
2024-01-16,0.9623530768443205,0.9633394351998605,0.10249443569863015,1,True
2024-01-17,0.9633394351998605,0.9685733149450111,0.5433058747423392,0,True
2024-01-18,0.9685733149450111,0.967697597436718,-0.09041313597853984,1,True
2024-01-19,0.967697597436718,0.9589236807125209,-0.9066796019167489,1,True
2024-01-20,0.9589236807125209,0.9798851484222335,2.185937017859163,7,True
2024-01-21,0.9798851484222335,0.9925571516639976,1.293213114023417,1,True
2024-01-22,0.9925571516639976,0.9711525216583441,-2.1565136042563604,4,True
2024-01-23,0.9711525216583441,0.945656919443774,-2.6252933134574774,8,True
2024-01-24,0.945656919443774,0.9544503825988543,0.9298787937016995,1,True
2024-01-25,0.9544503825988543,0.9447175047344774,-1.019736388797443,2,True
2024-01-26,0.9447175047344774,0.9447175047344774,0.0,0,False
2024-01-27,0.9447175047344774,0.9447175047344774,0.0,0,False
2024-01-28,0.9447175047344774,0.9415069530781225,-0.339842507444299,2,True
2024-01-29,0.9415069530781225,0.9414370988160125,-0.007419410114994918,0,True
2024-01-30,0.9414370988160125,0.9414370988160125,0.0,0,False
2024-01-31,0.9414370988160125,0.9367406861299,-0.49885570602845597,1,True
2024-02-01,0.9367406861299,0.9367406861299,0.0,0,False
2024-02-02,0.9367406861299,0.9361587811335141,-0.06212017957605287,2,True
2024-02-03,0.9361587811335141,0.9457171130577167,1.0210161050488775,1,True
2024-02-04,0.9457171130577167,0.944281334600655,-0.15181902042773476,1,True
2024-02-05,0.944281334600655,0.944281334600655,0.0,0,False
2024-02-06,0.944281334600655,0.9378714836686668,-0.6788073317894217,2,True
2024-02-07,0.9378714836686668,0.9327613695982608,-0.5448629326500809,4,True
2024-02-08,0.9327613695982608,0.9574388056917856,2.64563230187731,1,True
2024-02-09,0.9574388056917856,0.9574388056917856,0.0,0,False
2024-02-10,0.9574388056917856,0.9516823289883495,-0.6012370366873632,2,True
2024-02-11,0.9516823289883495,0.9498633239019311,-0.1911357425699034,0,True
2024-02-12,0.9498633239019311,0.95178056742085,0.201844146486585,1,True
2024-02-13,0.95178056742085,0.951850391316621,0.007336133785562637,0,True
2024-02-14,0.951850391316621,0.9532439348640883,0.14640363235443044,2,True
2024-02-15,0.9532439348640883,0.956714123153498,0.36403990232620753,1,True
2024-02-16,0.956714123153498,0.9594688424737031,0.28793547137415665,3,True
2024-02-17,0.9594688424737031,0.9626561093403266,0.33219076279811244,5,True
2024-02-18,0.9626561093403266,0.966137500332851,0.3616443046219331,1,True
2024-02-19,0.966137500332851,0.9672857021333965,0.11884455371518055,2,True
2024-02-20,0.9672857021333965,0.9651941675794231,-0.21622717562767013,8,True
2024-02-21,0.9651941675794231,0.9509405589811772,-1.4767607469067023,7,True
2024-02-22,0.9509405589811772,0.9820212014790385,3.268410649258735,3,True
2024-02-23,0.9820212014790385,0.9830890059760576,0.10873538121283222,3,True
2024-02-24,0.9830890059760576,0.9792340731815127,-0.39212449443655206,5,True
2024-02-25,0.9792340731815127,0.9707332099942083,-0.868113500144585,4,True
2024-02-26,0.9707332099942083,0.9654875381338037,-0.5403824455986084,5,True
2024-02-27,0.9654875381338037,0.9642220858678595,-0.1310687311811609,3,True
2024-02-28,0.9642220858678595,0.9740345758153189,1.0176587003426274,5,True
2024-02-29,0.9740345758153189,0.9766765538788109,0.2712406858124572,8,True
2024-03-01,0.9766765538788109,0.9730524709050262,-0.37106275966100055,5,True
2024-03-02,0.9730524709050262,0.9782184150020415,0.530900876518059,4,True
2024-03-03,0.9782184150020415,0.9808129182396942,0.26522739685361785,9,True
2024-03-04,0.9808129182396942,0.9976957369057341,1.7213087584878384,1,True
2024-03-05,0.9976957369057341,0.9967211742515312,-0.09768134894767577,9,True
2024-03-06,0.9967211742515312,0.98507432226428,-1.168516560912547,16,True
2024-03-07,0.98507432226428,0.9812247529746799,-0.39078973054048616,5,True
2024-03-08,0.9812247529746799,0.9852552968042451,0.41076662786443396,5,True
2024-03-09,0.9852552968042451,0.9727176699096951,-1.2725257032585091,5,True
2024-03-10,0.9727176699096951,0.9703016299601261,-0.24838039076572338,8,True
2024-03-11,0.9703016299601261,0.9716880858090863,0.14288916004574492,3,True
2024-03-12,0.9716880858090863,0.9802248295259758,0.8785477399140262,4,True
2024-03-13,0.9802248295259758,0.9879449450909988,0.7875862080290785,5,True
2024-03-14,0.9879449450909988,0.9902308162941751,0.2313763752256115,5,True
2024-03-15,0.9902308162941751,0.953211690473547,-3.738434030882609,14,True
2024-03-16,0.953211690473547,0.9611801596387326,0.8359600752721574,3,True
2024-03-17,0.9611801596387326,0.950414368552634,-1.120059645232907,7,True
2024-03-18,0.950414368552634,0.9555453950614924,0.539872573335809,4,True
2024-03-19,0.9555453950614924,0.9416867151499839,-1.4503423890831035,14,True
2024-03-20,0.9416867151499839,0.9288958449203573,-1.3582935836138899,4,True
2024-03-21,0.9288958449203573,0.9278952040509109,-0.1077236888202715,4,True
2024-03-22,0.9278952040509109,0.9384758834525778,1.1402881872300874,8,True
2024-03-23,0.9384758834525778,0.9555083446679851,1.8149066497847643,5,True
2024-03-24,0.9555083446679851,0.9516033802356324,-0.4086792600131117,4,True
2024-03-25,0.9516033802356324,0.9661347244140039,1.5270378899634895,4,True
2024-03-26,0.9661347244140039,0.9795213196961569,1.3855826670832405,5,True
2024-03-27,0.9795213196961569,0.9751421339357759,-0.44707406284320017,6,True
2024-03-28,0.9751421339357759,0.9643743312445627,-1.1042290468726956,2,True
2024-03-29,0.9643743312445627,0.9592751181353094,-0.5287586929727417,6,True
2024-03-30,0.9592751181353094,0.9499683277309876,-0.9701899098991329,2,True
2024-03-31,0.9499683277309876,0.9498843310626711,-0.008842049346746705,0,True
2024-04-01,0.9498843310626711,0.9478039898681747,-0.21900994957659847,5,True
2024-04-02,0.9478039898681747,0.9198033779940631,-2.954261869904773,5,True
2024-04-03,0.9198033779940631,0.8987865737397047,-2.2849235779273225,3,True
2024-04-04,0.8987865737397047,0.8981028994902234,-0.0760663620771207,1,True
2024-04-05,0.8981028994902234,0.8925234144464399,-0.6212523138440451,5,True
2024-04-06,0.8925234144464399,0.890644974585571,-0.21046393074560799,1,True
2024-04-07,0.890644974585571,0.9036346546143916,1.4584576794883786,3,True
2024-04-08,0.9036346546143916,0.8985006127745896,-0.5681545980541047,1,True
2024-04-09,0.8985006127745896,0.8874660918803214,-1.2281038807745892,3,True
2024-04-10,0.8874660918803214,0.8811689724487163,-0.7095616935924975,5,True
2024-04-11,0.8811689724487163,0.8876656643228149,0.7372810524688189,1,True
2024-04-12,0.8876656643228149,0.8841845756094787,-0.3921621454167523,9,True
2024-04-13,0.8841845756094787,0.8588189145603184,-2.868819672824019,11,True
2024-04-14,0.8588189145603184,0.8332166098328001,-2.9811062953388423,15,True
2024-04-15,0.8332166098328001,0.850505593444706,2.074968670556787,2,True
2024-04-16,0.850505593444706,0.8432293481186212,-0.8555199850731943,1,True
2024-04-17,0.8432293481186212,0.8421759840846506,-0.12492022915483458,0,True
2024-04-18,0.8421759840846506,0.849756312403943,0.900088397501797,1,True
2024-04-19,0.849756312403943,0.8527851446243429,0.3564353893213523,5,True
2024-04-20,0.8527851446243429,0.850847930382722,-0.2271632255594902,0,True
2024-04-21,0.850847930382722,0.850847930382722,0.0,0,False
2024-04-22,0.850847930382722,0.850847930382722,0.0,0,False
2024-04-23,0.850847930382722,0.8594103628425747,1.006341104455788,3,True
2024-04-24,0.8594103628425747,0.8580515970036376,-0.1581044280688837,3,True
2024-04-25,0.8580515970036376,0.8585758316790066,0.06109593842604788,2,True
2024-04-26,0.8585758316790066,0.8612266719081096,0.30874852648938855,2,True
2024-04-27,0.8612266719081096,0.8630674908747611,0.2137438408140513,6,True
2024-04-28,0.8630674908747611,0.8685202838665558,0.6317921888435496,3,True
2024-04-29,0.8685202838665558,0.8719895746752384,0.39944844963639703,2,True
2024-04-30,0.8719895746752384,0.8633160886605679,-0.9946777193868273,2,True
2024-05-01,0.8633160886605679,0.8511316734273786,-1.411350418835966,6,True
2024-05-02,0.8511316734273786,0.8618640803350125,1.2609572928259372,3,True
2024-05-03,0.8618640803350125,0.859702435326772,-0.25081043027112004,1,True
2024-05-04,0.859702435326772,0.8605510625486098,0.0987117387326153,0,True
2024-05-05,0.8605510625486098,0.8569644253094112,-0.416783779056229,1,True
2024-05-06,0.8569644253094112,0.8562542808078313,-0.08286744240562083,0,True
2024-05-07,0.8562542808078313,0.8595345265679643,0.38309248007941665,3,True
2024-05-08,0.8595345265679643,0.8658471702728276,0.7344258444240914,3,True
2024-05-09,0.8658471702728276,0.8598428014338095,-0.6934675131092916,1,True
2024-05-10,0.8598428014338095,0.8565776286612022,-0.3797406650567492,2,True
2024-05-11,0.8565776286612022,0.8529849256058177,-0.4194252727566239,4,True
2024-05-12,0.8529849256058177,0.848121978101901,-0.5701094307689947,0,True
2024-05-13,0.848121978101901,0.8552815814516587,0.8441714204578066,5,True
2024-05-14,0.8552815814516587,0.8470564053300668,-0.9616921841847037,4,True
2024-05-15,0.8470564053300668,0.8487853719665238,0.20411469951442385,3,True
2024-05-16,0.8487853719665238,0.8383363653267423,-1.231054043211488,2,True
2024-05-17,0.8383363653267423,0.8388908391363932,0.06613977784857283,0,True
2024-05-18,0.8388908391363932,0.8440641689381787,0.6166868870699949,2,True
2024-05-19,0.8440641689381787,0.8436023179763971,-0.054717517788094305,0,True
2024-05-20,0.8436023179763971,0.8470474569547798,0.40838424752633884,2,True
2024-05-21,0.8470474569547798,0.8420369382889678,-0.5915275023462452,2,True
2024-05-22,0.8420369382889678,0.8455857936907955,0.4214607745165022,1,True
2024-05-23,0.8455857936907955,0.83831229726497,-0.8601724958124279,6,True
2024-05-24,0.83831229726497,0.8518140565493517,1.6105882412117412,2,True
2024-05-25,0.8518140565493517,0.8507087318156845,-0.12976126951282918,0,True
2024-05-26,0.8507087318156845,0.8548634315593224,0.48838099201948815,3,True
2024-05-27,0.8548634315593224,0.8740957119444603,2.2497488692500456,3,True
2024-05-28,0.8740957119444603,0.8821871237433327,0.9256894512012614,2,True
2024-05-29,0.8821871237433327,0.883583424548984,0.158277169102905,1,True
2024-05-30,0.883583424548984,0.8632585728306987,-2.300275350758174,5,True
2024-05-31,0.8632585728306987,0.8627497301124369,-0.05894441529763483,1,True
2024-06-01,0.8627497301124369,0.8590495216853682,-0.4288854922720797,2,True
2024-06-02,0.8590495216853682,0.8671776679253093,0.9461790077007981,0,True
2024-06-03,0.8671776679253093,0.8552594592294617,-1.374367576180957,5,True
2024-06-04,0.8552594592294617,0.8521422683423406,-0.36447312607678084,6,True
2024-06-05,0.8521422683423406,0.8530654762127975,0.10833964054532963,0,True
2024-06-06,0.8530654762127975,0.8499759887934809,-0.3621629881251809,2,True
2024-06-07,0.8499759887934809,0.8492136042940452,-0.08969482779365157,0,True
2024-06-08,0.8492136042940452,0.865913915211499,1.9665618677101593,8,True
2024-06-09,0.865913915211499,0.8722809357976922,0.7352948687327832,1,True
2024-06-10,0.8722809357976922,0.873808526823152,0.1751260359786455,0,True
2024-06-11,0.873808526823152,0.8713001736646928,-0.28705981704924,2,True
2024-06-12,0.8713001736646928,0.882413966930861,1.275541266039637,3,True
2024-06-13,0.882413966930861,0.8769866291273742,-0.615055745588855,4,True
2024-06-14,0.8769866291273742,0.861960388724763,-1.7133944696012926,5,True
2024-06-15,0.861960388724763,0.8663593929685113,0.5103487702325271,5,True
2024-06-16,0.8663593929685113,0.8672981023556497,0.10835103708197735,0,True
2024-06-17,0.8672981023556497,0.8519836851587725,-1.7657616401191345,4,True
2024-06-18,0.8519836851587725,0.8537649476233425,0.20907236788672012,5,True
2024-06-19,0.8537649476233425,0.8510611771908554,-0.31668791744305924,2,True
2024-06-20,0.8510611771908554,0.8601871142996029,1.0723009524262528,1,True
2024-06-21,0.8601871142996029,0.8584504394285524,-0.20189501123423215,1,True
2024-06-22,0.8584504394285524,0.8621264887786331,0.4282191704075178,2,True
2024-06-23,0.8621264887786331,0.864195669418606,0.24000893916440447,2,True
2024-06-24,0.864195669418606,0.8644389395515054,0.028149890297757274,1,True
2024-06-25,0.8644389395515054,0.8720505259776881,0.8805233172549665,0,True
2024-06-26,0.8720505259776881,0.8720505259776881,0.0,0,False
2024-06-27,0.8720505259776881,0.8679217203311237,-0.47345945258566724,2,True
2024-06-28,0.8679217203311237,0.8614143473447441,-0.749764965427635,2,True
2024-06-29,0.8614143473447441,0.8461554646481605,-1.7713754993306297,5,True
2024-06-30,0.8461554646481605,0.8505938351900331,0.5245336970928882,0,True
2024-07-01,0.8505938351900331,0.8446703206802623,-0.6963975360164021,2,True
2024-07-02,0.8446703206802623,0.8493646037124705,0.5557532823489808,0,True
2024-07-03,0.8493646037124705,0.8451305887803023,-0.4984920390679992,1,True
2024-07-04,0.8451305887803023,0.8304239239047605,-1.740164782908471,5,True
2024-07-05,0.8304239239047605,0.781319214653862,-5.9132098482907125,18,True
2024-07-06,0.781319214653862,0.7908058221569488,1.214178190573434,2,True
2024-07-07,0.7908058221569488,0.7966493116294187,0.7389284839268706,1,True
2024-07-08,0.7966493116294187,0.7973268458059959,0.08504798368449418,2,True
2024-07-09,0.7973268458059959,0.8044618251243862,0.8948625467612104,2,True
2024-07-10,0.8044618251243862,0.8080620548267269,0.44753269700323894,1,True
2024-07-11,0.8080620548267269,0.799007479692683,-1.1205296771403805,2,True
2024-07-12,0.799007479692683,0.799007479692683,0.0,0,False
2024-07-13,0.799007479692683,0.7978726735600716,-0.1420269723942824,2,True
2024-07-14,0.7978726735600716,0.8141547430688234,2.040685193052405,1,True
2024-07-15,0.8141547430688234,0.8163818715043516,0.27355099930184146,0,True
2024-07-16,0.8163818715043516,0.8155209818365998,-0.10545183544624637,3,True
2024-07-17,0.8155209818365998,0.8114491179102167,-0.4992960349362252,1,True
2024-07-18,0.8114491179102167,0.8114491179102167,0.0,0,False
2024-07-19,0.8114491179102167,0.8090856370323929,-0.2912666765737093,2,True
2024-07-20,0.8090856370323929,0.8109829536627563,0.23450133626428116,1,True
2024-07-21,0.8109829536627563,0.810609036249114,-0.046106692126335336,1,True
2024-07-22,0.810609036249114,0.8102944879823514,-0.03880394280060262,1,True
2024-07-23,0.8102944879823514,0.8048103013081693,-0.6768140170665293,3,True
2024-07-24,0.8048103013081693,0.8007409083831551,-0.5056338019530315,1,True
2024-07-25,0.8007409083831551,0.7951841058023472,-0.6939576238246814,3,True
2024-07-26,0.7951841058023472,0.794198887467305,-0.1238981423110963,0,True
2024-07-27,0.794198887467305,0.7972195355344366,0.3803389950298719,1,True
2024-07-28,0.7972195355344366,0.7868918613991306,-1.2954617486113928,2,True
2024-07-29,0.7868918613991306,0.7863011231596021,-0.07507235345884933,0,True
2024-07-30,0.7863011231596021,0.7833014986062151,-0.38148547230016927,2,True
2024-07-31,0.7833014986062151,0.7719288248490859,-1.451889697308828,5,True
2024-08-01,0.7719288248490859,0.7719558541858623,0.0035015322535469906,1,True
2024-08-02,0.7719558541858623,0.7596313063170852,-1.5965353202451071,4,True
2024-08-03,0.7596313063170852,0.7545656566514441,-0.6668563582773901,7,True
2024-08-04,0.7545656566514441,0.7282066129416767,-3.4932737101687983,4,True
2024-08-05,0.7282066129416767,0.7121564340834419,-2.2040693634184705,16,True
2024-08-06,0.7121564340834419,0.7205018251247769,1.1718480156787114,0,True
2024-08-07,0.7205018251247769,0.7201585804686571,-0.04763966504323092,1,True
2024-08-08,0.7201585804686571,0.7169074543066227,-0.451445869036049,0,True
2024-08-09,0.7169074543066227,0.7169074543066227,0.0,0,False
2024-08-10,0.7169074543066227,0.7169074543066227,0.0,0,False
2024-08-11,0.7169074543066227,0.7133235946983991,-0.4999054740879805,1,True
2024-08-12,0.7133235946983991,0.7142354299953024,0.12782912323106022,1,True
2024-08-13,0.7142354299953024,0.7097620670915803,-0.6263148978413957,0,True
2024-08-14,0.7097620670915803,0.7097620670915803,0.0,0,False
2024-08-15,0.7097620670915803,0.7097620670915803,0.0,0,False
2024-08-16,0.7097620670915803,0.7097620670915803,0.0,0,False
2024-08-17,0.7097620670915803,0.7158239909695453,0.8540783114551642,1,True
2024-08-18,0.7158239909695453,0.7223805089230116,0.915939956774281,1,True
2024-08-19,0.7223805089230116,0.7192186406481724,-0.43770121643414983,3,True
2024-08-20,0.7192186406481724,0.7118478742840397,-1.0248297176349674,2,True
2024-08-21,0.7118478742840397,0.7112142047108371,-0.08901755502747077,0,True
2024-08-22,0.7112142047108371,0.7115682059588873,0.04977420947238631,1,True
2024-08-23,0.7115682059588873,0.7120426506026539,0.06667591944011786,0,True
2024-08-24,0.7120426506026539,0.7101833308235844,-0.26112477637341147,2,True
2024-08-25,0.7101833308235844,0.708857620876886,-0.1866715098988614,2,True
2024-08-26,0.708857620876886,0.7108094104663603,0.2753429647917027,2,True
2024-08-27,0.7108094104663603,0.7050851337933923,-0.805318076643391,1,True
2024-08-28,0.7050851337933923,0.7054306745317132,0.04900695274367983,4,True
2024-08-29,0.7054306745317132,0.6997186813470171,-0.8097171544869219,3,True
2024-08-30,0.6997186813470171,0.7016903712533564,0.281783230732624,0,True
2024-08-31,0.7016903712533564,0.7016903712533564,0.0,0,False
2024-09-01,0.7016903712533564,0.6981934195496623,-0.4983610787544168,1,True
2024-09-02,0.6981934195496623,0.6991278908142317,0.13384131651830167,1,True
2024-09-03,0.6991278908142317,0.6974027817328295,-0.24675157493616595,0,True
2024-09-04,0.6974027817328295,0.6974027817328295,0.0,0,False
2024-09-05,0.6974027817328295,0.6974027817328295,0.0,0,False
2024-09-06,0.6974027817328295,0.6971649900269524,-0.03409675328313044,1,True
2024-09-07,0.6971649900269524,0.6984265589513696,0.18095701053038038,0,True
2024-09-08,0.6984265589513696,0.6984265589513696,0.0,0,False
2024-09-09,0.6984265589513696,0.6984265589513696,0.0,0,False
2024-09-10,0.6984265589513696,0.6984265589513696,0.0,0,False
2024-09-11,0.6984265589513696,0.6914776009065803,-0.9949447018771207,2,True
2024-09-12,0.6914776009065803,0.6914776009065803,0.0,0,False
2024-09-13,0.6914776009065803,0.6912511562554482,-0.03274793729185488,1,True
2024-09-14,0.6912511562554482,0.6928429881078775,0.23028270376461712,0,True
2024-09-15,0.6928429881078775,0.6944016173321486,0.2249613911122328,2,True
2024-09-16,0.6944016173321486,0.6898374942209482,-0.6572742628013217,2,True
2024-09-17,0.6898374942209482,0.6950455357734802,0.7549664371916398,1,True
2024-09-18,0.6950455357734802,0.6951243974712358,0.011346263474365514,0,True
2024-09-19,0.6951243974712358,0.6946979619793853,-0.06134664434190862,1,True
2024-09-20,0.6946979619793853,0.6967545136396186,0.2960353668483018,2,True
2024-09-21,0.6967545136396186,0.6902435549742613,-0.934469535237914,2,True
2024-09-22,0.6902435549742613,0.6963498059136485,0.8846516414941163,2,True
2024-09-23,0.6963498059136485,0.6953686416243616,-0.14090106451591922,0,True
2024-09-24,0.6953686416243616,0.6953686416243616,0.0,0,False
2024-09-25,0.6953686416243616,0.6953686416243616,0.0,0,False
2024-09-26,0.6953686416243616,0.6953686416243616,0.0,0,False
2024-09-27,0.6953686416243616,0.6953686416243616,0.0,0,False
2024-09-28,0.6953686416243616,0.6953686416243616,0.0,0,False
2024-09-29,0.6953686416243616,0.6953686416243616,0.0,0,False
2024-09-30,0.6953686416243616,0.6922827981063426,-0.44377087681298777,2,True
2024-10-01,0.6922827981063426,0.6925653507318631,0.04081462464375907,0,True
2024-10-02,0.6925653507318631,0.6764048362228472,-2.3334281006028412,11,True
2024-10-03,0.6764048362228472,0.6791886861406992,0.41156564364581705,3,True
2024-10-04,0.6791886861406992,0.6794233253603192,0.034546985897732085,2,True
2024-10-05,0.6794233253603192,0.6799541336527388,0.0781262980834585,0,True
2024-10-06,0.6799541336527388,0.6799541336527388,0.0,0,False
2024-10-07,0.6799541336527388,0.6799541336527388,0.0,0,False
2024-10-08,0.6799541336527388,0.6745690719537277,-0.7919742571579569,2,True
2024-10-09,0.6745690719537277,0.6749421656826874,0.055308454607772006,0,True
2024-10-10,0.6749421656826874,0.6749421656826874,0.0,0,False
2024-10-11,0.6749421656826874,0.6742073824056054,-0.10886610948935838,1,True
2024-10-12,0.6742073824056054,0.6731390682370924,-0.15845483101968316,1,True
2024-10-13,0.6731390682370924,0.6730952516136257,-0.006509297340506759,0,True
2024-10-14,0.6730952516136257,0.6730952516136257,0.0,0,False
2024-10-15,0.6730952516136257,0.6731704746328224,0.011175687098718967,1,True
2024-10-16,0.6731704746328224,0.6687559304701681,-0.6557839847420754,5,True
2024-10-17,0.6687559304701681,0.6653169589100851,-0.5142341777313653,2,True
2024-10-18,0.6653169589100851,0.6733500823595736,1.207412999459434,2,True
2024-10-19,0.6733500823595736,0.6680865084011446,-0.7816994601061333,3,True
2024-10-20,0.6680865084011446,0.6694959944374703,0.21097358180437453,2,True
2024-10-21,0.6694959944374703,0.6720282970942093,0.378240150468212,2,True
2024-10-22,0.6720282970942093,0.6696913151121218,-0.3477505325582886,0,True
2024-10-23,0.6696913151121218,0.6663472282847338,-0.4993474981571322,1,True
2024-10-24,0.6663472282847338,0.661372049471147,-0.7466345776500849,3,True
2024-10-25,0.661372049471147,0.6589047030530372,-0.3730648157996397,2,True
2024-10-26,0.6589047030530372,0.6444578685868184,-2.1925529441934932,10,True
2024-10-27,0.6444578685868184,0.6511018614149859,1.030942929246348,1,True
2024-10-28,0.6511018614149859,0.6486564314086852,-0.3755833228592298,1,True
2024-10-29,0.6486564314086852,0.6556772817926181,1.0823681141472141,2,True
2024-10-30,0.6556772817926181,0.6571202485489869,0.22007270900461506,0,True
2024-10-31,0.6571202485489869,0.6571202485489869,0.0,0,False
2024-11-01,0.6571202485489869,0.6562340418278669,-0.13486218436835617,3,True
2024-11-02,0.6562340418278669,0.6541885170264712,-0.3117065971917854,1,True
2024-11-03,0.6541885170264712,0.6491992143482164,-0.7626704762310754,2,True
2024-11-04,0.6491992143482164,0.6584151596052182,1.4195866312399108,4,True
2024-11-05,0.6584151596052182,0.652516875407082,-0.8958305579830128,1,True
2024-11-06,0.652516875407082,0.6562661970784283,0.5745938247201821,2,True
2024-11-07,0.6562661970784283,0.653137495886772,-0.47674270068833735,2,True
2024-11-08,0.653137495886772,0.6505646474061284,-0.39392141728907815,2,True
2024-11-09,0.6505646474061284,0.6485540630724576,-0.30905219668595496,2,True
2024-11-10,0.6485540630724576,0.6577621448459327,1.4197863058405202,3,True
2024-11-11,0.6577621448459327,0.6556178071304998,-0.32600503574664597,6,True
2024-11-12,0.6556178071304998,0.6518793657323758,-0.5702165739649989,6,True
2024-11-13,0.6518793657323758,0.6492393593482817,-0.4049838854966792,2,True
2024-11-14,0.6492393593482817,0.647898527023039,-0.20652357346121475,4,True
2024-11-15,0.647898527023039,0.6763309870916543,4.3884125187406475,4,True
2024-11-16,0.6763309870916543,0.6795276824814751,0.47265251050629953,1,True
2024-11-17,0.6795276824814751,0.6705728374025397,-1.3178043087566982,4,True
2024-11-18,0.6705728374025397,0.6725487982908565,0.2946676003117821,2,True
2024-11-19,0.6725487982908565,0.6638704238940609,-1.290370961757692,4,True
2024-11-20,0.6638704238940609,0.6681100506183495,0.6386226244905258,1,True
2024-11-21,0.6681100506183495,0.6814495788291867,1.996606427113501,4,True
2024-11-22,0.6814495788291867,0.6851366018612073,0.5410558824257228,4,True
2024-11-23,0.6851366018612073,0.7040789219959772,2.764750866223209,1,True
2024-11-24,0.7040789219959772,0.7040335520090903,-0.006443878018425053,12,True
2024-11-25,0.7040335520090903,0.7161010639944003,1.714053534930704,2,True
2024-11-26,0.7161010639944003,0.7039518012188499,-1.6965849356209595,5,True
2024-11-27,0.7039518012188499,0.710980310874416,0.9984362059159091,3,True
2024-11-28,0.710980310874416,0.7097875995697449,-0.1677558838731108,2,True
2024-11-29,0.7097875995697449,0.719685920046117,1.394546830963539,5,True
2024-11-30,0.719685920046117,0.7184603358835453,-0.17029430873027884,1,True
2024-12-01,0.7184603358835453,0.7207599498197068,0.32007528061148705,3,True
2024-12-02,0.7207599498197068,0.726152316949582,0.7481502171734267,8,True
2024-12-03,0.726152316949582,0.7359230202824389,1.345544606109872,7,True
2024-12-04,0.7359230202824389,0.7461687027343357,1.3922220353923098,3,True
2024-12-05,0.7461687027343357,0.7470269879567706,0.1150256261472471,5,True
2024-12-06,0.7470269879567706,0.7463692867172911,-0.08804250048293216,2,True
2024-12-07,0.7463692867172911,0.7472741934203078,0.12124114953828702,2,True
2024-12-08,0.7472741934203078,0.7457551488068606,-0.20327807742088755,0,True
2024-12-09,0.7457551488068606,0.7401160770778317,-0.756155923033297,3,True
2024-12-10,0.7401160770778317,0.7009166781184887,-5.296385279740479,16,True
2024-12-11,0.7009166781184887,0.7111593360120025,1.4613231805253646,4,True
2024-12-12,0.7111593360120025,0.7137735523328428,0.3675992409099438,0,True
2024-12-13,0.7137735523328428,0.7137735523328428,0.0,0,False
2024-12-14,0.7137735523328428,0.7137735523328428,0.0,0,False
2024-12-15,0.7137735523328428,0.7084827760465637,-0.7412401690966353,3,True
2024-12-16,0.7084827760465637,0.7060920918223095,-0.33743716926960543,0,True
2024-12-17,0.7060920918223095,0.7060920918223095,0.0,0,False
2024-12-18,0.7060920918223095,0.7025806562257684,-0.49730561171966725,2,True
2024-12-19,0.7025806562257684,0.7030098199854495,0.061083913409554214,10,True
2024-12-20,0.7030098199854495,0.6711736853241255,-4.528547647027603,17,True
2024-12-21,0.6711736853241255,0.6806916287182917,1.4181043748116906,2,True
2024-12-22,0.6806916287182917,0.684470725715193,0.555184879240711,1,True
2024-12-23,0.684470725715193,0.6897230572429947,0.767356634911387,3,True
2024-12-24,0.6897230572429947,0.6895406710243527,-0.026443398799946838,0,True
2024-12-25,0.6895406710243527,0.6944125794447458,0.7065440263524403,3,True
2024-12-26,0.6944125794447458,0.6896387002543781,-0.687470148392888,1,True
2024-12-27,0.6896387002543781,0.6896387002543781,0.0,0,False
2024-12-28,0.6896387002543781,0.6862025468549287,-0.4982541435366139,1,True
2024-12-29,0.6862025468549287,0.6869828989318223,0.11372037024202086,4,True
2024-12-30,0.6869828989318223,0.6834186541879925,-0.5188258324001604,2,True
2024-12-31,0.6834186541879925,0.6807991798319237,-0.383289853154678,2,True
