day,start_equity,end_equity,return_pct,entries,active
2024-01-02,1.0,1.0,0.0,0,False
2024-01-03,1.0,0.9927723563112387,-0.7227643688761276,6,True
2024-01-04,0.9927723563112387,0.9977689116012648,0.5032931525804418,2,True
2024-01-05,0.9977689116012648,0.995757222950537,-0.20161869420237677,1,True
2024-01-06,0.995757222950537,0.9954222019823338,-0.0336448443939541,2,True
2024-01-07,0.9954222019823338,0.9935288530021682,-0.19020562093100546,1,True
2024-01-08,0.9935288530021682,0.9978691551718779,0.4368571840258628,3,True
2024-01-09,0.9978691551718779,1.012956550762744,1.5119613140329502,0,True
2024-01-10,1.012956550762744,1.012956550762744,0.0,0,False
2024-01-11,1.012956550762744,1.0136299754245826,0.06648110043134814,1,True
2024-01-12,1.0136299754245826,1.0115968543850082,-0.20057822764393274,2,True
2024-01-13,1.0115968543850082,1.015227801835794,0.35893225992613687,4,True
2024-01-14,1.015227801835794,1.0200533019068463,0.47531204940669536,0,True
2024-01-15,1.0200533019068463,1.0200533019068463,0.0,0,False
2024-01-16,1.0200533019068463,1.0196007073083293,-0.04436970084513714,1,True
2024-01-17,1.0196007073083293,1.0238519314748011,0.41694990362401985,0,True
2024-01-18,1.0238519314748011,1.0238519314748011,0.0,0,False
2024-01-19,1.0238519314748011,1.0238519314748011,0.0,0,False
2024-01-20,1.0238519314748011,1.0372287590534452,1.306519738589107,6,True
2024-01-21,1.0372287590534452,1.0393862387326005,0.2080042286066286,0,True
2024-01-22,1.0393862387326005,1.0393862387326005,0.0,0,False
2024-01-23,1.0393862387326005,1.0167161815809662,-2.18110037509035,8,True
2024-01-24,1.0167161815809662,1.0167161815809662,0.0,0,False
2024-01-25,1.0167161815809662,1.011641732268932,-0.499101853984818,1,True
2024-01-26,1.011641732268932,1.011641732268932,0.0,0,False
2024-01-27,1.011641732268932,1.011641732268932,0.0,0,False
2024-01-28,1.011641732268932,1.0106193259953133,-0.10106406655699951,1,True
2024-01-29,1.0106193259953133,1.0106193259953133,0.0,0,False
2024-01-30,1.0106193259953133,1.0106193259953133,0.0,0,False
2024-01-31,1.0106193259953133,1.0055708588534253,-0.49954191573726714,1,True
2024-02-01,1.0055708588534253,1.0055708588534253,0.0,0,False
2024-02-02,1.0055708588534253,1.0050935454081302,-0.04746691305665962,2,True
2024-02-03,1.0050935454081302,1.0129720799225914,0.7838608207619169,1,True
2024-02-04,1.0129720799225914,1.01125131549371,-0.1698728388459636,1,True
2024-02-05,1.01125131549371,1.01125131549371,0.0,0,False
2024-02-06,1.01125131549371,1.0062026405792979,-0.49925026915265125,1,True
2024-02-07,1.0062026405792979,1.0053150571613942,-0.08821119942525879,3,True
2024-02-08,1.0053150571613942,1.0166757378717388,1.1300617283523495,0,True
2024-02-09,1.0166757378717388,1.0166757378717388,0.0,0,False
2024-02-10,1.0166757378717388,1.0166757378717388,0.0,0,False
2024-02-11,1.0166757378717388,1.0166757378717388,0.0,0,False
2024-02-12,1.0166757378717388,1.0166757378717388,0.0,0,False
2024-02-13,1.0166757378717388,1.0166757378717388,0.0,0,False
2024-02-14,1.0166757378717388,1.0178229467894089,0.11283921460263358,1,True
2024-02-15,1.0178229467894089,1.0153535703931005,-0.24261355121710793,0,True
2024-02-16,1.0153535703931005,1.0202892402393584,0.4861035594080798,1,True
2024-02-17,1.0202892402393584,1.016219719611092,-0.39885950647795543,2,True
2024-02-18,1.016219719611092,1.01658547016967,0.03599128726983203,0,True
2024-02-19,1.01658547016967,1.01658547016967,0.0,0,False
2024-02-20,1.01658547016967,1.0177061471345032,0.11023932543972048,6,True
2024-02-21,1.0177061471345032,1.0029319088195707,-1.4517194729079197,5,True
2024-02-22,1.0029319088195707,1.0259239145998842,2.2924792379349634,2,True
2024-02-23,1.0259239145998842,1.0321241872360216,0.6043598894519997,1,True
2024-02-24,1.0321241872360216,1.0388064166853548,0.6474249447857572,2,True
2024-02-25,1.0388064166853548,1.0365791352180391,-0.21440775023536807,1,True
2024-02-26,1.0365791352180391,1.041736375242334,0.49752496930302037,0,True
2024-02-27,1.041736375242334,1.0407965508207708,-0.09021710712027176,1,True
2024-02-28,1.0407965508207708,1.040686069583523,-0.010615065659158596,1,True
2024-02-29,1.040686069583523,1.0602108047498338,1.8761407245630357,5,True
2024-03-01,1.0602108047498338,1.0559732722532733,-0.3996877297963719,1,True
2024-03-02,1.0559732722532733,1.0554329173263735,-0.051171269301808486,1,True
2024-03-03,1.0554329173263735,1.057772010013081,0.22162400360157264,6,True
2024-03-04,1.057772010013081,1.0849008514566454,2.56471538164722,0,True
2024-03-05,1.0849008514566454,1.0772354483544326,-0.7065533308339478,5,True
2024-03-06,1.0772354483544326,1.052270012596441,-2.3175468089291384,3,True
2024-03-07,1.052270012596441,1.052270012596441,0.0,0,False
2024-03-08,1.052270012596441,1.0528587646417051,0.05595066268317961,2,True
2024-03-09,1.0528587646417051,1.0500283983342504,-0.2688267792896104,3,True
2024-03-10,1.0500283983342504,1.062035988409467,1.143549078697803,2,True
2024-03-11,1.062035988409467,1.0548019705983267,-0.6811462031502513,0,True
2024-03-12,1.0548019705983267,1.0508702366488252,-0.3727461702855317,1,True
2024-03-13,1.0508702366488252,1.0548457511516727,0.37830688930016176,2,True
2024-03-14,1.0548457511516727,1.0636520182499367,0.8348393202180837,1,True
2024-03-15,1.0636520182499367,1.041846188193226,-2.050090601302923,6,True
2024-03-16,1.041846188193226,1.0397442383389104,-0.20175241586867232,1,True
2024-03-17,1.0397442383389104,1.0170330584280103,-2.184304473490839,4,True
2024-03-18,1.0170330584280103,1.0170330584280103,0.0,0,False
2024-03-19,1.0170330584280103,0.9956588724618051,-2.101621553899391,7,True
2024-03-20,0.9956588724618051,0.9956588724618051,0.0,0,False
2024-03-21,0.9956588724618051,0.9983279526267387,0.26807175015015616,2,True
2024-03-22,0.9983279526267387,0.999109149455507,0.07825052145569167,0,True
2024-03-23,0.999109149455507,1.0006371978242614,0.15294108452386102,1,True
2024-03-24,1.0006371978242614,0.9981300660304191,-0.25055352722183066,2,True
2024-03-25,0.9981300660304191,1.0058409875238525,0.7725367420400309,2,True
2024-03-26,1.0058409875238525,1.019056141102723,1.3138412276679112,2,True
2024-03-27,1.019056141102723,1.0130390287754703,-0.5904593559233784,3,True
2024-03-28,1.0130390287754703,1.0089193908192577,-0.40666132687821044,0,True
2024-03-29,1.0089193908192577,0.9978696348485626,-1.0952070176510897,4,True
2024-03-30,0.9978696348485626,0.9977877132464374,-0.008209649764279181,0,True
2024-03-31,0.9977877132464374,0.9977877132464374,0.0,0,False
2024-04-01,0.9977877132464374,0.9961003392804765,-0.169111519771159,4,True
2024-04-02,0.9961003392804765,0.9750188041309465,-2.1164067833525646,5,True
2024-04-03,0.9750188041309465,0.9725849845439604,-0.24961770754313717,1,True
2024-04-04,0.9725849845439604,0.9723018383709687,-0.029112743615344883,1,True
2024-04-05,0.9723018383709687,0.9652142455052884,-0.728949857541672,3,True
2024-04-06,0.9652142455052884,0.9650067227515906,-0.021500175185373838,1,True
2024-04-07,0.9650067227515906,0.9722302709144328,0.7485489989380811,1,True
2024-04-08,0.9722302709144328,0.9684277261097005,-0.39111565628950906,0,True
2024-04-09,0.9684277261097005,0.9660122323235254,-0.24942426998434408,1,True
2024-04-10,0.9660122323235254,0.9605424351023093,-0.5662244263780924,5,True
2024-04-11,0.9605424351023093,0.9648810966938061,0.451688695152197,1,True
2024-04-12,0.9648810966938061,0.9631169142833516,-0.18283935880799573,3,True
2024-04-13,0.9631169142833516,0.9500884772814256,-1.3527368078277702,7,True
2024-04-14,0.9500884772814256,0.9257245341831307,-2.5643867577480495,10,True
2024-04-15,0.9257245341831307,0.9257245341831307,0.0,0,False
2024-04-16,0.9257245341831307,0.9257245341831307,0.0,0,False
2024-04-17,0.9257245341831307,0.9257245341831307,0.0,0,False
2024-04-18,0.9257245341831307,0.9257245341831307,0.0,0,False
2024-04-19,0.9257245341831307,0.9257245341831307,0.0,0,False
2024-04-20,0.9257245341831307,0.9257245341831307,0.0,0,False
2024-04-21,0.9257245341831307,0.9257245341831307,0.0,0,False
2024-04-22,0.9257245341831307,0.9257245341831307,0.0,0,False
2024-04-23,0.9257245341831307,0.9257245341831307,0.0,0,False
2024-04-24,0.9257245341831307,0.9257245341831307,0.0,0,False
2024-04-25,0.9257245341831307,0.9257245341831307,0.0,0,False
2024-04-26,0.9257245341831307,0.9257245341831307,0.0,0,False
2024-04-27,0.9257245341831307,0.9257245341831307,0.0,0,False
2024-04-28,0.9257245341831307,0.9257245341831307,0.0,0,False
2024-04-29,0.9257245341831307,0.9257245341831307,0.0,0,False
2024-04-30,0.9257245341831307,0.9257245341831307,0.0,0,False
2024-05-01,0.9257245341831307,0.9257245341831307,0.0,0,False
2024-05-02,0.9257245341831307,0.9257245341831307,0.0,0,False
2024-05-03,0.9257245341831307,0.9257245341831307,0.0,0,False
2024-05-04,0.9257245341831307,0.9257245341831307,0.0,0,False
2024-05-05,0.9257245341831307,0.9257245341831307,0.0,0,False
2024-05-06,0.9257245341831307,0.9257245341831307,0.0,0,False
2024-05-07,0.9257245341831307,0.9257245341831307,0.0,0,False
2024-05-08,0.9257245341831307,0.9257245341831307,0.0,0,False
2024-05-09,0.9257245341831307,0.9257245341831307,0.0,0,False
2024-05-10,0.9257245341831307,0.9257245341831307,0.0,0,False
2024-05-11,0.9257245341831307,0.9257245341831307,0.0,0,False
2024-05-12,0.9257245341831307,0.9257245341831307,0.0,0,False
2024-05-13,0.9257245341831307,0.9257245341831307,0.0,0,False
2024-05-14,0.9257245341831307,0.9257245341831307,0.0,0,False
2024-05-15,0.9257245341831307,0.9257245341831307,0.0,0,False
2024-05-16,0.9257245341831307,0.9257245341831307,0.0,0,False
2024-05-17,0.9257245341831307,0.9257245341831307,0.0,0,False
2024-05-18,0.9257245341831307,0.9257245341831307,0.0,0,False
2024-05-19,0.9257245341831307,0.9257245341831307,0.0,0,False
2024-05-20,0.9257245341831307,0.9257245341831307,0.0,0,False
2024-05-21,0.9257245341831307,0.9257245341831307,0.0,0,False
2024-05-22,0.9257245341831307,0.9257245341831307,0.0,0,False
2024-05-23,0.9257245341831307,0.9257245341831307,0.0,0,False
2024-05-24,0.9257245341831307,0.9257245341831307,0.0,0,False
2024-05-25,0.9257245341831307,0.9257245341831307,0.0,0,False
2024-05-26,0.9257245341831307,0.9257245341831307,0.0,0,False
2024-05-27,0.9257245341831307,0.9257245341831307,0.0,0,False
2024-05-28,0.9257245341831307,0.9257245341831307,0.0,0,False
2024-05-29,0.9257245341831307,0.9257245341831307,0.0,0,False
2024-05-30,0.9257245341831307,0.9257245341831307,0.0,0,False
2024-05-31,0.9257245341831307,0.9257245341831307,0.0,0,False
2024-06-01,0.9257245341831307,0.9257245341831307,0.0,0,False
2024-06-02,0.9257245341831307,0.9257245341831307,0.0,0,False
2024-06-03,0.9257245341831307,0.9257245341831307,0.0,0,False
2024-06-04,0.9257245341831307,0.9257245341831307,0.0,0,False
2024-06-05,0.9257245341831307,0.9257245341831307,0.0,0,False
2024-06-06,0.9257245341831307,0.9257245341831307,0.0,0,False
2024-06-07,0.9257245341831307,0.9257245341831307,0.0,0,False
2024-06-08,0.9257245341831307,0.9257245341831307,0.0,0,False
2024-06-09,0.9257245341831307,0.9257245341831307,0.0,0,False
2024-06-10,0.9257245341831307,0.9257245341831307,0.0,0,False
2024-06-11,0.9257245341831307,0.9257245341831307,0.0,0,False
2024-06-12,0.9257245341831307,0.9257245341831307,0.0,0,False
2024-06-13,0.9257245341831307,0.9257245341831307,0.0,0,False
2024-06-14,0.9257245341831307,0.9257245341831307,0.0,0,False
2024-06-15,0.9257245341831307,0.9257245341831307,0.0,0,False
2024-06-16,0.9257245341831307,0.9257245341831307,0.0,0,False
2024-06-17,0.9257245341831307,0.9257245341831307,0.0,0,False
2024-06-18,0.9257245341831307,0.9257245341831307,0.0,0,False
2024-06-19,0.9257245341831307,0.9257245341831307,0.0,0,False
2024-06-20,0.9257245341831307,0.9257245341831307,0.0,0,False
2024-06-21,0.9257245341831307,0.9257245341831307,0.0,0,False
2024-06-22,0.9257245341831307,0.9257245341831307,0.0,0,False
2024-06-23,0.9257245341831307,0.9257245341831307,0.0,0,False
2024-06-24,0.9257245341831307,0.9257245341831307,0.0,0,False
2024-06-25,0.9257245341831307,0.9257245341831307,0.0,0,False
2024-06-26,0.9257245341831307,0.9257245341831307,0.0,0,False
2024-06-27,0.9257245341831307,0.9257245341831307,0.0,0,False
2024-06-28,0.9257245341831307,0.9257245341831307,0.0,0,False
2024-06-29,0.9257245341831307,0.9257245341831307,0.0,0,False
2024-06-30,0.9257245341831307,0.9257245341831307,0.0,0,False
2024-07-01,0.9257245341831307,0.9257245341831307,0.0,0,False
2024-07-02,0.9257245341831307,0.9257245341831307,0.0,0,False
2024-07-03,0.9257245341831307,0.9257245341831307,0.0,0,False
2024-07-04,0.9257245341831307,0.9257245341831307,0.0,0,False
2024-07-05,0.9257245341831307,0.9257245341831307,0.0,0,False
2024-07-06,0.9257245341831307,0.9257245341831307,0.0,0,False
2024-07-07,0.9257245341831307,0.9257245341831307,0.0,0,False
2024-07-08,0.9257245341831307,0.9257245341831307,0.0,0,False
2024-07-09,0.9257245341831307,0.9257245341831307,0.0,0,False
2024-07-10,0.9257245341831307,0.9257245341831307,0.0,0,False
2024-07-11,0.9257245341831307,0.9257245341831307,0.0,0,False
2024-07-12,0.9257245341831307,0.9257245341831307,0.0,0,False
2024-07-13,0.9257245341831307,0.9257245341831307,0.0,0,False
2024-07-14,0.9257245341831307,0.9257245341831307,0.0,0,False
2024-07-15,0.9257245341831307,0.9257245341831307,0.0,0,False
2024-07-16,0.9257245341831307,0.9257245341831307,0.0,0,False
2024-07-17,0.9257245341831307,0.9257245341831307,0.0,0,False
2024-07-18,0.9257245341831307,0.9257245341831307,0.0,0,False
2024-07-19,0.9257245341831307,0.9257245341831307,0.0,0,False
2024-07-20,0.9257245341831307,0.9257245341831307,0.0,0,False
2024-07-21,0.9257245341831307,0.9257245341831307,0.0,0,False
2024-07-22,0.9257245341831307,0.9257245341831307,0.0,0,False
2024-07-23,0.9257245341831307,0.9257245341831307,0.0,0,False
2024-07-24,0.9257245341831307,0.9257245341831307,0.0,0,False
2024-07-25,0.9257245341831307,0.9257245341831307,0.0,0,False
2024-07-26,0.9257245341831307,0.9257245341831307,0.0,0,False
2024-07-27,0.9257245341831307,0.9257245341831307,0.0,0,False
2024-07-28,0.9257245341831307,0.9257245341831307,0.0,0,False
2024-07-29,0.9257245341831307,0.9257245341831307,0.0,0,False
2024-07-30,0.9257245341831307,0.9257245341831307,0.0,0,False
2024-07-31,0.9257245341831307,0.9257245341831307,0.0,0,False
2024-08-01,0.9257245341831307,0.9257245341831307,0.0,0,False
2024-08-02,0.9257245341831307,0.9257245341831307,0.0,0,False
2024-08-03,0.9257245341831307,0.9257245341831307,0.0,0,False
2024-08-04,0.9257245341831307,0.9257245341831307,0.0,0,False
2024-08-05,0.9257245341831307,0.9257245341831307,0.0,0,False
2024-08-06,0.9257245341831307,0.9257245341831307,0.0,0,False
2024-08-07,0.9257245341831307,0.9257245341831307,0.0,0,False
2024-08-08,0.9257245341831307,0.9257245341831307,0.0,0,False
2024-08-09,0.9257245341831307,0.9257245341831307,0.0,0,False
2024-08-10,0.9257245341831307,0.9257245341831307,0.0,0,False
2024-08-11,0.9257245341831307,0.9257245341831307,0.0,0,False
2024-08-12,0.9257245341831307,0.9257245341831307,0.0,0,False
2024-08-13,0.9257245341831307,0.9257245341831307,0.0,0,False
2024-08-14,0.9257245341831307,0.9257245341831307,0.0,0,False
2024-08-15,0.9257245341831307,0.9257245341831307,0.0,0,False
2024-08-16,0.9257245341831307,0.9257245341831307,0.0,0,False
2024-08-17,0.9257245341831307,0.9257245341831307,0.0,0,False
2024-08-18,0.9257245341831307,0.9257245341831307,0.0,0,False
2024-08-19,0.9257245341831307,0.9257245341831307,0.0,0,False
2024-08-20,0.9257245341831307,0.9257245341831307,0.0,0,False
2024-08-21,0.9257245341831307,0.9257245341831307,0.0,0,False
2024-08-22,0.9257245341831307,0.9257245341831307,0.0,0,False
2024-08-23,0.9257245341831307,0.9257245341831307,0.0,0,False
2024-08-24,0.9257245341831307,0.9257245341831307,0.0,0,False
2024-08-25,0.9257245341831307,0.9257245341831307,0.0,0,False
2024-08-26,0.9257245341831307,0.9257245341831307,0.0,0,False
2024-08-27,0.9257245341831307,0.9257245341831307,0.0,0,False
2024-08-28,0.9257245341831307,0.9257245341831307,0.0,0,False
2024-08-29,0.9257245341831307,0.9257245341831307,0.0,0,False
2024-08-30,0.9257245341831307,0.9257245341831307,0.0,0,False
2024-08-31,0.9257245341831307,0.9257245341831307,0.0,0,False
2024-09-01,0.9257245341831307,0.9257245341831307,0.0,0,False
2024-09-02,0.9257245341831307,0.9257245341831307,0.0,0,False
2024-09-03,0.9257245341831307,0.9257245341831307,0.0,0,False
2024-09-04,0.9257245341831307,0.9257245341831307,0.0,0,False
2024-09-05,0.9257245341831307,0.9257245341831307,0.0,0,False
2024-09-06,0.9257245341831307,0.9257245341831307,0.0,0,False
2024-09-07,0.9257245341831307,0.9257245341831307,0.0,0,False
2024-09-08,0.9257245341831307,0.9257245341831307,0.0,0,False
2024-09-09,0.9257245341831307,0.9257245341831307,0.0,0,False
2024-09-10,0.9257245341831307,0.9257245341831307,0.0,0,False
2024-09-11,0.9257245341831307,0.9257245341831307,0.0,0,False
2024-09-12,0.9257245341831307,0.9257245341831307,0.0,0,False
2024-09-13,0.9257245341831307,0.9257245341831307,0.0,0,False
2024-09-14,0.9257245341831307,0.9257245341831307,0.0,0,False
2024-09-15,0.9257245341831307,0.9257245341831307,0.0,0,False
2024-09-16,0.9257245341831307,0.9257245341831307,0.0,0,False
2024-09-17,0.9257245341831307,0.9257245341831307,0.0,0,False
2024-09-18,0.9257245341831307,0.9257245341831307,0.0,0,False
2024-09-19,0.9257245341831307,0.9257245341831307,0.0,0,False
2024-09-20,0.9257245341831307,0.9257245341831307,0.0,0,False
2024-09-21,0.9257245341831307,0.9257245341831307,0.0,0,False
2024-09-22,0.9257245341831307,0.9257245341831307,0.0,0,False
2024-09-23,0.9257245341831307,0.9257245341831307,0.0,0,False
2024-09-24,0.9257245341831307,0.9257245341831307,0.0,0,False
2024-09-25,0.9257245341831307,0.9257245341831307,0.0,0,False
2024-09-26,0.9257245341831307,0.9257245341831307,0.0,0,False
2024-09-27,0.9257245341831307,0.9257245341831307,0.0,0,False
2024-09-28,0.9257245341831307,0.9257245341831307,0.0,0,False
2024-09-29,0.9257245341831307,0.9257245341831307,0.0,0,False
2024-09-30,0.9257245341831307,0.9257245341831307,0.0,0,False
2024-10-01,0.9257245341831307,0.9257245341831307,0.0,0,False
2024-10-02,0.9257245341831307,0.9257245341831307,0.0,0,False
2024-10-03,0.9257245341831307,0.9257245341831307,0.0,0,False
2024-10-04,0.9257245341831307,0.9257245341831307,0.0,0,False
2024-10-05,0.9257245341831307,0.9257245341831307,0.0,0,False
2024-10-06,0.9257245341831307,0.9257245341831307,0.0,0,False
2024-10-07,0.9257245341831307,0.9257245341831307,0.0,0,False
2024-10-08,0.9257245341831307,0.9257245341831307,0.0,0,False
2024-10-09,0.9257245341831307,0.9257245341831307,0.0,0,False
2024-10-10,0.9257245341831307,0.9257245341831307,0.0,0,False
2024-10-11,0.9257245341831307,0.9257245341831307,0.0,0,False
2024-10-12,0.9257245341831307,0.9257245341831307,0.0,0,False
2024-10-13,0.9257245341831307,0.9257245341831307,0.0,0,False
2024-10-14,0.9257245341831307,0.9257245341831307,0.0,0,False
2024-10-15,0.9257245341831307,0.9257245341831307,0.0,0,False
2024-10-16,0.9257245341831307,0.9257245341831307,0.0,0,False
2024-10-17,0.9257245341831307,0.9257245341831307,0.0,0,False
2024-10-18,0.9257245341831307,0.9257245341831307,0.0,0,False
2024-10-19,0.9257245341831307,0.9257245341831307,0.0,0,False
2024-10-20,0.9257245341831307,0.9257245341831307,0.0,0,False
2024-10-21,0.9257245341831307,0.9257245341831307,0.0,0,False
2024-10-22,0.9257245341831307,0.9257245341831307,0.0,0,False
2024-10-23,0.9257245341831307,0.9257245341831307,0.0,0,False
2024-10-24,0.9257245341831307,0.9257245341831307,0.0,0,False
2024-10-25,0.9257245341831307,0.9257245341831307,0.0,0,False
2024-10-26,0.9257245341831307,0.9257245341831307,0.0,0,False
2024-10-27,0.9257245341831307,0.9257245341831307,0.0,0,False
2024-10-28,0.9257245341831307,0.9257245341831307,0.0,0,False
2024-10-29,0.9257245341831307,0.9257245341831307,0.0,0,False
2024-10-30,0.9257245341831307,0.9257245341831307,0.0,0,False
2024-10-31,0.9257245341831307,0.9257245341831307,0.0,0,False
2024-11-01,0.9257245341831307,0.9257245341831307,0.0,0,False
2024-11-02,0.9257245341831307,0.9257245341831307,0.0,0,False
2024-11-03,0.9257245341831307,0.9257245341831307,0.0,0,False
2024-11-04,0.9257245341831307,0.9257245341831307,0.0,0,False
2024-11-05,0.9257245341831307,0.9257245341831307,0.0,0,False
2024-11-06,0.9257245341831307,0.9257245341831307,0.0,0,False
2024-11-07,0.9257245341831307,0.9257245341831307,0.0,0,False
2024-11-08,0.9257245341831307,0.9257245341831307,0.0,0,False
2024-11-09,0.9257245341831307,0.9257245341831307,0.0,0,False
2024-11-10,0.9257245341831307,0.9257245341831307,0.0,0,False
2024-11-11,0.9257245341831307,0.9257245341831307,0.0,0,False
2024-11-12,0.9257245341831307,0.9257245341831307,0.0,0,False
2024-11-13,0.9257245341831307,0.9257245341831307,0.0,0,False
2024-11-14,0.9257245341831307,0.9257245341831307,0.0,0,False
2024-11-15,0.9257245341831307,0.9257245341831307,0.0,0,False
2024-11-16,0.9257245341831307,0.9257245341831307,0.0,0,False
2024-11-17,0.9257245341831307,0.9257245341831307,0.0,0,False
2024-11-18,0.9257245341831307,0.9257245341831307,0.0,0,False
2024-11-19,0.9257245341831307,0.9257245341831307,0.0,0,False
2024-11-20,0.9257245341831307,0.9257245341831307,0.0,0,False
2024-11-21,0.9257245341831307,0.9257245341831307,0.0,0,False
2024-11-22,0.9257245341831307,0.9257245341831307,0.0,0,False
2024-11-23,0.9257245341831307,0.9257245341831307,0.0,0,False
2024-11-24,0.9257245341831307,0.9257245341831307,0.0,0,False
2024-11-25,0.9257245341831307,0.9257245341831307,0.0,0,False
2024-11-26,0.9257245341831307,0.9257245341831307,0.0,0,False
2024-11-27,0.9257245341831307,0.9257245341831307,0.0,0,False
2024-11-28,0.9257245341831307,0.9257245341831307,0.0,0,False
2024-11-29,0.9257245341831307,0.9257245341831307,0.0,0,False
2024-11-30,0.9257245341831307,0.9257245341831307,0.0,0,False
2024-12-01,0.9257245341831307,0.9257245341831307,0.0,0,False
2024-12-02,0.9257245341831307,0.9257245341831307,0.0,0,False
2024-12-03,0.9257245341831307,0.9257245341831307,0.0,0,False
2024-12-04,0.9257245341831307,0.9257245341831307,0.0,0,False
2024-12-05,0.9257245341831307,0.9257245341831307,0.0,0,False
2024-12-06,0.9257245341831307,0.9257245341831307,0.0,0,False
2024-12-07,0.9257245341831307,0.9257245341831307,0.0,0,False
2024-12-08,0.9257245341831307,0.9257245341831307,0.0,0,False
2024-12-09,0.9257245341831307,0.9257245341831307,0.0,0,False
2024-12-10,0.9257245341831307,0.9257245341831307,0.0,0,False
2024-12-11,0.9257245341831307,0.9257245341831307,0.0,0,False
2024-12-12,0.9257245341831307,0.9257245341831307,0.0,0,False
2024-12-13,0.9257245341831307,0.9257245341831307,0.0,0,False
2024-12-14,0.9257245341831307,0.9257245341831307,0.0,0,False
2024-12-15,0.9257245341831307,0.9257245341831307,0.0,0,False
2024-12-16,0.9257245341831307,0.9257245341831307,0.0,0,False
2024-12-17,0.9257245341831307,0.9257245341831307,0.0,0,False
2024-12-18,0.9257245341831307,0.9257245341831307,0.0,0,False
2024-12-19,0.9257245341831307,0.9257245341831307,0.0,0,False
2024-12-20,0.9257245341831307,0.9257245341831307,0.0,0,False
2024-12-21,0.9257245341831307,0.9257245341831307,0.0,0,False
2024-12-22,0.9257245341831307,0.9257245341831307,0.0,0,False
2024-12-23,0.9257245341831307,0.9257245341831307,0.0,0,False
2024-12-24,0.9257245341831307,0.9257245341831307,0.0,0,False
2024-12-25,0.9257245341831307,0.9257245341831307,0.0,0,False
2024-12-26,0.9257245341831307,0.9257245341831307,0.0,0,False
2024-12-27,0.9257245341831307,0.9257245341831307,0.0,0,False
2024-12-28,0.9257245341831307,0.9257245341831307,0.0,0,False
2024-12-29,0.9257245341831307,0.9257245341831307,0.0,0,False
2024-12-30,0.9257245341831307,0.9257245341831307,0.0,0,False
2024-12-31,0.9257245341831307,0.9257245341831307,0.0,0,False
