day,start_equity,end_equity,return_pct,entries,active
2021-09-02,1.0,1.0,0.0,0,False
2021-09-03,1.0,1.0,0.0,0,False
2021-09-04,1.0,1.0,0.0,0,False
2021-09-05,1.0,1.0,0.0,0,False
2021-09-06,1.0,1.0,0.0,0,False
2021-09-07,1.0,1.0,0.0,0,False
2021-09-08,1.0,1.0,0.0,0,False
2021-09-09,1.0,1.0,0.0,0,False
2021-09-10,1.0,1.0,0.0,0,False
2021-09-11,1.0,1.0,0.0,0,False
2021-09-12,1.0,1.0,0.0,0,False
2021-09-13,1.0,1.0,0.0,0,False
2021-09-14,1.0,1.0,0.0,0,False
2021-09-15,1.0,1.0,0.0,0,False
2021-09-16,1.0,1.0,0.0,0,False
2021-09-17,1.0,1.0,0.0,0,False
2021-09-18,1.0,1.0,0.0,0,False
2021-09-19,1.0,1.0,0.0,0,False
2021-09-20,1.0,1.0,0.0,0,False
2021-09-21,1.0,1.0,0.0,0,False
2021-09-22,1.0,1.0,0.0,0,False
2021-09-23,1.0,1.0,0.0,0,False
2021-09-24,1.0,1.0,0.0,0,False
2021-09-25,1.0,1.0,0.0,0,False
2021-09-26,1.0,1.0,0.0,0,False
2021-09-27,1.0,1.0,0.0,0,False
2021-09-28,1.0,1.0,0.0,0,False
2021-09-29,1.0,1.0,0.0,0,False
2021-09-30,1.0,1.0,0.0,0,False
2021-10-01,1.0,1.0,0.0,0,False
2021-10-02,1.0,1.0,0.0,0,False
2021-10-03,1.0,1.0,0.0,0,False
2021-10-04,1.0,1.0,0.0,0,False
2021-10-05,1.0,0.9995269898820623,-0.04730101179376556,1,True
2021-10-06,0.9995269898820623,1.0056430676177626,0.6118972071401441,3,True
2021-10-07,1.0056430676177626,0.9936933126372639,-1.1882700100350752,2,True
2021-10-08,0.9936933126372639,0.9932446030331727,-0.04515574356641627,1,True
2021-10-09,0.9932446030331727,0.9945406602133113,0.13048721092272508,2,True
2021-10-10,0.9945406602133113,1.0003335684935144,0.5824707336712143,1,True
2021-10-11,1.0003335684935144,0.9969949408072037,-0.3337514396661301,0,True
2021-10-12,0.9969949408072037,0.9969949408072037,0.0,0,False
2021-10-13,0.9969949408072037,1.0149910814926386,1.805038315526919,4,True
2021-10-14,1.0149910814926386,1.0324707987134787,1.7221547597378484,0,True
2021-10-15,1.0324707987134787,1.0324356947783746,-0.0033999930213801655,4,True
2021-10-16,1.0324356947783746,1.050960920379689,1.7943224643439892,2,True
2021-10-17,1.050960920379689,1.0506804202275306,-0.026689874639396205,0,True
2021-10-18,1.0506804202275306,1.0494119746212092,-0.12072611061380023,1,True
2021-10-19,1.0494119746212092,1.052220071039223,0.2675876096256191,0,True
2021-10-20,1.052220071039223,1.052220071039223,0.0,0,False
2021-10-21,1.052220071039223,1.052220071039223,0.0,0,False
2021-10-22,1.052220071039223,1.052220071039223,0.0,0,False
2021-10-23,1.052220071039223,1.052220071039223,0.0,0,False
2021-10-24,1.052220071039223,1.052220071039223,0.0,0,False
2021-10-25,1.052220071039223,1.0660240943509707,1.3118950770549365,2,True
2021-10-26,1.0660240943509707,1.0667025435574273,0.06364295235463668,0,True
2021-10-27,1.0667025435574273,1.061560121003312,-0.48208589968908866,7,True
2021-10-28,1.061560121003312,1.0642476767602693,0.2531703766732729,2,True
2021-10-29,1.0642476767602693,1.0609165071864537,-0.3130069857381512,0,True
2021-10-30,1.0609165071864537,1.061415910155399,0.0470727871196841,2,True
2021-10-31,1.061415910155399,1.0544170929336896,-0.659384992701384,1,True
2021-11-01,1.0544170929336896,1.0659891804176038,1.0974867119915022,2,True
2021-11-02,1.0659891804176038,1.069471391254753,0.3266647449259308,1,True
2021-11-03,1.069471391254753,1.067800049572367,-0.15627736244774315,1,True
2021-11-04,1.067800049572367,1.0941682159785104,2.4693917570713264,1,True
2021-11-05,1.0941682159785104,1.071636210511652,-2.059281666001256,3,True
2021-11-06,1.071636210511652,1.0609144051281976,-1.0005079408743733,2,True
2021-11-07,1.0609144051281976,1.061446955105767,0.050197261437423535,0,True
2021-11-08,1.061446955105767,1.061446955105767,0.0,0,False
2021-11-09,1.061446955105767,1.061446955105767,0.0,0,False
2021-11-10,1.061446955105767,1.061446955105767,0.0,0,False
2021-11-11,1.061446955105767,1.0381965067797774,-2.190448445318016,7,True
2021-11-12,1.0381965067797774,1.0330143696952352,-0.49914799854372527,1,True
2021-11-13,1.0330143696952352,1.03160002784033,-0.13691405428586378,1,True
2021-11-14,1.03160002784033,1.032043091568693,0.04294917762754924,0,True
2021-11-15,1.032043091568693,1.032043091568693,0.0,0,False
2021-11-16,1.032043091568693,1.0443003903092338,1.1876731544135488,7,True
2021-11-17,1.0443003903092338,1.0213522135579647,-2.1974689432485817,0,True
2021-11-18,1.0213522135579647,1.0123641745048961,-0.8800136655853441,4,True
2021-11-19,1.0123641745048961,1.0351632695956143,2.252064589491054,4,True
2021-11-20,1.0351632695956143,1.035631633784514,0.04524544124160368,0,True
2021-11-21,1.035631633784514,1.0316765850032918,-0.3818972549891275,1,True
2021-11-22,1.0316765850032918,1.0166522732770515,-1.4563005446316613,4,True
2021-11-23,1.0166522732770515,1.0136865569092477,-0.291713936589566,0,True
2021-11-24,1.0136865569092477,1.009039744077499,-0.4584072660405947,2,True
2021-11-25,1.009039744077499,1.00793245489883,-0.10973692415666703,4,True
2021-11-26,1.00793245489883,0.9863414972276674,-2.142103626708769,4,True
2021-11-27,0.9863414972276674,0.9863414972276674,0.0,0,False
2021-11-28,0.9863414972276674,0.9791883963179886,-0.7252154481773521,7,True
2021-11-29,0.9791883963179886,0.9768235138425643,-0.24151455269658673,1,True
2021-11-30,0.9768235138425643,0.9717776910460347,-0.5165541907033555,3,True
2021-12-01,0.9717776910460347,0.9688290637548613,-0.3034261146702688,1,True
2021-12-02,0.9688290637548613,0.9661051516418938,-0.28115507831799613,5,True
2021-12-03,0.9661051516418938,0.9575409529964365,-0.8864665125636106,2,True
2021-12-04,0.9575409529964365,0.9371334359514605,-2.131242218007978,10,True
2021-12-05,0.9371334359514605,0.9322773706541536,-0.5181829087526402,3,True
2021-12-06,0.9322773706541536,0.9298393096287256,-0.2615167011634334,1,True
2021-12-07,0.9298393096287256,0.9298393096287256,0.0,0,False
2021-12-08,0.9298393096287256,0.9298393096287256,0.0,0,False
2021-12-09,0.9298393096287256,0.9298393096287256,0.0,0,False
2021-12-10,0.9298393096287256,0.9298393096287256,0.0,0,False
2021-12-11,0.9298393096287256,0.9298393096287256,0.0,0,False
2021-12-12,0.9298393096287256,0.9298393096287256,0.0,0,False
2021-12-13,0.9298393096287256,0.9298393096287256,0.0,0,False
2021-12-14,0.9298393096287256,0.9298393096287256,0.0,0,False
2021-12-15,0.9298393096287256,0.9298393096287256,0.0,0,False
2021-12-16,0.9298393096287256,0.9298393096287256,0.0,0,False
2021-12-17,0.9298393096287256,0.9298393096287256,0.0,0,False
2021-12-18,0.9298393096287256,0.9298393096287256,0.0,0,False
2021-12-19,0.9298393096287256,0.9298393096287256,0.0,0,False
2021-12-20,0.9298393096287256,0.9298393096287256,0.0,0,False
2021-12-21,0.9298393096287256,0.9298393096287256,0.0,0,False
2021-12-22,0.9298393096287256,0.9298393096287256,0.0,0,False
2021-12-23,0.9298393096287256,0.9298393096287256,0.0,0,False
2021-12-24,0.9298393096287256,0.9298393096287256,0.0,0,False
2021-12-25,0.9298393096287256,0.9298393096287256,0.0,0,False
2021-12-26,0.9298393096287256,0.9298393096287256,0.0,0,False
2021-12-27,0.9298393096287256,0.9298393096287256,0.0,0,False
2021-12-28,0.9298393096287256,0.9298393096287256,0.0,0,False
2021-12-29,0.9298393096287256,0.9298393096287256,0.0,0,False
2021-12-30,0.9298393096287256,0.9298393096287256,0.0,0,False
2021-12-31,0.9298393096287256,0.9298393096287256,0.0,0,False
2022-01-01,0.9298393096287256,0.9298393096287256,0.0,0,False
2022-01-02,0.9298393096287256,0.9298393096287256,0.0,0,False
2022-01-03,0.9298393096287256,0.9298393096287256,0.0,0,False
2022-01-04,0.9298393096287256,0.9298393096287256,0.0,0,False
2022-01-05,0.9298393096287256,0.9298393096287256,0.0,0,False
2022-01-06,0.9298393096287256,0.9298393096287256,0.0,0,False
2022-01-07,0.9298393096287256,0.9298393096287256,0.0,0,False
2022-01-08,0.9298393096287256,0.9298393096287256,0.0,0,False
2022-01-09,0.9298393096287256,0.9298393096287256,0.0,0,False
2022-01-10,0.9298393096287256,0.9298393096287256,0.0,0,False
2022-01-11,0.9298393096287256,0.9298393096287256,0.0,0,False
2022-01-12,0.9298393096287256,0.9298393096287256,0.0,0,False
2022-01-13,0.9298393096287256,0.9298393096287256,0.0,0,False
2022-01-14,0.9298393096287256,0.9298393096287256,0.0,0,False
2022-01-15,0.9298393096287256,0.9298393096287256,0.0,0,False
2022-01-16,0.9298393096287256,0.9298393096287256,0.0,0,False
2022-01-17,0.9298393096287256,0.9298393096287256,0.0,0,False
2022-01-18,0.9298393096287256,0.9298393096287256,0.0,0,False
2022-01-19,0.9298393096287256,0.9298393096287256,0.0,0,False
2022-01-20,0.9298393096287256,0.9298393096287256,0.0,0,False
2022-01-21,0.9298393096287256,0.9298393096287256,0.0,0,False
2022-01-22,0.9298393096287256,0.9298393096287256,0.0,0,False
2022-01-23,0.9298393096287256,0.9298393096287256,0.0,0,False
2022-01-24,0.9298393096287256,0.9298393096287256,0.0,0,False
2022-01-25,0.9298393096287256,0.9298393096287256,0.0,0,False
2022-01-26,0.9298393096287256,0.9298393096287256,0.0,0,False
2022-01-27,0.9298393096287256,0.9298393096287256,0.0,0,False
2022-01-28,0.9298393096287256,0.9298393096287256,0.0,0,False
2022-01-29,0.9298393096287256,0.9298393096287256,0.0,0,False
2022-01-30,0.9298393096287256,0.9298393096287256,0.0,0,False
2022-01-31,0.9298393096287256,0.9298393096287256,0.0,0,False
2022-02-01,0.9298393096287256,0.9298393096287256,0.0,0,False
2022-02-02,0.9298393096287256,0.9298393096287256,0.0,0,False
2022-02-03,0.9298393096287256,0.9298393096287256,0.0,0,False
2022-02-04,0.9298393096287256,0.9298393096287256,0.0,0,False
2022-02-05,0.9298393096287256,0.9298393096287256,0.0,0,False
2022-02-06,0.9298393096287256,0.9298393096287256,0.0,0,False
2022-02-07,0.9298393096287256,0.9298393096287256,0.0,0,False
2022-02-08,0.9298393096287256,0.9298393096287256,0.0,0,False
2022-02-09,0.9298393096287256,0.9298393096287256,0.0,0,False
2022-02-10,0.9298393096287256,0.9298393096287256,0.0,0,False
2022-02-11,0.9298393096287256,0.9298393096287256,0.0,0,False
2022-02-12,0.9298393096287256,0.9298393096287256,0.0,0,False
2022-02-13,0.9298393096287256,0.9298393096287256,0.0,0,False
2022-02-14,0.9298393096287256,0.9298393096287256,0.0,0,False
2022-02-15,0.9298393096287256,0.9298393096287256,0.0,0,False
2022-02-16,0.9298393096287256,0.9298393096287256,0.0,0,False
2022-02-17,0.9298393096287256,0.9298393096287256,0.0,0,False
2022-02-18,0.9298393096287256,0.9298393096287256,0.0,0,False
2022-02-19,0.9298393096287256,0.9298393096287256,0.0,0,False
2022-02-20,0.9298393096287256,0.9298393096287256,0.0,0,False
2022-02-21,0.9298393096287256,0.9298393096287256,0.0,0,False
2022-02-22,0.9298393096287256,0.9298393096287256,0.0,0,False
2022-02-23,0.9298393096287256,0.9298393096287256,0.0,0,False
2022-02-24,0.9298393096287256,0.9298393096287256,0.0,0,False
2022-02-25,0.9298393096287256,0.9298393096287256,0.0,0,False
2022-02-26,0.9298393096287256,0.9298393096287256,0.0,0,False
2022-02-27,0.9298393096287256,0.9298393096287256,0.0,0,False
2022-02-28,0.9298393096287256,0.9298393096287256,0.0,0,False
2022-03-01,0.9298393096287256,0.9298393096287256,0.0,0,False
2022-03-02,0.9298393096287256,0.9298393096287256,0.0,0,False
2022-03-03,0.9298393096287256,0.9298393096287256,0.0,0,False
2022-03-04,0.9298393096287256,0.9298393096287256,0.0,0,False
2022-03-05,0.9298393096287256,0.9298393096287256,0.0,0,False
2022-03-06,0.9298393096287256,0.9298393096287256,0.0,0,False
2022-03-07,0.9298393096287256,0.9298393096287256,0.0,0,False
2022-03-08,0.9298393096287256,0.9298393096287256,0.0,0,False
2022-03-09,0.9298393096287256,0.9298393096287256,0.0,0,False
2022-03-10,0.9298393096287256,0.9298393096287256,0.0,0,False
2022-03-11,0.9298393096287256,0.9298393096287256,0.0,0,False
2022-03-12,0.9298393096287256,0.9298393096287256,0.0,0,False
2022-03-13,0.9298393096287256,0.9298393096287256,0.0,0,False
2022-03-14,0.9298393096287256,0.9298393096287256,0.0,0,False
2022-03-15,0.9298393096287256,0.9298393096287256,0.0,0,False
2022-03-16,0.9298393096287256,0.9298393096287256,0.0,0,False
2022-03-17,0.9298393096287256,0.9298393096287256,0.0,0,False
2022-03-18,0.9298393096287256,0.9298393096287256,0.0,0,False
2022-03-19,0.9298393096287256,0.9298393096287256,0.0,0,False
2022-03-20,0.9298393096287256,0.9298393096287256,0.0,0,False
2022-03-21,0.9298393096287256,0.9298393096287256,0.0,0,False
2022-03-22,0.9298393096287256,0.9298393096287256,0.0,0,False
2022-03-23,0.9298393096287256,0.9298393096287256,0.0,0,False
2022-03-24,0.9298393096287256,0.9298393096287256,0.0,0,False
2022-03-25,0.9298393096287256,0.9298393096287256,0.0,0,False
2022-03-26,0.9298393096287256,0.9298393096287256,0.0,0,False
2022-03-27,0.9298393096287256,0.9298393096287256,0.0,0,False
2022-03-28,0.9298393096287256,0.9298393096287256,0.0,0,False
2022-03-29,0.9298393096287256,0.9298393096287256,0.0,0,False
2022-03-30,0.9298393096287256,0.9298393096287256,0.0,0,False
2022-03-31,0.9298393096287256,0.9298393096287256,0.0,0,False
2022-04-01,0.9298393096287256,0.9298393096287256,0.0,0,False
2022-04-02,0.9298393096287256,0.9298393096287256,0.0,0,False
2022-04-03,0.9298393096287256,0.9298393096287256,0.0,0,False
2022-04-04,0.9298393096287256,0.9298393096287256,0.0,0,False
2022-04-05,0.9298393096287256,0.9298393096287256,0.0,0,False
2022-04-06,0.9298393096287256,0.9298393096287256,0.0,0,False
2022-04-07,0.9298393096287256,0.9298393096287256,0.0,0,False
2022-04-08,0.9298393096287256,0.9298393096287256,0.0,0,False
2022-04-09,0.9298393096287256,0.9298393096287256,0.0,0,False
2022-04-10,0.9298393096287256,0.9298393096287256,0.0,0,False
2022-04-11,0.9298393096287256,0.9298393096287256,0.0,0,False
2022-04-12,0.9298393096287256,0.9298393096287256,0.0,0,False
2022-04-13,0.9298393096287256,0.9298393096287256,0.0,0,False
2022-04-14,0.9298393096287256,0.9298393096287256,0.0,0,False
2022-04-15,0.9298393096287256,0.9298393096287256,0.0,0,False
2022-04-16,0.9298393096287256,0.9298393096287256,0.0,0,False
2022-04-17,0.9298393096287256,0.9298393096287256,0.0,0,False
2022-04-18,0.9298393096287256,0.9298393096287256,0.0,0,False
2022-04-19,0.9298393096287256,0.9298393096287256,0.0,0,False
2022-04-20,0.9298393096287256,0.9298393096287256,0.0,0,False
2022-04-21,0.9298393096287256,0.9298393096287256,0.0,0,False
2022-04-22,0.9298393096287256,0.9298393096287256,0.0,0,False
2022-04-23,0.9298393096287256,0.9298393096287256,0.0,0,False
2022-04-24,0.9298393096287256,0.9298393096287256,0.0,0,False
2022-04-25,0.9298393096287256,0.9298393096287256,0.0,0,False
2022-04-26,0.9298393096287256,0.9298393096287256,0.0,0,False
2022-04-27,0.9298393096287256,0.9298393096287256,0.0,0,False
2022-04-28,0.9298393096287256,0.9298393096287256,0.0,0,False
2022-04-29,0.9298393096287256,0.9298393096287256,0.0,0,False
2022-04-30,0.9298393096287256,0.9298393096287256,0.0,0,False
2022-05-01,0.9298393096287256,0.9298393096287256,0.0,0,False
2022-05-02,0.9298393096287256,0.9298393096287256,0.0,0,False
2022-05-03,0.9298393096287256,0.9298393096287256,0.0,0,False
2022-05-04,0.9298393096287256,0.9298393096287256,0.0,0,False
2022-05-05,0.9298393096287256,0.9298393096287256,0.0,0,False
2022-05-06,0.9298393096287256,0.9298393096287256,0.0,0,False
2022-05-07,0.9298393096287256,0.9298393096287256,0.0,0,False
2022-05-08,0.9298393096287256,0.9298393096287256,0.0,0,False
2022-05-09,0.9298393096287256,0.9298393096287256,0.0,0,False
2022-05-10,0.9298393096287256,0.9298393096287256,0.0,0,False
2022-05-11,0.9298393096287256,0.9298393096287256,0.0,0,False
2022-05-12,0.9298393096287256,0.9298393096287256,0.0,0,False
2022-05-13,0.9298393096287256,0.9298393096287256,0.0,0,False
2022-05-14,0.9298393096287256,0.9298393096287256,0.0,0,False
2022-05-15,0.9298393096287256,0.9298393096287256,0.0,0,False
2022-05-16,0.9298393096287256,0.9298393096287256,0.0,0,False
2022-05-17,0.9298393096287256,0.9298393096287256,0.0,0,False
2022-05-18,0.9298393096287256,0.9298393096287256,0.0,0,False
2022-05-19,0.9298393096287256,0.9298393096287256,0.0,0,False
2022-05-20,0.9298393096287256,0.9298393096287256,0.0,0,False
2022-05-21,0.9298393096287256,0.9298393096287256,0.0,0,False
2022-05-22,0.9298393096287256,0.9298393096287256,0.0,0,False
2022-05-23,0.9298393096287256,0.9298393096287256,0.0,0,False
2022-05-24,0.9298393096287256,0.9298393096287256,0.0,0,False
2022-05-25,0.9298393096287256,0.9298393096287256,0.0,0,False
2022-05-26,0.9298393096287256,0.9298393096287256,0.0,0,False
2022-05-27,0.9298393096287256,0.9298393096287256,0.0,0,False
2022-05-28,0.9298393096287256,0.9298393096287256,0.0,0,False
2022-05-29,0.9298393096287256,0.9298393096287256,0.0,0,False
2022-05-30,0.9298393096287256,0.9298393096287256,0.0,0,False
2022-05-31,0.9298393096287256,0.9298393096287256,0.0,0,False
2022-06-01,0.9298393096287256,0.9298393096287256,0.0,0,False
2022-06-02,0.9298393096287256,0.9298393096287256,0.0,0,False
2022-06-03,0.9298393096287256,0.9298393096287256,0.0,0,False
2022-06-04,0.9298393096287256,0.9298393096287256,0.0,0,False
2022-06-05,0.9298393096287256,0.9298393096287256,0.0,0,False
2022-06-06,0.9298393096287256,0.9298393096287256,0.0,0,False
2022-06-07,0.9298393096287256,0.9298393096287256,0.0,0,False
2022-06-08,0.9298393096287256,0.9298393096287256,0.0,0,False
2022-06-09,0.9298393096287256,0.9298393096287256,0.0,0,False
2022-06-10,0.9298393096287256,0.9298393096287256,0.0,0,False
2022-06-11,0.9298393096287256,0.9298393096287256,0.0,0,False
2022-06-12,0.9298393096287256,0.9298393096287256,0.0,0,False
2022-06-13,0.9298393096287256,0.9298393096287256,0.0,0,False
2022-06-14,0.9298393096287256,0.9298393096287256,0.0,0,False
2022-06-15,0.9298393096287256,0.9298393096287256,0.0,0,False
2022-06-16,0.9298393096287256,0.9298393096287256,0.0,0,False
2022-06-17,0.9298393096287256,0.9298393096287256,0.0,0,False
2022-06-18,0.9298393096287256,0.9298393096287256,0.0,0,False
2022-06-19,0.9298393096287256,0.9298393096287256,0.0,0,False
2022-06-20,0.9298393096287256,0.9298393096287256,0.0,0,False
2022-06-21,0.9298393096287256,0.9298393096287256,0.0,0,False
2022-06-22,0.9298393096287256,0.9298393096287256,0.0,0,False
2022-06-23,0.9298393096287256,0.9298393096287256,0.0,0,False
2022-06-24,0.9298393096287256,0.9298393096287256,0.0,0,False
2022-06-25,0.9298393096287256,0.9298393096287256,0.0,0,False
2022-06-26,0.9298393096287256,0.9298393096287256,0.0,0,False
2022-06-27,0.9298393096287256,0.9298393096287256,0.0,0,False
2022-06-28,0.9298393096287256,0.9298393096287256,0.0,0,False
2022-06-29,0.9298393096287256,0.9298393096287256,0.0,0,False
2022-06-30,0.9298393096287256,0.9298393096287256,0.0,0,False
2022-07-01,0.9298393096287256,0.9298393096287256,0.0,0,False
2022-07-02,0.9298393096287256,0.9298393096287256,0.0,0,False
2022-07-03,0.9298393096287256,0.9298393096287256,0.0,0,False
2022-07-04,0.9298393096287256,0.9298393096287256,0.0,0,False
2022-07-05,0.9298393096287256,0.9298393096287256,0.0,0,False
2022-07-06,0.9298393096287256,0.9298393096287256,0.0,0,False
2022-07-07,0.9298393096287256,0.9298393096287256,0.0,0,False
2022-07-08,0.9298393096287256,0.9298393096287256,0.0,0,False
2022-07-09,0.9298393096287256,0.9298393096287256,0.0,0,False
2022-07-10,0.9298393096287256,0.9298393096287256,0.0,0,False
2022-07-11,0.9298393096287256,0.9298393096287256,0.0,0,False
2022-07-12,0.9298393096287256,0.9298393096287256,0.0,0,False
2022-07-13,0.9298393096287256,0.9298393096287256,0.0,0,False
2022-07-14,0.9298393096287256,0.9298393096287256,0.0,0,False
2022-07-15,0.9298393096287256,0.9298393096287256,0.0,0,False
2022-07-16,0.9298393096287256,0.9298393096287256,0.0,0,False
2022-07-17,0.9298393096287256,0.9298393096287256,0.0,0,False
2022-07-18,0.9298393096287256,0.9298393096287256,0.0,0,False
2022-07-19,0.9298393096287256,0.9298393096287256,0.0,0,False
2022-07-20,0.9298393096287256,0.9298393096287256,0.0,0,False
2022-07-21,0.9298393096287256,0.9298393096287256,0.0,0,False
2022-07-22,0.9298393096287256,0.9298393096287256,0.0,0,False
2022-07-23,0.9298393096287256,0.9298393096287256,0.0,0,False
2022-07-24,0.9298393096287256,0.9298393096287256,0.0,0,False
2022-07-25,0.9298393096287256,0.9298393096287256,0.0,0,False
2022-07-26,0.9298393096287256,0.9298393096287256,0.0,0,False
2022-07-27,0.9298393096287256,0.9298393096287256,0.0,0,False
2022-07-28,0.9298393096287256,0.9298393096287256,0.0,0,False
2022-07-29,0.9298393096287256,0.9298393096287256,0.0,0,False
2022-07-30,0.9298393096287256,0.9298393096287256,0.0,0,False
2022-07-31,0.9298393096287256,0.9298393096287256,0.0,0,False
2022-08-01,0.9298393096287256,0.9298393096287256,0.0,0,False
2022-08-02,0.9298393096287256,0.9298393096287256,0.0,0,False
2022-08-03,0.9298393096287256,0.9298393096287256,0.0,0,False
2022-08-04,0.9298393096287256,0.9298393096287256,0.0,0,False
2022-08-05,0.9298393096287256,0.9298393096287256,0.0,0,False
2022-08-06,0.9298393096287256,0.9298393096287256,0.0,0,False
2022-08-07,0.9298393096287256,0.9298393096287256,0.0,0,False
2022-08-08,0.9298393096287256,0.9298393096287256,0.0,0,False
2022-08-09,0.9298393096287256,0.9298393096287256,0.0,0,False
2022-08-10,0.9298393096287256,0.9298393096287256,0.0,0,False
2022-08-11,0.9298393096287256,0.9298393096287256,0.0,0,False
2022-08-12,0.9298393096287256,0.9298393096287256,0.0,0,False
2022-08-13,0.9298393096287256,0.9298393096287256,0.0,0,False
2022-08-14,0.9298393096287256,0.9298393096287256,0.0,0,False
2022-08-15,0.9298393096287256,0.9298393096287256,0.0,0,False
2022-08-16,0.9298393096287256,0.9298393096287256,0.0,0,False
2022-08-17,0.9298393096287256,0.9298393096287256,0.0,0,False
2022-08-18,0.9298393096287256,0.9298393096287256,0.0,0,False
2022-08-19,0.9298393096287256,0.9298393096287256,0.0,0,False
2022-08-20,0.9298393096287256,0.9298393096287256,0.0,0,False
2022-08-21,0.9298393096287256,0.9298393096287256,0.0,0,False
2022-08-22,0.9298393096287256,0.9298393096287256,0.0,0,False
2022-08-23,0.9298393096287256,0.9298393096287256,0.0,0,False
2022-08-24,0.9298393096287256,0.9298393096287256,0.0,0,False
2022-08-25,0.9298393096287256,0.9298393096287256,0.0,0,False
2022-08-26,0.9298393096287256,0.9298393096287256,0.0,0,False
2022-08-27,0.9298393096287256,0.9298393096287256,0.0,0,False
2022-08-28,0.9298393096287256,0.9298393096287256,0.0,0,False
2022-08-29,0.9298393096287256,0.9298393096287256,0.0,0,False
2022-08-30,0.9298393096287256,0.9298393096287256,0.0,0,False
2022-08-31,0.9298393096287256,0.9298393096287256,0.0,0,False
2022-09-01,0.9298393096287256,0.9298393096287256,0.0,0,False
2022-09-02,0.9298393096287256,0.9298393096287256,0.0,0,False
2022-09-03,0.9298393096287256,0.9298393096287256,0.0,0,False
2022-09-04,0.9298393096287256,0.9298393096287256,0.0,0,False
2022-09-05,0.9298393096287256,0.9298393096287256,0.0,0,False
2022-09-06,0.9298393096287256,0.9298393096287256,0.0,0,False
2022-09-07,0.9298393096287256,0.9298393096287256,0.0,0,False
2022-09-08,0.9298393096287256,0.9298393096287256,0.0,0,False
2022-09-09,0.9298393096287256,0.9298393096287256,0.0,0,False
2022-09-10,0.9298393096287256,0.9298393096287256,0.0,0,False
2022-09-11,0.9298393096287256,0.9298393096287256,0.0,0,False
2022-09-12,0.9298393096287256,0.9298393096287256,0.0,0,False
2022-09-13,0.9298393096287256,0.9298393096287256,0.0,0,False
2022-09-14,0.9298393096287256,0.9298393096287256,0.0,0,False
2022-09-15,0.9298393096287256,0.9298393096287256,0.0,0,False
2022-09-16,0.9298393096287256,0.9298393096287256,0.0,0,False
2022-09-17,0.9298393096287256,0.9298393096287256,0.0,0,False
2022-09-18,0.9298393096287256,0.9298393096287256,0.0,0,False
2022-09-19,0.9298393096287256,0.9298393096287256,0.0,0,False
2022-09-20,0.9298393096287256,0.9298393096287256,0.0,0,False
2022-09-21,0.9298393096287256,0.9298393096287256,0.0,0,False
2022-09-22,0.9298393096287256,0.9298393096287256,0.0,0,False
2022-09-23,0.9298393096287256,0.9298393096287256,0.0,0,False
2022-09-24,0.9298393096287256,0.9298393096287256,0.0,0,False
2022-09-25,0.9298393096287256,0.9298393096287256,0.0,0,False
2022-09-26,0.9298393096287256,0.9298393096287256,0.0,0,False
2022-09-27,0.9298393096287256,0.9298393096287256,0.0,0,False
2022-09-28,0.9298393096287256,0.9298393096287256,0.0,0,False
2022-09-29,0.9298393096287256,0.9298393096287256,0.0,0,False
2022-09-30,0.9298393096287256,0.9298393096287256,0.0,0,False
2022-10-01,0.9298393096287256,0.9298393096287256,0.0,0,False
2022-10-02,0.9298393096287256,0.9298393096287256,0.0,0,False
2022-10-03,0.9298393096287256,0.9298393096287256,0.0,0,False
2022-10-04,0.9298393096287256,0.9298393096287256,0.0,0,False
2022-10-05,0.9298393096287256,0.9298393096287256,0.0,0,False
2022-10-06,0.9298393096287256,0.9298393096287256,0.0,0,False
2022-10-07,0.9298393096287256,0.9298393096287256,0.0,0,False
2022-10-08,0.9298393096287256,0.9298393096287256,0.0,0,False
2022-10-09,0.9298393096287256,0.9298393096287256,0.0,0,False
2022-10-10,0.9298393096287256,0.9298393096287256,0.0,0,False
2022-10-11,0.9298393096287256,0.9298393096287256,0.0,0,False
2022-10-12,0.9298393096287256,0.9298393096287256,0.0,0,False
2022-10-13,0.9298393096287256,0.9298393096287256,0.0,0,False
2022-10-14,0.9298393096287256,0.9298393096287256,0.0,0,False
2022-10-15,0.9298393096287256,0.9298393096287256,0.0,0,False
2022-10-16,0.9298393096287256,0.9298393096287256,0.0,0,False
2022-10-17,0.9298393096287256,0.9298393096287256,0.0,0,False
2022-10-18,0.9298393096287256,0.9298393096287256,0.0,0,False
2022-10-19,0.9298393096287256,0.9298393096287256,0.0,0,False
2022-10-20,0.9298393096287256,0.9298393096287256,0.0,0,False
2022-10-21,0.9298393096287256,0.9298393096287256,0.0,0,False
2022-10-22,0.9298393096287256,0.9298393096287256,0.0,0,False
2022-10-23,0.9298393096287256,0.9298393096287256,0.0,0,False
2022-10-24,0.9298393096287256,0.9298393096287256,0.0,0,False
2022-10-25,0.9298393096287256,0.9298393096287256,0.0,0,False
2022-10-26,0.9298393096287256,0.9298393096287256,0.0,0,False
2022-10-27,0.9298393096287256,0.9298393096287256,0.0,0,False
2022-10-28,0.9298393096287256,0.9298393096287256,0.0,0,False
2022-10-29,0.9298393096287256,0.9298393096287256,0.0,0,False
2022-10-30,0.9298393096287256,0.9298393096287256,0.0,0,False
2022-10-31,0.9298393096287256,0.9298393096287256,0.0,0,False
2022-11-01,0.9298393096287256,0.9298393096287256,0.0,0,False
2022-11-02,0.9298393096287256,0.9298393096287256,0.0,0,False
2022-11-03,0.9298393096287256,0.9298393096287256,0.0,0,False
2022-11-04,0.9298393096287256,0.9298393096287256,0.0,0,False
2022-11-05,0.9298393096287256,0.9298393096287256,0.0,0,False
2022-11-06,0.9298393096287256,0.9298393096287256,0.0,0,False
2022-11-07,0.9298393096287256,0.9298393096287256,0.0,0,False
2022-11-08,0.9298393096287256,0.9298393096287256,0.0,0,False
2022-11-09,0.9298393096287256,0.9298393096287256,0.0,0,False
2022-11-10,0.9298393096287256,0.9298393096287256,0.0,0,False
2022-11-11,0.9298393096287256,0.9298393096287256,0.0,0,False
2022-11-12,0.9298393096287256,0.9298393096287256,0.0,0,False
2022-11-13,0.9298393096287256,0.9298393096287256,0.0,0,False
2022-11-14,0.9298393096287256,0.9298393096287256,0.0,0,False
2022-11-15,0.9298393096287256,0.9298393096287256,0.0,0,False
2022-11-16,0.9298393096287256,0.9298393096287256,0.0,0,False
2022-11-17,0.9298393096287256,0.9298393096287256,0.0,0,False
2022-11-18,0.9298393096287256,0.9298393096287256,0.0,0,False
2022-11-19,0.9298393096287256,0.9298393096287256,0.0,0,False
2022-11-20,0.9298393096287256,0.9298393096287256,0.0,0,False
2022-11-21,0.9298393096287256,0.9298393096287256,0.0,0,False
2022-11-22,0.9298393096287256,0.9298393096287256,0.0,0,False
2022-11-23,0.9298393096287256,0.9298393096287256,0.0,0,False
2022-11-24,0.9298393096287256,0.9298393096287256,0.0,0,False
2022-11-25,0.9298393096287256,0.9298393096287256,0.0,0,False
2022-11-26,0.9298393096287256,0.9298393096287256,0.0,0,False
2022-11-27,0.9298393096287256,0.9298393096287256,0.0,0,False
2022-11-28,0.9298393096287256,0.9298393096287256,0.0,0,False
2022-11-29,0.9298393096287256,0.9298393096287256,0.0,0,False
2022-11-30,0.9298393096287256,0.9298393096287256,0.0,0,False
2022-12-01,0.9298393096287256,0.9298393096287256,0.0,0,False
2022-12-02,0.9298393096287256,0.9298393096287256,0.0,0,False
2022-12-03,0.9298393096287256,0.9298393096287256,0.0,0,False
2022-12-04,0.9298393096287256,0.9298393096287256,0.0,0,False
2022-12-05,0.9298393096287256,0.9298393096287256,0.0,0,False
2022-12-06,0.9298393096287256,0.9298393096287256,0.0,0,False
2022-12-07,0.9298393096287256,0.9298393096287256,0.0,0,False
2022-12-08,0.9298393096287256,0.9298393096287256,0.0,0,False
2022-12-09,0.9298393096287256,0.9298393096287256,0.0,0,False
2022-12-10,0.9298393096287256,0.9298393096287256,0.0,0,False
2022-12-11,0.9298393096287256,0.9298393096287256,0.0,0,False
2022-12-12,0.9298393096287256,0.9298393096287256,0.0,0,False
2022-12-13,0.9298393096287256,0.9298393096287256,0.0,0,False
2022-12-14,0.9298393096287256,0.9298393096287256,0.0,0,False
2022-12-15,0.9298393096287256,0.9298393096287256,0.0,0,False
2022-12-16,0.9298393096287256,0.9298393096287256,0.0,0,False
2022-12-17,0.9298393096287256,0.9298393096287256,0.0,0,False
2022-12-18,0.9298393096287256,0.9298393096287256,0.0,0,False
2022-12-19,0.9298393096287256,0.9298393096287256,0.0,0,False
2022-12-20,0.9298393096287256,0.9298393096287256,0.0,0,False
2022-12-21,0.9298393096287256,0.9298393096287256,0.0,0,False
2022-12-22,0.9298393096287256,0.9298393096287256,0.0,0,False
2022-12-23,0.9298393096287256,0.9298393096287256,0.0,0,False
2022-12-24,0.9298393096287256,0.9298393096287256,0.0,0,False
2022-12-25,0.9298393096287256,0.9298393096287256,0.0,0,False
2022-12-26,0.9298393096287256,0.9298393096287256,0.0,0,False
2022-12-27,0.9298393096287256,0.9298393096287256,0.0,0,False
2022-12-28,0.9298393096287256,0.9298393096287256,0.0,0,False
2022-12-29,0.9298393096287256,0.9298393096287256,0.0,0,False
2022-12-30,0.9298393096287256,0.9298393096287256,0.0,0,False
2022-12-31,0.9298393096287256,0.9298393096287256,0.0,0,False
2023-01-01,0.9298393096287256,0.9298393096287256,0.0,0,False
2023-01-02,0.9298393096287256,0.9298393096287256,0.0,0,False
2023-01-03,0.9298393096287256,0.9298393096287256,0.0,0,False
2023-01-04,0.9298393096287256,0.9298393096287256,0.0,0,False
2023-01-05,0.9298393096287256,0.9298393096287256,0.0,0,False
2023-01-06,0.9298393096287256,0.9298393096287256,0.0,0,False
2023-01-07,0.9298393096287256,0.9298393096287256,0.0,0,False
2023-01-08,0.9298393096287256,0.9298393096287256,0.0,0,False
2023-01-09,0.9298393096287256,0.9298393096287256,0.0,0,False
2023-01-10,0.9298393096287256,0.9298393096287256,0.0,0,False
2023-01-11,0.9298393096287256,0.9298393096287256,0.0,0,False
2023-01-12,0.9298393096287256,0.9298393096287256,0.0,0,False
2023-01-13,0.9298393096287256,0.9298393096287256,0.0,0,False
2023-01-14,0.9298393096287256,0.9298393096287256,0.0,0,False
2023-01-15,0.9298393096287256,0.9298393096287256,0.0,0,False
2023-01-16,0.9298393096287256,0.9298393096287256,0.0,0,False
2023-01-17,0.9298393096287256,0.9298393096287256,0.0,0,False
2023-01-18,0.9298393096287256,0.9298393096287256,0.0,0,False
2023-01-19,0.9298393096287256,0.9298393096287256,0.0,0,False
2023-01-20,0.9298393096287256,0.9298393096287256,0.0,0,False
2023-01-21,0.9298393096287256,0.9298393096287256,0.0,0,False
2023-01-22,0.9298393096287256,0.9298393096287256,0.0,0,False
2023-01-23,0.9298393096287256,0.9298393096287256,0.0,0,False
2023-01-24,0.9298393096287256,0.9298393096287256,0.0,0,False
2023-01-25,0.9298393096287256,0.9298393096287256,0.0,0,False
2023-01-26,0.9298393096287256,0.9298393096287256,0.0,0,False
2023-01-27,0.9298393096287256,0.9298393096287256,0.0,0,False
2023-01-28,0.9298393096287256,0.9298393096287256,0.0,0,False
2023-01-29,0.9298393096287256,0.9298393096287256,0.0,0,False
2023-01-30,0.9298393096287256,0.9298393096287256,0.0,0,False
2023-01-31,0.9298393096287256,0.9298393096287256,0.0,0,False
2023-02-01,0.9298393096287256,0.9298393096287256,0.0,0,False
2023-02-02,0.9298393096287256,0.9298393096287256,0.0,0,False
2023-02-03,0.9298393096287256,0.9298393096287256,0.0,0,False
2023-02-04,0.9298393096287256,0.9298393096287256,0.0,0,False
2023-02-05,0.9298393096287256,0.9298393096287256,0.0,0,False
2023-02-06,0.9298393096287256,0.9298393096287256,0.0,0,False
2023-02-07,0.9298393096287256,0.9298393096287256,0.0,0,False
2023-02-08,0.9298393096287256,0.9298393096287256,0.0,0,False
2023-02-09,0.9298393096287256,0.9298393096287256,0.0,0,False
2023-02-10,0.9298393096287256,0.9298393096287256,0.0,0,False
2023-02-11,0.9298393096287256,0.9298393096287256,0.0,0,False
2023-02-12,0.9298393096287256,0.9298393096287256,0.0,0,False
2023-02-13,0.9298393096287256,0.9298393096287256,0.0,0,False
2023-02-14,0.9298393096287256,0.9298393096287256,0.0,0,False
2023-02-15,0.9298393096287256,0.9298393096287256,0.0,0,False
2023-02-16,0.9298393096287256,0.9298393096287256,0.0,0,False
2023-02-17,0.9298393096287256,0.9298393096287256,0.0,0,False
2023-02-18,0.9298393096287256,0.9298393096287256,0.0,0,False
2023-02-19,0.9298393096287256,0.9298393096287256,0.0,0,False
2023-02-20,0.9298393096287256,0.9298393096287256,0.0,0,False
2023-02-21,0.9298393096287256,0.9298393096287256,0.0,0,False
2023-02-22,0.9298393096287256,0.9298393096287256,0.0,0,False
2023-02-23,0.9298393096287256,0.9298393096287256,0.0,0,False
2023-02-24,0.9298393096287256,0.9298393096287256,0.0,0,False
2023-02-25,0.9298393096287256,0.9298393096287256,0.0,0,False
2023-02-26,0.9298393096287256,0.9298393096287256,0.0,0,False
2023-02-27,0.9298393096287256,0.9298393096287256,0.0,0,False
2023-02-28,0.9298393096287256,0.9298393096287256,0.0,0,False
2023-03-01,0.9298393096287256,0.9298393096287256,0.0,0,False
2023-03-02,0.9298393096287256,0.9298393096287256,0.0,0,False
2023-03-03,0.9298393096287256,0.9298393096287256,0.0,0,False
2023-03-04,0.9298393096287256,0.9298393096287256,0.0,0,False
2023-03-05,0.9298393096287256,0.9298393096287256,0.0,0,False
2023-03-06,0.9298393096287256,0.9298393096287256,0.0,0,False
2023-03-07,0.9298393096287256,0.9298393096287256,0.0,0,False
2023-03-08,0.9298393096287256,0.9298393096287256,0.0,0,False
2023-03-09,0.9298393096287256,0.9298393096287256,0.0,0,False
2023-03-10,0.9298393096287256,0.9298393096287256,0.0,0,False
2023-03-11,0.9298393096287256,0.9298393096287256,0.0,0,False
2023-03-12,0.9298393096287256,0.9298393096287256,0.0,0,False
2023-03-13,0.9298393096287256,0.9298393096287256,0.0,0,False
2023-03-14,0.9298393096287256,0.9298393096287256,0.0,0,False
2023-03-15,0.9298393096287256,0.9298393096287256,0.0,0,False
2023-03-16,0.9298393096287256,0.9298393096287256,0.0,0,False
2023-03-17,0.9298393096287256,0.9298393096287256,0.0,0,False
2023-03-18,0.9298393096287256,0.9298393096287256,0.0,0,False
2023-03-19,0.9298393096287256,0.9298393096287256,0.0,0,False
2023-03-20,0.9298393096287256,0.9298393096287256,0.0,0,False
2023-03-21,0.9298393096287256,0.9298393096287256,0.0,0,False
2023-03-22,0.9298393096287256,0.9298393096287256,0.0,0,False
2023-03-23,0.9298393096287256,0.9298393096287256,0.0,0,False
2023-03-24,0.9298393096287256,0.9298393096287256,0.0,0,False
2023-03-25,0.9298393096287256,0.9298393096287256,0.0,0,False
2023-03-26,0.9298393096287256,0.9298393096287256,0.0,0,False
2023-03-27,0.9298393096287256,0.9298393096287256,0.0,0,False
2023-03-28,0.9298393096287256,0.9298393096287256,0.0,0,False
2023-03-29,0.9298393096287256,0.9298393096287256,0.0,0,False
2023-03-30,0.9298393096287256,0.9298393096287256,0.0,0,False
2023-03-31,0.9298393096287256,0.9298393096287256,0.0,0,False
2023-04-01,0.9298393096287256,0.9298393096287256,0.0,0,False
2023-04-02,0.9298393096287256,0.9298393096287256,0.0,0,False
2023-04-03,0.9298393096287256,0.9298393096287256,0.0,0,False
2023-04-04,0.9298393096287256,0.9298393096287256,0.0,0,False
2023-04-05,0.9298393096287256,0.9298393096287256,0.0,0,False
2023-04-06,0.9298393096287256,0.9298393096287256,0.0,0,False
2023-04-07,0.9298393096287256,0.9298393096287256,0.0,0,False
2023-04-08,0.9298393096287256,0.9298393096287256,0.0,0,False
2023-04-09,0.9298393096287256,0.9298393096287256,0.0,0,False
2023-04-10,0.9298393096287256,0.9298393096287256,0.0,0,False
2023-04-11,0.9298393096287256,0.9298393096287256,0.0,0,False
2023-04-12,0.9298393096287256,0.9298393096287256,0.0,0,False
2023-04-13,0.9298393096287256,0.9298393096287256,0.0,0,False
2023-04-14,0.9298393096287256,0.9298393096287256,0.0,0,False
2023-04-15,0.9298393096287256,0.9298393096287256,0.0,0,False
2023-04-16,0.9298393096287256,0.9298393096287256,0.0,0,False
2023-04-17,0.9298393096287256,0.9298393096287256,0.0,0,False
2023-04-18,0.9298393096287256,0.9298393096287256,0.0,0,False
2023-04-19,0.9298393096287256,0.9298393096287256,0.0,0,False
2023-04-20,0.9298393096287256,0.9298393096287256,0.0,0,False
2023-04-21,0.9298393096287256,0.9298393096287256,0.0,0,False
2023-04-22,0.9298393096287256,0.9298393096287256,0.0,0,False
2023-04-23,0.9298393096287256,0.9298393096287256,0.0,0,False
2023-04-24,0.9298393096287256,0.9298393096287256,0.0,0,False
2023-04-25,0.9298393096287256,0.9298393096287256,0.0,0,False
2023-04-26,0.9298393096287256,0.9298393096287256,0.0,0,False
2023-04-27,0.9298393096287256,0.9298393096287256,0.0,0,False
2023-04-28,0.9298393096287256,0.9298393096287256,0.0,0,False
2023-04-29,0.9298393096287256,0.9298393096287256,0.0,0,False
2023-04-30,0.9298393096287256,0.9298393096287256,0.0,0,False
2023-05-01,0.9298393096287256,0.9298393096287256,0.0,0,False
2023-05-02,0.9298393096287256,0.9298393096287256,0.0,0,False
2023-05-03,0.9298393096287256,0.9298393096287256,0.0,0,False
2023-05-04,0.9298393096287256,0.9298393096287256,0.0,0,False
2023-05-05,0.9298393096287256,0.9298393096287256,0.0,0,False
2023-05-06,0.9298393096287256,0.9298393096287256,0.0,0,False
2023-05-07,0.9298393096287256,0.9298393096287256,0.0,0,False
2023-05-08,0.9298393096287256,0.9298393096287256,0.0,0,False
2023-05-09,0.9298393096287256,0.9298393096287256,0.0,0,False
2023-05-10,0.9298393096287256,0.9298393096287256,0.0,0,False
2023-05-11,0.9298393096287256,0.9298393096287256,0.0,0,False
2023-05-12,0.9298393096287256,0.9298393096287256,0.0,0,False
2023-05-13,0.9298393096287256,0.9298393096287256,0.0,0,False
2023-05-14,0.9298393096287256,0.9298393096287256,0.0,0,False
2023-05-15,0.9298393096287256,0.9298393096287256,0.0,0,False
2023-05-16,0.9298393096287256,0.9298393096287256,0.0,0,False
2023-05-17,0.9298393096287256,0.9298393096287256,0.0,0,False
2023-05-18,0.9298393096287256,0.9298393096287256,0.0,0,False
2023-05-19,0.9298393096287256,0.9298393096287256,0.0,0,False
2023-05-20,0.9298393096287256,0.9298393096287256,0.0,0,False
2023-05-21,0.9298393096287256,0.9298393096287256,0.0,0,False
2023-05-22,0.9298393096287256,0.9298393096287256,0.0,0,False
2023-05-23,0.9298393096287256,0.9298393096287256,0.0,0,False
2023-05-24,0.9298393096287256,0.9298393096287256,0.0,0,False
2023-05-25,0.9298393096287256,0.9298393096287256,0.0,0,False
2023-05-26,0.9298393096287256,0.9298393096287256,0.0,0,False
2023-05-27,0.9298393096287256,0.9298393096287256,0.0,0,False
2023-05-28,0.9298393096287256,0.9298393096287256,0.0,0,False
2023-05-29,0.9298393096287256,0.9298393096287256,0.0,0,False
2023-05-30,0.9298393096287256,0.9298393096287256,0.0,0,False
2023-05-31,0.9298393096287256,0.9298393096287256,0.0,0,False
2023-06-01,0.9298393096287256,0.9298393096287256,0.0,0,False
2023-06-02,0.9298393096287256,0.9298393096287256,0.0,0,False
2023-06-03,0.9298393096287256,0.9298393096287256,0.0,0,False
2023-06-04,0.9298393096287256,0.9298393096287256,0.0,0,False
2023-06-05,0.9298393096287256,0.9298393096287256,0.0,0,False
2023-06-06,0.9298393096287256,0.9298393096287256,0.0,0,False
2023-06-07,0.9298393096287256,0.9298393096287256,0.0,0,False
2023-06-08,0.9298393096287256,0.9298393096287256,0.0,0,False
2023-06-09,0.9298393096287256,0.9298393096287256,0.0,0,False
2023-06-10,0.9298393096287256,0.9298393096287256,0.0,0,False
2023-06-11,0.9298393096287256,0.9298393096287256,0.0,0,False
2023-06-12,0.9298393096287256,0.9298393096287256,0.0,0,False
2023-06-13,0.9298393096287256,0.9298393096287256,0.0,0,False
2023-06-14,0.9298393096287256,0.9298393096287256,0.0,0,False
2023-06-15,0.9298393096287256,0.9298393096287256,0.0,0,False
2023-06-16,0.9298393096287256,0.9298393096287256,0.0,0,False
2023-06-17,0.9298393096287256,0.9298393096287256,0.0,0,False
2023-06-18,0.9298393096287256,0.9298393096287256,0.0,0,False
2023-06-19,0.9298393096287256,0.9298393096287256,0.0,0,False
2023-06-20,0.9298393096287256,0.9298393096287256,0.0,0,False
2023-06-21,0.9298393096287256,0.9298393096287256,0.0,0,False
2023-06-22,0.9298393096287256,0.9298393096287256,0.0,0,False
2023-06-23,0.9298393096287256,0.9298393096287256,0.0,0,False
2023-06-24,0.9298393096287256,0.9298393096287256,0.0,0,False
2023-06-25,0.9298393096287256,0.9298393096287256,0.0,0,False
2023-06-26,0.9298393096287256,0.9298393096287256,0.0,0,False
2023-06-27,0.9298393096287256,0.9298393096287256,0.0,0,False
2023-06-28,0.9298393096287256,0.9298393096287256,0.0,0,False
2023-06-29,0.9298393096287256,0.9298393096287256,0.0,0,False
2023-06-30,0.9298393096287256,0.9298393096287256,0.0,0,False
2023-07-01,0.9298393096287256,0.9298393096287256,0.0,0,False
2023-07-02,0.9298393096287256,0.9298393096287256,0.0,0,False
2023-07-03,0.9298393096287256,0.9298393096287256,0.0,0,False
2023-07-04,0.9298393096287256,0.9298393096287256,0.0,0,False
2023-07-05,0.9298393096287256,0.9298393096287256,0.0,0,False
2023-07-06,0.9298393096287256,0.9298393096287256,0.0,0,False
2023-07-07,0.9298393096287256,0.9298393096287256,0.0,0,False
2023-07-08,0.9298393096287256,0.9298393096287256,0.0,0,False
2023-07-09,0.9298393096287256,0.9298393096287256,0.0,0,False
2023-07-10,0.9298393096287256,0.9298393096287256,0.0,0,False
2023-07-11,0.9298393096287256,0.9298393096287256,0.0,0,False
2023-07-12,0.9298393096287256,0.9298393096287256,0.0,0,False
2023-07-13,0.9298393096287256,0.9298393096287256,0.0,0,False
2023-07-14,0.9298393096287256,0.9298393096287256,0.0,0,False
2023-07-15,0.9298393096287256,0.9298393096287256,0.0,0,False
2023-07-16,0.9298393096287256,0.9298393096287256,0.0,0,False
2023-07-17,0.9298393096287256,0.9298393096287256,0.0,0,False
2023-07-18,0.9298393096287256,0.9298393096287256,0.0,0,False
2023-07-19,0.9298393096287256,0.9298393096287256,0.0,0,False
2023-07-20,0.9298393096287256,0.9298393096287256,0.0,0,False
2023-07-21,0.9298393096287256,0.9298393096287256,0.0,0,False
2023-07-22,0.9298393096287256,0.9298393096287256,0.0,0,False
2023-07-23,0.9298393096287256,0.9298393096287256,0.0,0,False
2023-07-24,0.9298393096287256,0.9298393096287256,0.0,0,False
2023-07-25,0.9298393096287256,0.9298393096287256,0.0,0,False
2023-07-26,0.9298393096287256,0.9298393096287256,0.0,0,False
2023-07-27,0.9298393096287256,0.9298393096287256,0.0,0,False
2023-07-28,0.9298393096287256,0.9298393096287256,0.0,0,False
2023-07-29,0.9298393096287256,0.9298393096287256,0.0,0,False
2023-07-30,0.9298393096287256,0.9298393096287256,0.0,0,False
2023-07-31,0.9298393096287256,0.9298393096287256,0.0,0,False
2023-08-01,0.9298393096287256,0.9298393096287256,0.0,0,False
2023-08-02,0.9298393096287256,0.9298393096287256,0.0,0,False
2023-08-03,0.9298393096287256,0.9298393096287256,0.0,0,False
2023-08-04,0.9298393096287256,0.9298393096287256,0.0,0,False
2023-08-05,0.9298393096287256,0.9298393096287256,0.0,0,False
2023-08-06,0.9298393096287256,0.9298393096287256,0.0,0,False
2023-08-07,0.9298393096287256,0.9298393096287256,0.0,0,False
2023-08-08,0.9298393096287256,0.9298393096287256,0.0,0,False
2023-08-09,0.9298393096287256,0.9298393096287256,0.0,0,False
2023-08-10,0.9298393096287256,0.9298393096287256,0.0,0,False
2023-08-11,0.9298393096287256,0.9298393096287256,0.0,0,False
2023-08-12,0.9298393096287256,0.9298393096287256,0.0,0,False
2023-08-13,0.9298393096287256,0.9298393096287256,0.0,0,False
2023-08-14,0.9298393096287256,0.9298393096287256,0.0,0,False
2023-08-15,0.9298393096287256,0.9298393096287256,0.0,0,False
2023-08-16,0.9298393096287256,0.9298393096287256,0.0,0,False
2023-08-17,0.9298393096287256,0.9298393096287256,0.0,0,False
2023-08-18,0.9298393096287256,0.9298393096287256,0.0,0,False
2023-08-19,0.9298393096287256,0.9298393096287256,0.0,0,False
2023-08-20,0.9298393096287256,0.9298393096287256,0.0,0,False
2023-08-21,0.9298393096287256,0.9298393096287256,0.0,0,False
2023-08-22,0.9298393096287256,0.9298393096287256,0.0,0,False
2023-08-23,0.9298393096287256,0.9298393096287256,0.0,0,False
2023-08-24,0.9298393096287256,0.9298393096287256,0.0,0,False
2023-08-25,0.9298393096287256,0.9298393096287256,0.0,0,False
2023-08-26,0.9298393096287256,0.9298393096287256,0.0,0,False
2023-08-27,0.9298393096287256,0.9298393096287256,0.0,0,False
2023-08-28,0.9298393096287256,0.9298393096287256,0.0,0,False
2023-08-29,0.9298393096287256,0.9298393096287256,0.0,0,False
2023-08-30,0.9298393096287256,0.9298393096287256,0.0,0,False
2023-08-31,0.9298393096287256,0.9298393096287256,0.0,0,False
2023-09-01,0.9298393096287256,0.9298393096287256,0.0,0,False
2023-09-02,0.9298393096287256,0.9298393096287256,0.0,0,False
2023-09-03,0.9298393096287256,0.9298393096287256,0.0,0,False
2023-09-04,0.9298393096287256,0.9298393096287256,0.0,0,False
2023-09-05,0.9298393096287256,0.9298393096287256,0.0,0,False
2023-09-06,0.9298393096287256,0.9298393096287256,0.0,0,False
2023-09-07,0.9298393096287256,0.9298393096287256,0.0,0,False
2023-09-08,0.9298393096287256,0.9298393096287256,0.0,0,False
2023-09-09,0.9298393096287256,0.9298393096287256,0.0,0,False
2023-09-10,0.9298393096287256,0.9298393096287256,0.0,0,False
2023-09-11,0.9298393096287256,0.9298393096287256,0.0,0,False
2023-09-12,0.9298393096287256,0.9298393096287256,0.0,0,False
2023-09-13,0.9298393096287256,0.9298393096287256,0.0,0,False
2023-09-14,0.9298393096287256,0.9298393096287256,0.0,0,False
2023-09-15,0.9298393096287256,0.9298393096287256,0.0,0,False
2023-09-16,0.9298393096287256,0.9298393096287256,0.0,0,False
2023-09-17,0.9298393096287256,0.9298393096287256,0.0,0,False
2023-09-18,0.9298393096287256,0.9298393096287256,0.0,0,False
2023-09-19,0.9298393096287256,0.9298393096287256,0.0,0,False
2023-09-20,0.9298393096287256,0.9298393096287256,0.0,0,False
2023-09-21,0.9298393096287256,0.9298393096287256,0.0,0,False
2023-09-22,0.9298393096287256,0.9298393096287256,0.0,0,False
2023-09-23,0.9298393096287256,0.9298393096287256,0.0,0,False
2023-09-24,0.9298393096287256,0.9298393096287256,0.0,0,False
2023-09-25,0.9298393096287256,0.9298393096287256,0.0,0,False
2023-09-26,0.9298393096287256,0.9298393096287256,0.0,0,False
2023-09-27,0.9298393096287256,0.9298393096287256,0.0,0,False
2023-09-28,0.9298393096287256,0.9298393096287256,0.0,0,False
2023-09-29,0.9298393096287256,0.9298393096287256,0.0,0,False
2023-09-30,0.9298393096287256,0.9298393096287256,0.0,0,False
2023-10-01,0.9298393096287256,0.9298393096287256,0.0,0,False
2023-10-02,0.9298393096287256,0.9298393096287256,0.0,0,False
2023-10-03,0.9298393096287256,0.9298393096287256,0.0,0,False
2023-10-04,0.9298393096287256,0.9298393096287256,0.0,0,False
2023-10-05,0.9298393096287256,0.9298393096287256,0.0,0,False
2023-10-06,0.9298393096287256,0.9298393096287256,0.0,0,False
2023-10-07,0.9298393096287256,0.9298393096287256,0.0,0,False
2023-10-08,0.9298393096287256,0.9298393096287256,0.0,0,False
2023-10-09,0.9298393096287256,0.9298393096287256,0.0,0,False
2023-10-10,0.9298393096287256,0.9298393096287256,0.0,0,False
2023-10-11,0.9298393096287256,0.9298393096287256,0.0,0,False
2023-10-12,0.9298393096287256,0.9298393096287256,0.0,0,False
2023-10-13,0.9298393096287256,0.9298393096287256,0.0,0,False
2023-10-14,0.9298393096287256,0.9298393096287256,0.0,0,False
2023-10-15,0.9298393096287256,0.9298393096287256,0.0,0,False
2023-10-16,0.9298393096287256,0.9298393096287256,0.0,0,False
2023-10-17,0.9298393096287256,0.9298393096287256,0.0,0,False
2023-10-18,0.9298393096287256,0.9298393096287256,0.0,0,False
2023-10-19,0.9298393096287256,0.9298393096287256,0.0,0,False
2023-10-20,0.9298393096287256,0.9298393096287256,0.0,0,False
2023-10-21,0.9298393096287256,0.9298393096287256,0.0,0,False
2023-10-22,0.9298393096287256,0.9298393096287256,0.0,0,False
2023-10-23,0.9298393096287256,0.9298393096287256,0.0,0,False
2023-10-24,0.9298393096287256,0.9298393096287256,0.0,0,False
2023-10-25,0.9298393096287256,0.9298393096287256,0.0,0,False
2023-10-26,0.9298393096287256,0.9298393096287256,0.0,0,False
2023-10-27,0.9298393096287256,0.9298393096287256,0.0,0,False
2023-10-28,0.9298393096287256,0.9298393096287256,0.0,0,False
2023-10-29,0.9298393096287256,0.9298393096287256,0.0,0,False
2023-10-30,0.9298393096287256,0.9298393096287256,0.0,0,False
2023-10-31,0.9298393096287256,0.9298393096287256,0.0,0,False
2023-11-01,0.9298393096287256,0.9298393096287256,0.0,0,False
2023-11-02,0.9298393096287256,0.9298393096287256,0.0,0,False
2023-11-03,0.9298393096287256,0.9298393096287256,0.0,0,False
2023-11-04,0.9298393096287256,0.9298393096287256,0.0,0,False
2023-11-05,0.9298393096287256,0.9298393096287256,0.0,0,False
2023-11-06,0.9298393096287256,0.9298393096287256,0.0,0,False
2023-11-07,0.9298393096287256,0.9298393096287256,0.0,0,False
2023-11-08,0.9298393096287256,0.9298393096287256,0.0,0,False
2023-11-09,0.9298393096287256,0.9298393096287256,0.0,0,False
2023-11-10,0.9298393096287256,0.9298393096287256,0.0,0,False
2023-11-11,0.9298393096287256,0.9298393096287256,0.0,0,False
2023-11-12,0.9298393096287256,0.9298393096287256,0.0,0,False
2023-11-13,0.9298393096287256,0.9298393096287256,0.0,0,False
2023-11-14,0.9298393096287256,0.9298393096287256,0.0,0,False
2023-11-15,0.9298393096287256,0.9298393096287256,0.0,0,False
2023-11-16,0.9298393096287256,0.9298393096287256,0.0,0,False
2023-11-17,0.9298393096287256,0.9298393096287256,0.0,0,False
2023-11-18,0.9298393096287256,0.9298393096287256,0.0,0,False
2023-11-19,0.9298393096287256,0.9298393096287256,0.0,0,False
2023-11-20,0.9298393096287256,0.9298393096287256,0.0,0,False
2023-11-21,0.9298393096287256,0.9298393096287256,0.0,0,False
2023-11-22,0.9298393096287256,0.9298393096287256,0.0,0,False
2023-11-23,0.9298393096287256,0.9298393096287256,0.0,0,False
2023-11-24,0.9298393096287256,0.9298393096287256,0.0,0,False
2023-11-25,0.9298393096287256,0.9298393096287256,0.0,0,False
2023-11-26,0.9298393096287256,0.9298393096287256,0.0,0,False
2023-11-27,0.9298393096287256,0.9298393096287256,0.0,0,False
2023-11-28,0.9298393096287256,0.9298393096287256,0.0,0,False
2023-11-29,0.9298393096287256,0.9298393096287256,0.0,0,False
2023-11-30,0.9298393096287256,0.9298393096287256,0.0,0,False
2023-12-01,0.9298393096287256,0.9298393096287256,0.0,0,False
2023-12-02,0.9298393096287256,0.9298393096287256,0.0,0,False
2023-12-03,0.9298393096287256,0.9298393096287256,0.0,0,False
2023-12-04,0.9298393096287256,0.9298393096287256,0.0,0,False
2023-12-05,0.9298393096287256,0.9298393096287256,0.0,0,False
2023-12-06,0.9298393096287256,0.9298393096287256,0.0,0,False
2023-12-07,0.9298393096287256,0.9298393096287256,0.0,0,False
2023-12-08,0.9298393096287256,0.9298393096287256,0.0,0,False
2023-12-09,0.9298393096287256,0.9298393096287256,0.0,0,False
2023-12-10,0.9298393096287256,0.9298393096287256,0.0,0,False
2023-12-11,0.9298393096287256,0.9298393096287256,0.0,0,False
2023-12-12,0.9298393096287256,0.9298393096287256,0.0,0,False
2023-12-13,0.9298393096287256,0.9298393096287256,0.0,0,False
2023-12-14,0.9298393096287256,0.9298393096287256,0.0,0,False
2023-12-15,0.9298393096287256,0.9298393096287256,0.0,0,False
2023-12-16,0.9298393096287256,0.9298393096287256,0.0,0,False
2023-12-17,0.9298393096287256,0.9298393096287256,0.0,0,False
2023-12-18,0.9298393096287256,0.9298393096287256,0.0,0,False
2023-12-19,0.9298393096287256,0.9298393096287256,0.0,0,False
2023-12-20,0.9298393096287256,0.9298393096287256,0.0,0,False
2023-12-21,0.9298393096287256,0.9298393096287256,0.0,0,False
2023-12-22,0.9298393096287256,0.9298393096287256,0.0,0,False
2023-12-23,0.9298393096287256,0.9298393096287256,0.0,0,False
2023-12-24,0.9298393096287256,0.9298393096287256,0.0,0,False
2023-12-25,0.9298393096287256,0.9298393096287256,0.0,0,False
2023-12-26,0.9298393096287256,0.9298393096287256,0.0,0,False
2023-12-27,0.9298393096287256,0.9298393096287256,0.0,0,False
2023-12-28,0.9298393096287256,0.9298393096287256,0.0,0,False
2023-12-29,0.9298393096287256,0.9298393096287256,0.0,0,False
2023-12-30,0.9298393096287256,0.9298393096287256,0.0,0,False
2023-12-31,0.9298393096287256,0.9298393096287256,0.0,0,False
