day,start_equity,end_equity,return_pct,entries,active
2021-09-02,1.0,1.0,0.0,0,False
2021-09-03,1.0,1.0,0.0,0,False
2021-09-04,1.0,1.0,0.0,0,False
2021-09-05,1.0,1.0,0.0,0,False
2021-09-06,1.0,1.0,0.0,0,False
2021-09-07,1.0,1.0,0.0,0,False
2021-09-08,1.0,1.0,0.0,0,False
2021-09-09,1.0,1.0,0.0,0,False
2021-09-10,1.0,1.0,0.0,0,False
2021-09-11,1.0,1.0,0.0,0,False
2021-09-12,1.0,1.0,0.0,0,False
2021-09-13,1.0,1.0,0.0,0,False
2021-09-14,1.0,1.0,0.0,0,False
2021-09-15,1.0,1.0,0.0,0,False
2021-09-16,1.0,1.0,0.0,0,False
2021-09-17,1.0,1.0,0.0,0,False
2021-09-18,1.0,1.0,0.0,0,False
2021-09-19,1.0,1.0,0.0,0,False
2021-09-20,1.0,1.0,0.0,0,False
2021-09-21,1.0,1.0,0.0,0,False
2021-09-22,1.0,1.0,0.0,0,False
2021-09-23,1.0,1.0,0.0,0,False
2021-09-24,1.0,1.0,0.0,0,False
2021-09-25,1.0,1.0,0.0,0,False
2021-09-26,1.0,1.0,0.0,0,False
2021-09-27,1.0,1.0,0.0,0,False
2021-09-28,1.0,1.0,0.0,0,False
2021-09-29,1.0,1.0,0.0,0,False
2021-09-30,1.0,1.0,0.0,0,False
2021-10-01,1.0,1.0,0.0,0,False
2021-10-02,1.0,1.0,0.0,0,False
2021-10-03,1.0,1.0,0.0,0,False
2021-10-04,1.0,1.0,0.0,0,False
2021-10-05,1.0,0.9993927768733932,-0.06072231266067707,1,True
2021-10-06,0.9993927768733932,1.0048928803354615,0.5503445281319186,3,True
2021-10-07,1.0048928803354615,0.9930123369091602,-1.1822696387634113,2,True
2021-10-08,0.9930123369091602,0.9924437638359527,-0.057257402760702014,1,True
2021-10-09,0.9924437638359527,0.9932669777091012,0.0829481632255602,2,True
2021-10-10,0.9932669777091012,0.9985805075718627,0.5349548492004308,1,True
2021-10-11,0.9985805075718627,0.9953550049959239,-0.32300876609157037,0,True
2021-10-12,0.9953550049959239,0.9953550049959239,0.0,0,False
2021-10-13,0.9953550049959239,1.011790123208174,1.6511815512815442,4,True
2021-10-14,1.011790123208174,1.0308931265713568,1.8880401107900902,0,True
2021-10-15,1.0308931265713568,1.0302481193863047,-0.06256780343442125,4,True
2021-10-16,1.0302481193863047,1.0481091096017725,1.7336590942876207,2,True
2021-10-17,1.0481091096017725,1.0478577172269716,-0.023985324857678236,0,True
2021-10-18,1.0478577172269716,1.0464212985337944,-0.13708146340503102,1,True
2021-10-19,1.0464212985337944,1.0491010743780322,0.25608957386404896,0,True
2021-10-20,1.0491010743780322,1.0491010743780322,0.0,0,False
2021-10-21,1.0491010743780322,1.0491010743780322,0.0,0,False
2021-10-22,1.0491010743780322,1.0491010743780322,0.0,0,False
2021-10-23,1.0491010743780322,1.0491010743780322,0.0,0,False
2021-10-24,1.0491010743780322,1.0491010743780322,0.0,0,False
2021-10-25,1.0491010743780322,1.061720992879342,1.2029268494259782,2,True
2021-10-26,1.061720992879342,1.066712490066725,0.4701326639352077,0,True
2021-10-27,1.066712490066725,1.069093140275462,0.22317636953776976,7,True
2021-10-28,1.069093140275462,1.0692308610444026,0.012882017829163317,1,True
2021-10-29,1.0692308610444026,1.0636069047172163,-0.5259814818376007,0,True
2021-10-30,1.0636069047172163,1.0651071162394268,0.14104943429351646,1,True
2021-10-31,1.0651071162394268,1.0578408972600373,-0.6822054672814826,1,True
2021-11-01,1.0578408972600373,1.0688045740445826,1.0364202039212955,2,True
2021-11-02,1.0688045740445826,1.0720634175036101,0.3049054558865949,1,True
2021-11-03,1.0720634175036101,1.0702073020144716,-0.17313485926613303,1,True
2021-11-04,1.0702073020144716,1.0955213265971409,2.365338428827779,1,True
2021-11-05,1.0955213265971409,1.0731764686531196,-2.0396552218136965,3,True
2021-11-06,1.0731764686531196,1.0624468275994143,-0.9998021170899651,2,True
2021-11-07,1.0624468275994143,1.0629672974055395,0.048987845095371796,0,True
2021-11-08,1.0629672974055395,1.0629672974055395,0.0,0,False
2021-11-09,1.0629672974055395,1.0629672974055395,0.0,0,False
2021-11-10,1.0629672974055395,1.0629672974055395,0.0,0,False
2021-11-11,1.0629672974055395,1.0404422230415682,-2.1190750100167577,8,True
2021-11-12,1.0404422230415682,1.0352486494034954,-0.4991698263542399,1,True
2021-11-13,1.0352486494034954,1.0337113494954056,-0.14849571733086542,1,True
2021-11-14,1.0337113494954056,1.0341412012417326,0.041583343990270194,0,True
2021-11-15,1.0341412012417326,1.0341412012417326,0.0,0,False
2021-11-16,1.0341412012417326,1.050148257153034,1.54785979826364,7,True
2021-11-17,1.050148257153034,1.0271598042295491,-2.1890673785249115,0,True
2021-11-18,1.0271598042295491,1.0177539207146153,-0.9157176396703881,4,True
2021-11-19,1.0177539207146153,1.0395073085119806,2.1373916970117035,4,True
2021-11-20,1.0395073085119806,1.0399605380628598,0.04360041984967644,0,True
2021-11-21,1.0399605380628598,1.035952392708846,-0.38541321591679667,1,True
2021-11-22,1.035952392708846,1.0207239649039832,-1.4699930143549422,4,True
2021-11-23,1.0207239649039832,1.0178238235308477,-0.2841259216842529,0,True
2021-11-24,1.0178238235308477,1.0129909522523486,-0.4748239495646511,2,True
2021-11-25,1.0129909522523486,1.011505480564789,-0.14664214761807015,4,True
2021-11-26,1.011505480564789,0.9898421353329439,-2.1416933124029147,4,True
2021-11-27,0.9898421353329439,0.9898421353329439,0.0,0,False
2021-11-28,0.9898421353329439,0.9824019495701114,-0.751653773591876,7,True
2021-11-29,0.9824019495701114,0.9800312691102371,-0.24131471450272723,1,True
2021-11-30,0.9800312691102371,0.9749182742625201,-0.5217175215602055,3,True
2021-12-01,0.9749182742625201,0.971964409246836,-0.30298591109275685,1,True
2021-12-02,0.971964409246836,0.9689448978558682,-0.3106606952108071,5,True
2021-12-03,0.9689448978558682,0.960093385362106,-0.9135207289237335,2,True
2021-12-04,0.960093385362106,0.9388439687576379,-2.213265597747427,10,True
2021-12-05,0.9388439687576379,0.9339145649753409,-0.525050375390923,3,True
2021-12-06,0.9339145649753409,0.9314691606323072,-0.2618445449662943,1,True
2021-12-07,0.9314691606323072,0.9314691606323072,0.0,0,False
2021-12-08,0.9314691606323072,0.9314691606323072,0.0,0,False
2021-12-09,0.9314691606323072,0.9314691606323072,0.0,0,False
2021-12-10,0.9314691606323072,0.9314691606323072,0.0,0,False
2021-12-11,0.9314691606323072,0.9314691606323072,0.0,0,False
2021-12-12,0.9314691606323072,0.9314691606323072,0.0,0,False
2021-12-13,0.9314691606323072,0.9314691606323072,0.0,0,False
2021-12-14,0.9314691606323072,0.9314691606323072,0.0,0,False
2021-12-15,0.9314691606323072,0.9314691606323072,0.0,0,False
2021-12-16,0.9314691606323072,0.9314691606323072,0.0,0,False
2021-12-17,0.9314691606323072,0.9314691606323072,0.0,0,False
2021-12-18,0.9314691606323072,0.9314691606323072,0.0,0,False
2021-12-19,0.9314691606323072,0.9314691606323072,0.0,0,False
2021-12-20,0.9314691606323072,0.9314691606323072,0.0,0,False
2021-12-21,0.9314691606323072,0.9314691606323072,0.0,0,False
2021-12-22,0.9314691606323072,0.9314691606323072,0.0,0,False
2021-12-23,0.9314691606323072,0.9314691606323072,0.0,0,False
2021-12-24,0.9314691606323072,0.9314691606323072,0.0,0,False
2021-12-25,0.9314691606323072,0.9314691606323072,0.0,0,False
2021-12-26,0.9314691606323072,0.9314691606323072,0.0,0,False
2021-12-27,0.9314691606323072,0.9314691606323072,0.0,0,False
2021-12-28,0.9314691606323072,0.9314691606323072,0.0,0,False
2021-12-29,0.9314691606323072,0.9314691606323072,0.0,0,False
2021-12-30,0.9314691606323072,0.9314691606323072,0.0,0,False
2021-12-31,0.9314691606323072,0.9314691606323072,0.0,0,False
2022-01-01,0.9314691606323072,0.9314691606323072,0.0,0,False
2022-01-02,0.9314691606323072,0.9314691606323072,0.0,0,False
2022-01-03,0.9314691606323072,0.9314691606323072,0.0,0,False
2022-01-04,0.9314691606323072,0.9314691606323072,0.0,0,False
2022-01-05,0.9314691606323072,0.9314691606323072,0.0,0,False
2022-01-06,0.9314691606323072,0.9314691606323072,0.0,0,False
2022-01-07,0.9314691606323072,0.9314691606323072,0.0,0,False
2022-01-08,0.9314691606323072,0.9314691606323072,0.0,0,False
2022-01-09,0.9314691606323072,0.9314691606323072,0.0,0,False
2022-01-10,0.9314691606323072,0.9314691606323072,0.0,0,False
2022-01-11,0.9314691606323072,0.9314691606323072,0.0,0,False
2022-01-12,0.9314691606323072,0.9314691606323072,0.0,0,False
2022-01-13,0.9314691606323072,0.9314691606323072,0.0,0,False
2022-01-14,0.9314691606323072,0.9314691606323072,0.0,0,False
2022-01-15,0.9314691606323072,0.9314691606323072,0.0,0,False
2022-01-16,0.9314691606323072,0.9314691606323072,0.0,0,False
2022-01-17,0.9314691606323072,0.9314691606323072,0.0,0,False
2022-01-18,0.9314691606323072,0.9314691606323072,0.0,0,False
2022-01-19,0.9314691606323072,0.9314691606323072,0.0,0,False
2022-01-20,0.9314691606323072,0.9314691606323072,0.0,0,False
2022-01-21,0.9314691606323072,0.9314691606323072,0.0,0,False
2022-01-22,0.9314691606323072,0.9314691606323072,0.0,0,False
2022-01-23,0.9314691606323072,0.9314691606323072,0.0,0,False
2022-01-24,0.9314691606323072,0.9314691606323072,0.0,0,False
2022-01-25,0.9314691606323072,0.9314691606323072,0.0,0,False
2022-01-26,0.9314691606323072,0.9314691606323072,0.0,0,False
2022-01-27,0.9314691606323072,0.9314691606323072,0.0,0,False
2022-01-28,0.9314691606323072,0.9314691606323072,0.0,0,False
2022-01-29,0.9314691606323072,0.9314691606323072,0.0,0,False
2022-01-30,0.9314691606323072,0.9314691606323072,0.0,0,False
2022-01-31,0.9314691606323072,0.9314691606323072,0.0,0,False
2022-02-01,0.9314691606323072,0.9314691606323072,0.0,0,False
2022-02-02,0.9314691606323072,0.9314691606323072,0.0,0,False
2022-02-03,0.9314691606323072,0.9314691606323072,0.0,0,False
2022-02-04,0.9314691606323072,0.9314691606323072,0.0,0,False
2022-02-05,0.9314691606323072,0.9314691606323072,0.0,0,False
2022-02-06,0.9314691606323072,0.9314691606323072,0.0,0,False
2022-02-07,0.9314691606323072,0.9314691606323072,0.0,0,False
2022-02-08,0.9314691606323072,0.9314691606323072,0.0,0,False
2022-02-09,0.9314691606323072,0.9314691606323072,0.0,0,False
2022-02-10,0.9314691606323072,0.9314691606323072,0.0,0,False
2022-02-11,0.9314691606323072,0.9314691606323072,0.0,0,False
2022-02-12,0.9314691606323072,0.9314691606323072,0.0,0,False
2022-02-13,0.9314691606323072,0.9314691606323072,0.0,0,False
2022-02-14,0.9314691606323072,0.9314691606323072,0.0,0,False
2022-02-15,0.9314691606323072,0.9314691606323072,0.0,0,False
2022-02-16,0.9314691606323072,0.9314691606323072,0.0,0,False
2022-02-17,0.9314691606323072,0.9314691606323072,0.0,0,False
2022-02-18,0.9314691606323072,0.9314691606323072,0.0,0,False
2022-02-19,0.9314691606323072,0.9314691606323072,0.0,0,False
2022-02-20,0.9314691606323072,0.9314691606323072,0.0,0,False
2022-02-21,0.9314691606323072,0.9314691606323072,0.0,0,False
2022-02-22,0.9314691606323072,0.9314691606323072,0.0,0,False
2022-02-23,0.9314691606323072,0.9314691606323072,0.0,0,False
2022-02-24,0.9314691606323072,0.9314691606323072,0.0,0,False
2022-02-25,0.9314691606323072,0.9314691606323072,0.0,0,False
2022-02-26,0.9314691606323072,0.9314691606323072,0.0,0,False
2022-02-27,0.9314691606323072,0.9314691606323072,0.0,0,False
2022-02-28,0.9314691606323072,0.9314691606323072,0.0,0,False
2022-03-01,0.9314691606323072,0.9314691606323072,0.0,0,False
2022-03-02,0.9314691606323072,0.9314691606323072,0.0,0,False
2022-03-03,0.9314691606323072,0.9314691606323072,0.0,0,False
2022-03-04,0.9314691606323072,0.9314691606323072,0.0,0,False
2022-03-05,0.9314691606323072,0.9314691606323072,0.0,0,False
2022-03-06,0.9314691606323072,0.9314691606323072,0.0,0,False
2022-03-07,0.9314691606323072,0.9314691606323072,0.0,0,False
2022-03-08,0.9314691606323072,0.9314691606323072,0.0,0,False
2022-03-09,0.9314691606323072,0.9314691606323072,0.0,0,False
2022-03-10,0.9314691606323072,0.9314691606323072,0.0,0,False
2022-03-11,0.9314691606323072,0.9314691606323072,0.0,0,False
2022-03-12,0.9314691606323072,0.9314691606323072,0.0,0,False
2022-03-13,0.9314691606323072,0.9314691606323072,0.0,0,False
2022-03-14,0.9314691606323072,0.9314691606323072,0.0,0,False
2022-03-15,0.9314691606323072,0.9314691606323072,0.0,0,False
2022-03-16,0.9314691606323072,0.9314691606323072,0.0,0,False
2022-03-17,0.9314691606323072,0.9314691606323072,0.0,0,False
2022-03-18,0.9314691606323072,0.9314691606323072,0.0,0,False
2022-03-19,0.9314691606323072,0.9314691606323072,0.0,0,False
2022-03-20,0.9314691606323072,0.9314691606323072,0.0,0,False
2022-03-21,0.9314691606323072,0.9314691606323072,0.0,0,False
2022-03-22,0.9314691606323072,0.9314691606323072,0.0,0,False
2022-03-23,0.9314691606323072,0.9314691606323072,0.0,0,False
2022-03-24,0.9314691606323072,0.9314691606323072,0.0,0,False
2022-03-25,0.9314691606323072,0.9314691606323072,0.0,0,False
2022-03-26,0.9314691606323072,0.9314691606323072,0.0,0,False
2022-03-27,0.9314691606323072,0.9314691606323072,0.0,0,False
2022-03-28,0.9314691606323072,0.9314691606323072,0.0,0,False
2022-03-29,0.9314691606323072,0.9314691606323072,0.0,0,False
2022-03-30,0.9314691606323072,0.9314691606323072,0.0,0,False
2022-03-31,0.9314691606323072,0.9314691606323072,0.0,0,False
2022-04-01,0.9314691606323072,0.9314691606323072,0.0,0,False
2022-04-02,0.9314691606323072,0.9314691606323072,0.0,0,False
2022-04-03,0.9314691606323072,0.9314691606323072,0.0,0,False
2022-04-04,0.9314691606323072,0.9314691606323072,0.0,0,False
2022-04-05,0.9314691606323072,0.9314691606323072,0.0,0,False
2022-04-06,0.9314691606323072,0.9314691606323072,0.0,0,False
2022-04-07,0.9314691606323072,0.9314691606323072,0.0,0,False
2022-04-08,0.9314691606323072,0.9314691606323072,0.0,0,False
2022-04-09,0.9314691606323072,0.9314691606323072,0.0,0,False
2022-04-10,0.9314691606323072,0.9314691606323072,0.0,0,False
2022-04-11,0.9314691606323072,0.9314691606323072,0.0,0,False
2022-04-12,0.9314691606323072,0.9314691606323072,0.0,0,False
2022-04-13,0.9314691606323072,0.9314691606323072,0.0,0,False
2022-04-14,0.9314691606323072,0.9314691606323072,0.0,0,False
2022-04-15,0.9314691606323072,0.9314691606323072,0.0,0,False
2022-04-16,0.9314691606323072,0.9314691606323072,0.0,0,False
2022-04-17,0.9314691606323072,0.9314691606323072,0.0,0,False
2022-04-18,0.9314691606323072,0.9314691606323072,0.0,0,False
2022-04-19,0.9314691606323072,0.9314691606323072,0.0,0,False
2022-04-20,0.9314691606323072,0.9314691606323072,0.0,0,False
2022-04-21,0.9314691606323072,0.9314691606323072,0.0,0,False
2022-04-22,0.9314691606323072,0.9314691606323072,0.0,0,False
2022-04-23,0.9314691606323072,0.9314691606323072,0.0,0,False
2022-04-24,0.9314691606323072,0.9314691606323072,0.0,0,False
2022-04-25,0.9314691606323072,0.9314691606323072,0.0,0,False
2022-04-26,0.9314691606323072,0.9314691606323072,0.0,0,False
2022-04-27,0.9314691606323072,0.9314691606323072,0.0,0,False
2022-04-28,0.9314691606323072,0.9314691606323072,0.0,0,False
2022-04-29,0.9314691606323072,0.9314691606323072,0.0,0,False
2022-04-30,0.9314691606323072,0.9314691606323072,0.0,0,False
2022-05-01,0.9314691606323072,0.9314691606323072,0.0,0,False
2022-05-02,0.9314691606323072,0.9314691606323072,0.0,0,False
2022-05-03,0.9314691606323072,0.9314691606323072,0.0,0,False
2022-05-04,0.9314691606323072,0.9314691606323072,0.0,0,False
2022-05-05,0.9314691606323072,0.9314691606323072,0.0,0,False
2022-05-06,0.9314691606323072,0.9314691606323072,0.0,0,False
2022-05-07,0.9314691606323072,0.9314691606323072,0.0,0,False
2022-05-08,0.9314691606323072,0.9314691606323072,0.0,0,False
2022-05-09,0.9314691606323072,0.9314691606323072,0.0,0,False
2022-05-10,0.9314691606323072,0.9314691606323072,0.0,0,False
2022-05-11,0.9314691606323072,0.9314691606323072,0.0,0,False
2022-05-12,0.9314691606323072,0.9314691606323072,0.0,0,False
2022-05-13,0.9314691606323072,0.9314691606323072,0.0,0,False
2022-05-14,0.9314691606323072,0.9314691606323072,0.0,0,False
2022-05-15,0.9314691606323072,0.9314691606323072,0.0,0,False
2022-05-16,0.9314691606323072,0.9314691606323072,0.0,0,False
2022-05-17,0.9314691606323072,0.9314691606323072,0.0,0,False
2022-05-18,0.9314691606323072,0.9314691606323072,0.0,0,False
2022-05-19,0.9314691606323072,0.9314691606323072,0.0,0,False
2022-05-20,0.9314691606323072,0.9314691606323072,0.0,0,False
2022-05-21,0.9314691606323072,0.9314691606323072,0.0,0,False
2022-05-22,0.9314691606323072,0.9314691606323072,0.0,0,False
2022-05-23,0.9314691606323072,0.9314691606323072,0.0,0,False
2022-05-24,0.9314691606323072,0.9314691606323072,0.0,0,False
2022-05-25,0.9314691606323072,0.9314691606323072,0.0,0,False
2022-05-26,0.9314691606323072,0.9314691606323072,0.0,0,False
2022-05-27,0.9314691606323072,0.9314691606323072,0.0,0,False
2022-05-28,0.9314691606323072,0.9314691606323072,0.0,0,False
2022-05-29,0.9314691606323072,0.9314691606323072,0.0,0,False
2022-05-30,0.9314691606323072,0.9314691606323072,0.0,0,False
2022-05-31,0.9314691606323072,0.9314691606323072,0.0,0,False
2022-06-01,0.9314691606323072,0.9314691606323072,0.0,0,False
2022-06-02,0.9314691606323072,0.9314691606323072,0.0,0,False
2022-06-03,0.9314691606323072,0.9314691606323072,0.0,0,False
2022-06-04,0.9314691606323072,0.9314691606323072,0.0,0,False
2022-06-05,0.9314691606323072,0.9314691606323072,0.0,0,False
2022-06-06,0.9314691606323072,0.9314691606323072,0.0,0,False
2022-06-07,0.9314691606323072,0.9314691606323072,0.0,0,False
2022-06-08,0.9314691606323072,0.9314691606323072,0.0,0,False
2022-06-09,0.9314691606323072,0.9314691606323072,0.0,0,False
2022-06-10,0.9314691606323072,0.9314691606323072,0.0,0,False
2022-06-11,0.9314691606323072,0.9314691606323072,0.0,0,False
2022-06-12,0.9314691606323072,0.9314691606323072,0.0,0,False
2022-06-13,0.9314691606323072,0.9314691606323072,0.0,0,False
2022-06-14,0.9314691606323072,0.9314691606323072,0.0,0,False
2022-06-15,0.9314691606323072,0.9314691606323072,0.0,0,False
2022-06-16,0.9314691606323072,0.9314691606323072,0.0,0,False
2022-06-17,0.9314691606323072,0.9314691606323072,0.0,0,False
2022-06-18,0.9314691606323072,0.9314691606323072,0.0,0,False
2022-06-19,0.9314691606323072,0.9314691606323072,0.0,0,False
2022-06-20,0.9314691606323072,0.9314691606323072,0.0,0,False
2022-06-21,0.9314691606323072,0.9314691606323072,0.0,0,False
2022-06-22,0.9314691606323072,0.9314691606323072,0.0,0,False
2022-06-23,0.9314691606323072,0.9314691606323072,0.0,0,False
2022-06-24,0.9314691606323072,0.9314691606323072,0.0,0,False
2022-06-25,0.9314691606323072,0.9314691606323072,0.0,0,False
2022-06-26,0.9314691606323072,0.9314691606323072,0.0,0,False
2022-06-27,0.9314691606323072,0.9314691606323072,0.0,0,False
2022-06-28,0.9314691606323072,0.9314691606323072,0.0,0,False
2022-06-29,0.9314691606323072,0.9314691606323072,0.0,0,False
2022-06-30,0.9314691606323072,0.9314691606323072,0.0,0,False
2022-07-01,0.9314691606323072,0.9314691606323072,0.0,0,False
2022-07-02,0.9314691606323072,0.9314691606323072,0.0,0,False
2022-07-03,0.9314691606323072,0.9314691606323072,0.0,0,False
2022-07-04,0.9314691606323072,0.9314691606323072,0.0,0,False
2022-07-05,0.9314691606323072,0.9314691606323072,0.0,0,False
2022-07-06,0.9314691606323072,0.9314691606323072,0.0,0,False
2022-07-07,0.9314691606323072,0.9314691606323072,0.0,0,False
2022-07-08,0.9314691606323072,0.9314691606323072,0.0,0,False
2022-07-09,0.9314691606323072,0.9314691606323072,0.0,0,False
2022-07-10,0.9314691606323072,0.9314691606323072,0.0,0,False
2022-07-11,0.9314691606323072,0.9314691606323072,0.0,0,False
2022-07-12,0.9314691606323072,0.9314691606323072,0.0,0,False
2022-07-13,0.9314691606323072,0.9314691606323072,0.0,0,False
2022-07-14,0.9314691606323072,0.9314691606323072,0.0,0,False
2022-07-15,0.9314691606323072,0.9314691606323072,0.0,0,False
2022-07-16,0.9314691606323072,0.9314691606323072,0.0,0,False
2022-07-17,0.9314691606323072,0.9314691606323072,0.0,0,False
2022-07-18,0.9314691606323072,0.9314691606323072,0.0,0,False
2022-07-19,0.9314691606323072,0.9314691606323072,0.0,0,False
2022-07-20,0.9314691606323072,0.9314691606323072,0.0,0,False
2022-07-21,0.9314691606323072,0.9314691606323072,0.0,0,False
2022-07-22,0.9314691606323072,0.9314691606323072,0.0,0,False
2022-07-23,0.9314691606323072,0.9314691606323072,0.0,0,False
2022-07-24,0.9314691606323072,0.9314691606323072,0.0,0,False
2022-07-25,0.9314691606323072,0.9314691606323072,0.0,0,False
2022-07-26,0.9314691606323072,0.9314691606323072,0.0,0,False
2022-07-27,0.9314691606323072,0.9314691606323072,0.0,0,False
2022-07-28,0.9314691606323072,0.9314691606323072,0.0,0,False
2022-07-29,0.9314691606323072,0.9314691606323072,0.0,0,False
2022-07-30,0.9314691606323072,0.9314691606323072,0.0,0,False
2022-07-31,0.9314691606323072,0.9314691606323072,0.0,0,False
2022-08-01,0.9314691606323072,0.9314691606323072,0.0,0,False
2022-08-02,0.9314691606323072,0.9314691606323072,0.0,0,False
2022-08-03,0.9314691606323072,0.9314691606323072,0.0,0,False
2022-08-04,0.9314691606323072,0.9314691606323072,0.0,0,False
2022-08-05,0.9314691606323072,0.9314691606323072,0.0,0,False
2022-08-06,0.9314691606323072,0.9314691606323072,0.0,0,False
2022-08-07,0.9314691606323072,0.9314691606323072,0.0,0,False
2022-08-08,0.9314691606323072,0.9314691606323072,0.0,0,False
2022-08-09,0.9314691606323072,0.9314691606323072,0.0,0,False
2022-08-10,0.9314691606323072,0.9314691606323072,0.0,0,False
2022-08-11,0.9314691606323072,0.9314691606323072,0.0,0,False
2022-08-12,0.9314691606323072,0.9314691606323072,0.0,0,False
2022-08-13,0.9314691606323072,0.9314691606323072,0.0,0,False
2022-08-14,0.9314691606323072,0.9314691606323072,0.0,0,False
2022-08-15,0.9314691606323072,0.9314691606323072,0.0,0,False
2022-08-16,0.9314691606323072,0.9314691606323072,0.0,0,False
2022-08-17,0.9314691606323072,0.9314691606323072,0.0,0,False
2022-08-18,0.9314691606323072,0.9314691606323072,0.0,0,False
2022-08-19,0.9314691606323072,0.9314691606323072,0.0,0,False
2022-08-20,0.9314691606323072,0.9314691606323072,0.0,0,False
2022-08-21,0.9314691606323072,0.9314691606323072,0.0,0,False
2022-08-22,0.9314691606323072,0.9314691606323072,0.0,0,False
2022-08-23,0.9314691606323072,0.9314691606323072,0.0,0,False
2022-08-24,0.9314691606323072,0.9314691606323072,0.0,0,False
2022-08-25,0.9314691606323072,0.9314691606323072,0.0,0,False
2022-08-26,0.9314691606323072,0.9314691606323072,0.0,0,False
2022-08-27,0.9314691606323072,0.9314691606323072,0.0,0,False
2022-08-28,0.9314691606323072,0.9314691606323072,0.0,0,False
2022-08-29,0.9314691606323072,0.9314691606323072,0.0,0,False
2022-08-30,0.9314691606323072,0.9314691606323072,0.0,0,False
2022-08-31,0.9314691606323072,0.9314691606323072,0.0,0,False
2022-09-01,0.9314691606323072,0.9314691606323072,0.0,0,False
2022-09-02,0.9314691606323072,0.9314691606323072,0.0,0,False
2022-09-03,0.9314691606323072,0.9314691606323072,0.0,0,False
2022-09-04,0.9314691606323072,0.9314691606323072,0.0,0,False
2022-09-05,0.9314691606323072,0.9314691606323072,0.0,0,False
2022-09-06,0.9314691606323072,0.9314691606323072,0.0,0,False
2022-09-07,0.9314691606323072,0.9314691606323072,0.0,0,False
2022-09-08,0.9314691606323072,0.9314691606323072,0.0,0,False
2022-09-09,0.9314691606323072,0.9314691606323072,0.0,0,False
2022-09-10,0.9314691606323072,0.9314691606323072,0.0,0,False
2022-09-11,0.9314691606323072,0.9314691606323072,0.0,0,False
2022-09-12,0.9314691606323072,0.9314691606323072,0.0,0,False
2022-09-13,0.9314691606323072,0.9314691606323072,0.0,0,False
2022-09-14,0.9314691606323072,0.9314691606323072,0.0,0,False
2022-09-15,0.9314691606323072,0.9314691606323072,0.0,0,False
2022-09-16,0.9314691606323072,0.9314691606323072,0.0,0,False
2022-09-17,0.9314691606323072,0.9314691606323072,0.0,0,False
2022-09-18,0.9314691606323072,0.9314691606323072,0.0,0,False
2022-09-19,0.9314691606323072,0.9314691606323072,0.0,0,False
2022-09-20,0.9314691606323072,0.9314691606323072,0.0,0,False
2022-09-21,0.9314691606323072,0.9314691606323072,0.0,0,False
2022-09-22,0.9314691606323072,0.9314691606323072,0.0,0,False
2022-09-23,0.9314691606323072,0.9314691606323072,0.0,0,False
2022-09-24,0.9314691606323072,0.9314691606323072,0.0,0,False
2022-09-25,0.9314691606323072,0.9314691606323072,0.0,0,False
2022-09-26,0.9314691606323072,0.9314691606323072,0.0,0,False
2022-09-27,0.9314691606323072,0.9314691606323072,0.0,0,False
2022-09-28,0.9314691606323072,0.9314691606323072,0.0,0,False
2022-09-29,0.9314691606323072,0.9314691606323072,0.0,0,False
2022-09-30,0.9314691606323072,0.9314691606323072,0.0,0,False
2022-10-01,0.9314691606323072,0.9314691606323072,0.0,0,False
2022-10-02,0.9314691606323072,0.9314691606323072,0.0,0,False
2022-10-03,0.9314691606323072,0.9314691606323072,0.0,0,False
2022-10-04,0.9314691606323072,0.9314691606323072,0.0,0,False
2022-10-05,0.9314691606323072,0.9314691606323072,0.0,0,False
2022-10-06,0.9314691606323072,0.9314691606323072,0.0,0,False
2022-10-07,0.9314691606323072,0.9314691606323072,0.0,0,False
2022-10-08,0.9314691606323072,0.9314691606323072,0.0,0,False
2022-10-09,0.9314691606323072,0.9314691606323072,0.0,0,False
2022-10-10,0.9314691606323072,0.9314691606323072,0.0,0,False
2022-10-11,0.9314691606323072,0.9314691606323072,0.0,0,False
2022-10-12,0.9314691606323072,0.9314691606323072,0.0,0,False
2022-10-13,0.9314691606323072,0.9314691606323072,0.0,0,False
2022-10-14,0.9314691606323072,0.9314691606323072,0.0,0,False
2022-10-15,0.9314691606323072,0.9314691606323072,0.0,0,False
2022-10-16,0.9314691606323072,0.9314691606323072,0.0,0,False
2022-10-17,0.9314691606323072,0.9314691606323072,0.0,0,False
2022-10-18,0.9314691606323072,0.9314691606323072,0.0,0,False
2022-10-19,0.9314691606323072,0.9314691606323072,0.0,0,False
2022-10-20,0.9314691606323072,0.9314691606323072,0.0,0,False
2022-10-21,0.9314691606323072,0.9314691606323072,0.0,0,False
2022-10-22,0.9314691606323072,0.9314691606323072,0.0,0,False
2022-10-23,0.9314691606323072,0.9314691606323072,0.0,0,False
2022-10-24,0.9314691606323072,0.9314691606323072,0.0,0,False
2022-10-25,0.9314691606323072,0.9314691606323072,0.0,0,False
2022-10-26,0.9314691606323072,0.9314691606323072,0.0,0,False
2022-10-27,0.9314691606323072,0.9314691606323072,0.0,0,False
2022-10-28,0.9314691606323072,0.9314691606323072,0.0,0,False
2022-10-29,0.9314691606323072,0.9314691606323072,0.0,0,False
2022-10-30,0.9314691606323072,0.9314691606323072,0.0,0,False
2022-10-31,0.9314691606323072,0.9314691606323072,0.0,0,False
2022-11-01,0.9314691606323072,0.9314691606323072,0.0,0,False
2022-11-02,0.9314691606323072,0.9314691606323072,0.0,0,False
2022-11-03,0.9314691606323072,0.9314691606323072,0.0,0,False
2022-11-04,0.9314691606323072,0.9314691606323072,0.0,0,False
2022-11-05,0.9314691606323072,0.9314691606323072,0.0,0,False
2022-11-06,0.9314691606323072,0.9314691606323072,0.0,0,False
2022-11-07,0.9314691606323072,0.9314691606323072,0.0,0,False
2022-11-08,0.9314691606323072,0.9314691606323072,0.0,0,False
2022-11-09,0.9314691606323072,0.9314691606323072,0.0,0,False
2022-11-10,0.9314691606323072,0.9314691606323072,0.0,0,False
2022-11-11,0.9314691606323072,0.9314691606323072,0.0,0,False
2022-11-12,0.9314691606323072,0.9314691606323072,0.0,0,False
2022-11-13,0.9314691606323072,0.9314691606323072,0.0,0,False
2022-11-14,0.9314691606323072,0.9314691606323072,0.0,0,False
2022-11-15,0.9314691606323072,0.9314691606323072,0.0,0,False
2022-11-16,0.9314691606323072,0.9314691606323072,0.0,0,False
2022-11-17,0.9314691606323072,0.9314691606323072,0.0,0,False
2022-11-18,0.9314691606323072,0.9314691606323072,0.0,0,False
2022-11-19,0.9314691606323072,0.9314691606323072,0.0,0,False
2022-11-20,0.9314691606323072,0.9314691606323072,0.0,0,False
2022-11-21,0.9314691606323072,0.9314691606323072,0.0,0,False
2022-11-22,0.9314691606323072,0.9314691606323072,0.0,0,False
2022-11-23,0.9314691606323072,0.9314691606323072,0.0,0,False
2022-11-24,0.9314691606323072,0.9314691606323072,0.0,0,False
2022-11-25,0.9314691606323072,0.9314691606323072,0.0,0,False
2022-11-26,0.9314691606323072,0.9314691606323072,0.0,0,False
2022-11-27,0.9314691606323072,0.9314691606323072,0.0,0,False
2022-11-28,0.9314691606323072,0.9314691606323072,0.0,0,False
2022-11-29,0.9314691606323072,0.9314691606323072,0.0,0,False
2022-11-30,0.9314691606323072,0.9314691606323072,0.0,0,False
2022-12-01,0.9314691606323072,0.9314691606323072,0.0,0,False
2022-12-02,0.9314691606323072,0.9314691606323072,0.0,0,False
2022-12-03,0.9314691606323072,0.9314691606323072,0.0,0,False
2022-12-04,0.9314691606323072,0.9314691606323072,0.0,0,False
2022-12-05,0.9314691606323072,0.9314691606323072,0.0,0,False
2022-12-06,0.9314691606323072,0.9314691606323072,0.0,0,False
2022-12-07,0.9314691606323072,0.9314691606323072,0.0,0,False
2022-12-08,0.9314691606323072,0.9314691606323072,0.0,0,False
2022-12-09,0.9314691606323072,0.9314691606323072,0.0,0,False
2022-12-10,0.9314691606323072,0.9314691606323072,0.0,0,False
2022-12-11,0.9314691606323072,0.9314691606323072,0.0,0,False
2022-12-12,0.9314691606323072,0.9314691606323072,0.0,0,False
2022-12-13,0.9314691606323072,0.9314691606323072,0.0,0,False
2022-12-14,0.9314691606323072,0.9314691606323072,0.0,0,False
2022-12-15,0.9314691606323072,0.9314691606323072,0.0,0,False
2022-12-16,0.9314691606323072,0.9314691606323072,0.0,0,False
2022-12-17,0.9314691606323072,0.9314691606323072,0.0,0,False
2022-12-18,0.9314691606323072,0.9314691606323072,0.0,0,False
2022-12-19,0.9314691606323072,0.9314691606323072,0.0,0,False
2022-12-20,0.9314691606323072,0.9314691606323072,0.0,0,False
2022-12-21,0.9314691606323072,0.9314691606323072,0.0,0,False
2022-12-22,0.9314691606323072,0.9314691606323072,0.0,0,False
2022-12-23,0.9314691606323072,0.9314691606323072,0.0,0,False
2022-12-24,0.9314691606323072,0.9314691606323072,0.0,0,False
2022-12-25,0.9314691606323072,0.9314691606323072,0.0,0,False
2022-12-26,0.9314691606323072,0.9314691606323072,0.0,0,False
2022-12-27,0.9314691606323072,0.9314691606323072,0.0,0,False
2022-12-28,0.9314691606323072,0.9314691606323072,0.0,0,False
2022-12-29,0.9314691606323072,0.9314691606323072,0.0,0,False
2022-12-30,0.9314691606323072,0.9314691606323072,0.0,0,False
2022-12-31,0.9314691606323072,0.9314691606323072,0.0,0,False
2023-01-01,0.9314691606323072,0.9314691606323072,0.0,0,False
2023-01-02,0.9314691606323072,0.9314691606323072,0.0,0,False
2023-01-03,0.9314691606323072,0.9314691606323072,0.0,0,False
2023-01-04,0.9314691606323072,0.9314691606323072,0.0,0,False
2023-01-05,0.9314691606323072,0.9314691606323072,0.0,0,False
2023-01-06,0.9314691606323072,0.9314691606323072,0.0,0,False
2023-01-07,0.9314691606323072,0.9314691606323072,0.0,0,False
2023-01-08,0.9314691606323072,0.9314691606323072,0.0,0,False
2023-01-09,0.9314691606323072,0.9314691606323072,0.0,0,False
2023-01-10,0.9314691606323072,0.9314691606323072,0.0,0,False
2023-01-11,0.9314691606323072,0.9314691606323072,0.0,0,False
2023-01-12,0.9314691606323072,0.9314691606323072,0.0,0,False
2023-01-13,0.9314691606323072,0.9314691606323072,0.0,0,False
2023-01-14,0.9314691606323072,0.9314691606323072,0.0,0,False
2023-01-15,0.9314691606323072,0.9314691606323072,0.0,0,False
2023-01-16,0.9314691606323072,0.9314691606323072,0.0,0,False
2023-01-17,0.9314691606323072,0.9314691606323072,0.0,0,False
2023-01-18,0.9314691606323072,0.9314691606323072,0.0,0,False
2023-01-19,0.9314691606323072,0.9314691606323072,0.0,0,False
2023-01-20,0.9314691606323072,0.9314691606323072,0.0,0,False
2023-01-21,0.9314691606323072,0.9314691606323072,0.0,0,False
2023-01-22,0.9314691606323072,0.9314691606323072,0.0,0,False
2023-01-23,0.9314691606323072,0.9314691606323072,0.0,0,False
2023-01-24,0.9314691606323072,0.9314691606323072,0.0,0,False
2023-01-25,0.9314691606323072,0.9314691606323072,0.0,0,False
2023-01-26,0.9314691606323072,0.9314691606323072,0.0,0,False
2023-01-27,0.9314691606323072,0.9314691606323072,0.0,0,False
2023-01-28,0.9314691606323072,0.9314691606323072,0.0,0,False
2023-01-29,0.9314691606323072,0.9314691606323072,0.0,0,False
2023-01-30,0.9314691606323072,0.9314691606323072,0.0,0,False
2023-01-31,0.9314691606323072,0.9314691606323072,0.0,0,False
2023-02-01,0.9314691606323072,0.9314691606323072,0.0,0,False
2023-02-02,0.9314691606323072,0.9314691606323072,0.0,0,False
2023-02-03,0.9314691606323072,0.9314691606323072,0.0,0,False
2023-02-04,0.9314691606323072,0.9314691606323072,0.0,0,False
2023-02-05,0.9314691606323072,0.9314691606323072,0.0,0,False
2023-02-06,0.9314691606323072,0.9314691606323072,0.0,0,False
2023-02-07,0.9314691606323072,0.9314691606323072,0.0,0,False
2023-02-08,0.9314691606323072,0.9314691606323072,0.0,0,False
2023-02-09,0.9314691606323072,0.9314691606323072,0.0,0,False
2023-02-10,0.9314691606323072,0.9314691606323072,0.0,0,False
2023-02-11,0.9314691606323072,0.9314691606323072,0.0,0,False
2023-02-12,0.9314691606323072,0.9314691606323072,0.0,0,False
2023-02-13,0.9314691606323072,0.9314691606323072,0.0,0,False
2023-02-14,0.9314691606323072,0.9314691606323072,0.0,0,False
2023-02-15,0.9314691606323072,0.9314691606323072,0.0,0,False
2023-02-16,0.9314691606323072,0.9314691606323072,0.0,0,False
2023-02-17,0.9314691606323072,0.9314691606323072,0.0,0,False
2023-02-18,0.9314691606323072,0.9314691606323072,0.0,0,False
2023-02-19,0.9314691606323072,0.9314691606323072,0.0,0,False
2023-02-20,0.9314691606323072,0.9314691606323072,0.0,0,False
2023-02-21,0.9314691606323072,0.9314691606323072,0.0,0,False
2023-02-22,0.9314691606323072,0.9314691606323072,0.0,0,False
2023-02-23,0.9314691606323072,0.9314691606323072,0.0,0,False
2023-02-24,0.9314691606323072,0.9314691606323072,0.0,0,False
2023-02-25,0.9314691606323072,0.9314691606323072,0.0,0,False
2023-02-26,0.9314691606323072,0.9314691606323072,0.0,0,False
2023-02-27,0.9314691606323072,0.9314691606323072,0.0,0,False
2023-02-28,0.9314691606323072,0.9314691606323072,0.0,0,False
2023-03-01,0.9314691606323072,0.9314691606323072,0.0,0,False
2023-03-02,0.9314691606323072,0.9314691606323072,0.0,0,False
2023-03-03,0.9314691606323072,0.9314691606323072,0.0,0,False
2023-03-04,0.9314691606323072,0.9314691606323072,0.0,0,False
2023-03-05,0.9314691606323072,0.9314691606323072,0.0,0,False
2023-03-06,0.9314691606323072,0.9314691606323072,0.0,0,False
2023-03-07,0.9314691606323072,0.9314691606323072,0.0,0,False
2023-03-08,0.9314691606323072,0.9314691606323072,0.0,0,False
2023-03-09,0.9314691606323072,0.9314691606323072,0.0,0,False
2023-03-10,0.9314691606323072,0.9314691606323072,0.0,0,False
2023-03-11,0.9314691606323072,0.9314691606323072,0.0,0,False
2023-03-12,0.9314691606323072,0.9314691606323072,0.0,0,False
2023-03-13,0.9314691606323072,0.9314691606323072,0.0,0,False
2023-03-14,0.9314691606323072,0.9314691606323072,0.0,0,False
2023-03-15,0.9314691606323072,0.9314691606323072,0.0,0,False
2023-03-16,0.9314691606323072,0.9314691606323072,0.0,0,False
2023-03-17,0.9314691606323072,0.9314691606323072,0.0,0,False
2023-03-18,0.9314691606323072,0.9314691606323072,0.0,0,False
2023-03-19,0.9314691606323072,0.9314691606323072,0.0,0,False
2023-03-20,0.9314691606323072,0.9314691606323072,0.0,0,False
2023-03-21,0.9314691606323072,0.9314691606323072,0.0,0,False
2023-03-22,0.9314691606323072,0.9314691606323072,0.0,0,False
2023-03-23,0.9314691606323072,0.9314691606323072,0.0,0,False
2023-03-24,0.9314691606323072,0.9314691606323072,0.0,0,False
2023-03-25,0.9314691606323072,0.9314691606323072,0.0,0,False
2023-03-26,0.9314691606323072,0.9314691606323072,0.0,0,False
2023-03-27,0.9314691606323072,0.9314691606323072,0.0,0,False
2023-03-28,0.9314691606323072,0.9314691606323072,0.0,0,False
2023-03-29,0.9314691606323072,0.9314691606323072,0.0,0,False
2023-03-30,0.9314691606323072,0.9314691606323072,0.0,0,False
2023-03-31,0.9314691606323072,0.9314691606323072,0.0,0,False
2023-04-01,0.9314691606323072,0.9314691606323072,0.0,0,False
2023-04-02,0.9314691606323072,0.9314691606323072,0.0,0,False
2023-04-03,0.9314691606323072,0.9314691606323072,0.0,0,False
2023-04-04,0.9314691606323072,0.9314691606323072,0.0,0,False
2023-04-05,0.9314691606323072,0.9314691606323072,0.0,0,False
2023-04-06,0.9314691606323072,0.9314691606323072,0.0,0,False
2023-04-07,0.9314691606323072,0.9314691606323072,0.0,0,False
2023-04-08,0.9314691606323072,0.9314691606323072,0.0,0,False
2023-04-09,0.9314691606323072,0.9314691606323072,0.0,0,False
2023-04-10,0.9314691606323072,0.9314691606323072,0.0,0,False
2023-04-11,0.9314691606323072,0.9314691606323072,0.0,0,False
2023-04-12,0.9314691606323072,0.9314691606323072,0.0,0,False
2023-04-13,0.9314691606323072,0.9314691606323072,0.0,0,False
2023-04-14,0.9314691606323072,0.9314691606323072,0.0,0,False
2023-04-15,0.9314691606323072,0.9314691606323072,0.0,0,False
2023-04-16,0.9314691606323072,0.9314691606323072,0.0,0,False
2023-04-17,0.9314691606323072,0.9314691606323072,0.0,0,False
2023-04-18,0.9314691606323072,0.9314691606323072,0.0,0,False
2023-04-19,0.9314691606323072,0.9314691606323072,0.0,0,False
2023-04-20,0.9314691606323072,0.9314691606323072,0.0,0,False
2023-04-21,0.9314691606323072,0.9314691606323072,0.0,0,False
2023-04-22,0.9314691606323072,0.9314691606323072,0.0,0,False
2023-04-23,0.9314691606323072,0.9314691606323072,0.0,0,False
2023-04-24,0.9314691606323072,0.9314691606323072,0.0,0,False
2023-04-25,0.9314691606323072,0.9314691606323072,0.0,0,False
2023-04-26,0.9314691606323072,0.9314691606323072,0.0,0,False
2023-04-27,0.9314691606323072,0.9314691606323072,0.0,0,False
2023-04-28,0.9314691606323072,0.9314691606323072,0.0,0,False
2023-04-29,0.9314691606323072,0.9314691606323072,0.0,0,False
2023-04-30,0.9314691606323072,0.9314691606323072,0.0,0,False
2023-05-01,0.9314691606323072,0.9314691606323072,0.0,0,False
2023-05-02,0.9314691606323072,0.9314691606323072,0.0,0,False
2023-05-03,0.9314691606323072,0.9314691606323072,0.0,0,False
2023-05-04,0.9314691606323072,0.9314691606323072,0.0,0,False
2023-05-05,0.9314691606323072,0.9314691606323072,0.0,0,False
2023-05-06,0.9314691606323072,0.9314691606323072,0.0,0,False
2023-05-07,0.9314691606323072,0.9314691606323072,0.0,0,False
2023-05-08,0.9314691606323072,0.9314691606323072,0.0,0,False
2023-05-09,0.9314691606323072,0.9314691606323072,0.0,0,False
2023-05-10,0.9314691606323072,0.9314691606323072,0.0,0,False
2023-05-11,0.9314691606323072,0.9314691606323072,0.0,0,False
2023-05-12,0.9314691606323072,0.9314691606323072,0.0,0,False
2023-05-13,0.9314691606323072,0.9314691606323072,0.0,0,False
2023-05-14,0.9314691606323072,0.9314691606323072,0.0,0,False
2023-05-15,0.9314691606323072,0.9314691606323072,0.0,0,False
2023-05-16,0.9314691606323072,0.9314691606323072,0.0,0,False
2023-05-17,0.9314691606323072,0.9314691606323072,0.0,0,False
2023-05-18,0.9314691606323072,0.9314691606323072,0.0,0,False
2023-05-19,0.9314691606323072,0.9314691606323072,0.0,0,False
2023-05-20,0.9314691606323072,0.9314691606323072,0.0,0,False
2023-05-21,0.9314691606323072,0.9314691606323072,0.0,0,False
2023-05-22,0.9314691606323072,0.9314691606323072,0.0,0,False
2023-05-23,0.9314691606323072,0.9314691606323072,0.0,0,False
2023-05-24,0.9314691606323072,0.9314691606323072,0.0,0,False
2023-05-25,0.9314691606323072,0.9314691606323072,0.0,0,False
2023-05-26,0.9314691606323072,0.9314691606323072,0.0,0,False
2023-05-27,0.9314691606323072,0.9314691606323072,0.0,0,False
2023-05-28,0.9314691606323072,0.9314691606323072,0.0,0,False
2023-05-29,0.9314691606323072,0.9314691606323072,0.0,0,False
2023-05-30,0.9314691606323072,0.9314691606323072,0.0,0,False
2023-05-31,0.9314691606323072,0.9314691606323072,0.0,0,False
2023-06-01,0.9314691606323072,0.9314691606323072,0.0,0,False
2023-06-02,0.9314691606323072,0.9314691606323072,0.0,0,False
2023-06-03,0.9314691606323072,0.9314691606323072,0.0,0,False
2023-06-04,0.9314691606323072,0.9314691606323072,0.0,0,False
2023-06-05,0.9314691606323072,0.9314691606323072,0.0,0,False
2023-06-06,0.9314691606323072,0.9314691606323072,0.0,0,False
2023-06-07,0.9314691606323072,0.9314691606323072,0.0,0,False
2023-06-08,0.9314691606323072,0.9314691606323072,0.0,0,False
2023-06-09,0.9314691606323072,0.9314691606323072,0.0,0,False
2023-06-10,0.9314691606323072,0.9314691606323072,0.0,0,False
2023-06-11,0.9314691606323072,0.9314691606323072,0.0,0,False
2023-06-12,0.9314691606323072,0.9314691606323072,0.0,0,False
2023-06-13,0.9314691606323072,0.9314691606323072,0.0,0,False
2023-06-14,0.9314691606323072,0.9314691606323072,0.0,0,False
2023-06-15,0.9314691606323072,0.9314691606323072,0.0,0,False
2023-06-16,0.9314691606323072,0.9314691606323072,0.0,0,False
2023-06-17,0.9314691606323072,0.9314691606323072,0.0,0,False
2023-06-18,0.9314691606323072,0.9314691606323072,0.0,0,False
2023-06-19,0.9314691606323072,0.9314691606323072,0.0,0,False
2023-06-20,0.9314691606323072,0.9314691606323072,0.0,0,False
2023-06-21,0.9314691606323072,0.9314691606323072,0.0,0,False
2023-06-22,0.9314691606323072,0.9314691606323072,0.0,0,False
2023-06-23,0.9314691606323072,0.9314691606323072,0.0,0,False
2023-06-24,0.9314691606323072,0.9314691606323072,0.0,0,False
2023-06-25,0.9314691606323072,0.9314691606323072,0.0,0,False
2023-06-26,0.9314691606323072,0.9314691606323072,0.0,0,False
2023-06-27,0.9314691606323072,0.9314691606323072,0.0,0,False
2023-06-28,0.9314691606323072,0.9314691606323072,0.0,0,False
2023-06-29,0.9314691606323072,0.9314691606323072,0.0,0,False
2023-06-30,0.9314691606323072,0.9314691606323072,0.0,0,False
2023-07-01,0.9314691606323072,0.9314691606323072,0.0,0,False
2023-07-02,0.9314691606323072,0.9314691606323072,0.0,0,False
2023-07-03,0.9314691606323072,0.9314691606323072,0.0,0,False
2023-07-04,0.9314691606323072,0.9314691606323072,0.0,0,False
2023-07-05,0.9314691606323072,0.9314691606323072,0.0,0,False
2023-07-06,0.9314691606323072,0.9314691606323072,0.0,0,False
2023-07-07,0.9314691606323072,0.9314691606323072,0.0,0,False
2023-07-08,0.9314691606323072,0.9314691606323072,0.0,0,False
2023-07-09,0.9314691606323072,0.9314691606323072,0.0,0,False
2023-07-10,0.9314691606323072,0.9314691606323072,0.0,0,False
2023-07-11,0.9314691606323072,0.9314691606323072,0.0,0,False
2023-07-12,0.9314691606323072,0.9314691606323072,0.0,0,False
2023-07-13,0.9314691606323072,0.9314691606323072,0.0,0,False
2023-07-14,0.9314691606323072,0.9314691606323072,0.0,0,False
2023-07-15,0.9314691606323072,0.9314691606323072,0.0,0,False
2023-07-16,0.9314691606323072,0.9314691606323072,0.0,0,False
2023-07-17,0.9314691606323072,0.9314691606323072,0.0,0,False
2023-07-18,0.9314691606323072,0.9314691606323072,0.0,0,False
2023-07-19,0.9314691606323072,0.9314691606323072,0.0,0,False
2023-07-20,0.9314691606323072,0.9314691606323072,0.0,0,False
2023-07-21,0.9314691606323072,0.9314691606323072,0.0,0,False
2023-07-22,0.9314691606323072,0.9314691606323072,0.0,0,False
2023-07-23,0.9314691606323072,0.9314691606323072,0.0,0,False
2023-07-24,0.9314691606323072,0.9314691606323072,0.0,0,False
2023-07-25,0.9314691606323072,0.9314691606323072,0.0,0,False
2023-07-26,0.9314691606323072,0.9314691606323072,0.0,0,False
2023-07-27,0.9314691606323072,0.9314691606323072,0.0,0,False
2023-07-28,0.9314691606323072,0.9314691606323072,0.0,0,False
2023-07-29,0.9314691606323072,0.9314691606323072,0.0,0,False
2023-07-30,0.9314691606323072,0.9314691606323072,0.0,0,False
2023-07-31,0.9314691606323072,0.9314691606323072,0.0,0,False
2023-08-01,0.9314691606323072,0.9314691606323072,0.0,0,False
2023-08-02,0.9314691606323072,0.9314691606323072,0.0,0,False
2023-08-03,0.9314691606323072,0.9314691606323072,0.0,0,False
2023-08-04,0.9314691606323072,0.9314691606323072,0.0,0,False
2023-08-05,0.9314691606323072,0.9314691606323072,0.0,0,False
2023-08-06,0.9314691606323072,0.9314691606323072,0.0,0,False
2023-08-07,0.9314691606323072,0.9314691606323072,0.0,0,False
2023-08-08,0.9314691606323072,0.9314691606323072,0.0,0,False
2023-08-09,0.9314691606323072,0.9314691606323072,0.0,0,False
2023-08-10,0.9314691606323072,0.9314691606323072,0.0,0,False
2023-08-11,0.9314691606323072,0.9314691606323072,0.0,0,False
2023-08-12,0.9314691606323072,0.9314691606323072,0.0,0,False
2023-08-13,0.9314691606323072,0.9314691606323072,0.0,0,False
2023-08-14,0.9314691606323072,0.9314691606323072,0.0,0,False
2023-08-15,0.9314691606323072,0.9314691606323072,0.0,0,False
2023-08-16,0.9314691606323072,0.9314691606323072,0.0,0,False
2023-08-17,0.9314691606323072,0.9314691606323072,0.0,0,False
2023-08-18,0.9314691606323072,0.9314691606323072,0.0,0,False
2023-08-19,0.9314691606323072,0.9314691606323072,0.0,0,False
2023-08-20,0.9314691606323072,0.9314691606323072,0.0,0,False
2023-08-21,0.9314691606323072,0.9314691606323072,0.0,0,False
2023-08-22,0.9314691606323072,0.9314691606323072,0.0,0,False
2023-08-23,0.9314691606323072,0.9314691606323072,0.0,0,False
2023-08-24,0.9314691606323072,0.9314691606323072,0.0,0,False
2023-08-25,0.9314691606323072,0.9314691606323072,0.0,0,False
2023-08-26,0.9314691606323072,0.9314691606323072,0.0,0,False
2023-08-27,0.9314691606323072,0.9314691606323072,0.0,0,False
2023-08-28,0.9314691606323072,0.9314691606323072,0.0,0,False
2023-08-29,0.9314691606323072,0.9314691606323072,0.0,0,False
2023-08-30,0.9314691606323072,0.9314691606323072,0.0,0,False
2023-08-31,0.9314691606323072,0.9314691606323072,0.0,0,False
2023-09-01,0.9314691606323072,0.9314691606323072,0.0,0,False
2023-09-02,0.9314691606323072,0.9314691606323072,0.0,0,False
2023-09-03,0.9314691606323072,0.9314691606323072,0.0,0,False
2023-09-04,0.9314691606323072,0.9314691606323072,0.0,0,False
2023-09-05,0.9314691606323072,0.9314691606323072,0.0,0,False
2023-09-06,0.9314691606323072,0.9314691606323072,0.0,0,False
2023-09-07,0.9314691606323072,0.9314691606323072,0.0,0,False
2023-09-08,0.9314691606323072,0.9314691606323072,0.0,0,False
2023-09-09,0.9314691606323072,0.9314691606323072,0.0,0,False
2023-09-10,0.9314691606323072,0.9314691606323072,0.0,0,False
2023-09-11,0.9314691606323072,0.9314691606323072,0.0,0,False
2023-09-12,0.9314691606323072,0.9314691606323072,0.0,0,False
2023-09-13,0.9314691606323072,0.9314691606323072,0.0,0,False
2023-09-14,0.9314691606323072,0.9314691606323072,0.0,0,False
2023-09-15,0.9314691606323072,0.9314691606323072,0.0,0,False
2023-09-16,0.9314691606323072,0.9314691606323072,0.0,0,False
2023-09-17,0.9314691606323072,0.9314691606323072,0.0,0,False
2023-09-18,0.9314691606323072,0.9314691606323072,0.0,0,False
2023-09-19,0.9314691606323072,0.9314691606323072,0.0,0,False
2023-09-20,0.9314691606323072,0.9314691606323072,0.0,0,False
2023-09-21,0.9314691606323072,0.9314691606323072,0.0,0,False
2023-09-22,0.9314691606323072,0.9314691606323072,0.0,0,False
2023-09-23,0.9314691606323072,0.9314691606323072,0.0,0,False
2023-09-24,0.9314691606323072,0.9314691606323072,0.0,0,False
2023-09-25,0.9314691606323072,0.9314691606323072,0.0,0,False
2023-09-26,0.9314691606323072,0.9314691606323072,0.0,0,False
2023-09-27,0.9314691606323072,0.9314691606323072,0.0,0,False
2023-09-28,0.9314691606323072,0.9314691606323072,0.0,0,False
2023-09-29,0.9314691606323072,0.9314691606323072,0.0,0,False
2023-09-30,0.9314691606323072,0.9314691606323072,0.0,0,False
2023-10-01,0.9314691606323072,0.9314691606323072,0.0,0,False
2023-10-02,0.9314691606323072,0.9314691606323072,0.0,0,False
2023-10-03,0.9314691606323072,0.9314691606323072,0.0,0,False
2023-10-04,0.9314691606323072,0.9314691606323072,0.0,0,False
2023-10-05,0.9314691606323072,0.9314691606323072,0.0,0,False
2023-10-06,0.9314691606323072,0.9314691606323072,0.0,0,False
2023-10-07,0.9314691606323072,0.9314691606323072,0.0,0,False
2023-10-08,0.9314691606323072,0.9314691606323072,0.0,0,False
2023-10-09,0.9314691606323072,0.9314691606323072,0.0,0,False
2023-10-10,0.9314691606323072,0.9314691606323072,0.0,0,False
2023-10-11,0.9314691606323072,0.9314691606323072,0.0,0,False
2023-10-12,0.9314691606323072,0.9314691606323072,0.0,0,False
2023-10-13,0.9314691606323072,0.9314691606323072,0.0,0,False
2023-10-14,0.9314691606323072,0.9314691606323072,0.0,0,False
2023-10-15,0.9314691606323072,0.9314691606323072,0.0,0,False
2023-10-16,0.9314691606323072,0.9314691606323072,0.0,0,False
2023-10-17,0.9314691606323072,0.9314691606323072,0.0,0,False
2023-10-18,0.9314691606323072,0.9314691606323072,0.0,0,False
2023-10-19,0.9314691606323072,0.9314691606323072,0.0,0,False
2023-10-20,0.9314691606323072,0.9314691606323072,0.0,0,False
2023-10-21,0.9314691606323072,0.9314691606323072,0.0,0,False
2023-10-22,0.9314691606323072,0.9314691606323072,0.0,0,False
2023-10-23,0.9314691606323072,0.9314691606323072,0.0,0,False
2023-10-24,0.9314691606323072,0.9314691606323072,0.0,0,False
2023-10-25,0.9314691606323072,0.9314691606323072,0.0,0,False
2023-10-26,0.9314691606323072,0.9314691606323072,0.0,0,False
2023-10-27,0.9314691606323072,0.9314691606323072,0.0,0,False
2023-10-28,0.9314691606323072,0.9314691606323072,0.0,0,False
2023-10-29,0.9314691606323072,0.9314691606323072,0.0,0,False
2023-10-30,0.9314691606323072,0.9314691606323072,0.0,0,False
2023-10-31,0.9314691606323072,0.9314691606323072,0.0,0,False
2023-11-01,0.9314691606323072,0.9314691606323072,0.0,0,False
2023-11-02,0.9314691606323072,0.9314691606323072,0.0,0,False
2023-11-03,0.9314691606323072,0.9314691606323072,0.0,0,False
2023-11-04,0.9314691606323072,0.9314691606323072,0.0,0,False
2023-11-05,0.9314691606323072,0.9314691606323072,0.0,0,False
2023-11-06,0.9314691606323072,0.9314691606323072,0.0,0,False
2023-11-07,0.9314691606323072,0.9314691606323072,0.0,0,False
2023-11-08,0.9314691606323072,0.9314691606323072,0.0,0,False
2023-11-09,0.9314691606323072,0.9314691606323072,0.0,0,False
2023-11-10,0.9314691606323072,0.9314691606323072,0.0,0,False
2023-11-11,0.9314691606323072,0.9314691606323072,0.0,0,False
2023-11-12,0.9314691606323072,0.9314691606323072,0.0,0,False
2023-11-13,0.9314691606323072,0.9314691606323072,0.0,0,False
2023-11-14,0.9314691606323072,0.9314691606323072,0.0,0,False
2023-11-15,0.9314691606323072,0.9314691606323072,0.0,0,False
2023-11-16,0.9314691606323072,0.9314691606323072,0.0,0,False
2023-11-17,0.9314691606323072,0.9314691606323072,0.0,0,False
2023-11-18,0.9314691606323072,0.9314691606323072,0.0,0,False
2023-11-19,0.9314691606323072,0.9314691606323072,0.0,0,False
2023-11-20,0.9314691606323072,0.9314691606323072,0.0,0,False
2023-11-21,0.9314691606323072,0.9314691606323072,0.0,0,False
2023-11-22,0.9314691606323072,0.9314691606323072,0.0,0,False
2023-11-23,0.9314691606323072,0.9314691606323072,0.0,0,False
2023-11-24,0.9314691606323072,0.9314691606323072,0.0,0,False
2023-11-25,0.9314691606323072,0.9314691606323072,0.0,0,False
2023-11-26,0.9314691606323072,0.9314691606323072,0.0,0,False
2023-11-27,0.9314691606323072,0.9314691606323072,0.0,0,False
2023-11-28,0.9314691606323072,0.9314691606323072,0.0,0,False
2023-11-29,0.9314691606323072,0.9314691606323072,0.0,0,False
2023-11-30,0.9314691606323072,0.9314691606323072,0.0,0,False
2023-12-01,0.9314691606323072,0.9314691606323072,0.0,0,False
2023-12-02,0.9314691606323072,0.9314691606323072,0.0,0,False
2023-12-03,0.9314691606323072,0.9314691606323072,0.0,0,False
2023-12-04,0.9314691606323072,0.9314691606323072,0.0,0,False
2023-12-05,0.9314691606323072,0.9314691606323072,0.0,0,False
2023-12-06,0.9314691606323072,0.9314691606323072,0.0,0,False
2023-12-07,0.9314691606323072,0.9314691606323072,0.0,0,False
2023-12-08,0.9314691606323072,0.9314691606323072,0.0,0,False
2023-12-09,0.9314691606323072,0.9314691606323072,0.0,0,False
2023-12-10,0.9314691606323072,0.9314691606323072,0.0,0,False
2023-12-11,0.9314691606323072,0.9314691606323072,0.0,0,False
2023-12-12,0.9314691606323072,0.9314691606323072,0.0,0,False
2023-12-13,0.9314691606323072,0.9314691606323072,0.0,0,False
2023-12-14,0.9314691606323072,0.9314691606323072,0.0,0,False
2023-12-15,0.9314691606323072,0.9314691606323072,0.0,0,False
2023-12-16,0.9314691606323072,0.9314691606323072,0.0,0,False
2023-12-17,0.9314691606323072,0.9314691606323072,0.0,0,False
2023-12-18,0.9314691606323072,0.9314691606323072,0.0,0,False
2023-12-19,0.9314691606323072,0.9314691606323072,0.0,0,False
2023-12-20,0.9314691606323072,0.9314691606323072,0.0,0,False
2023-12-21,0.9314691606323072,0.9314691606323072,0.0,0,False
2023-12-22,0.9314691606323072,0.9314691606323072,0.0,0,False
2023-12-23,0.9314691606323072,0.9314691606323072,0.0,0,False
2023-12-24,0.9314691606323072,0.9314691606323072,0.0,0,False
2023-12-25,0.9314691606323072,0.9314691606323072,0.0,0,False
2023-12-26,0.9314691606323072,0.9314691606323072,0.0,0,False
2023-12-27,0.9314691606323072,0.9314691606323072,0.0,0,False
2023-12-28,0.9314691606323072,0.9314691606323072,0.0,0,False
2023-12-29,0.9314691606323072,0.9314691606323072,0.0,0,False
2023-12-30,0.9314691606323072,0.9314691606323072,0.0,0,False
2023-12-31,0.9314691606323072,0.9314691606323072,0.0,0,False
