day,start_equity,end_equity,return_pct,entries,active
2024-01-02,1.0,1.0,0.0,0,False
2024-01-03,1.0,0.9935142824198505,-0.6485717580149486,6,True
2024-01-04,0.9935142824198505,0.9978935776167611,0.44078834843159775,2,True
2024-01-05,0.9978935776167611,0.9959519064489843,-0.19457697807956364,1,True
2024-01-06,0.9959519064489843,0.9966019939595173,0.06527298219156652,2,True
2024-01-07,0.9966019939595173,0.9927780617971071,-0.38369702103621117,1,True
2024-01-08,0.9927780617971071,0.9976605384610893,0.49179941135524263,3,True
2024-01-09,0.9976605384610893,1.0133097963274431,1.568595455373334,0,True
2024-01-10,1.0133097963274431,1.0133097963274431,0.0,0,False
2024-01-11,1.0133097963274431,1.0141367663718461,0.08161078155961565,1,True
2024-01-12,1.0141367663718461,1.0069454575771757,-0.7091064078465381,2,True
2024-01-13,1.0069454575771757,1.012331996934717,0.5349385427987352,4,True
2024-01-14,1.012331996934717,1.0153440980730501,0.2975408410929914,0,True
2024-01-15,1.0153440980730501,1.0153440980730501,0.0,0,False
2024-01-16,1.0153440980730501,1.0150220340047702,-0.03171969669112373,1,True
2024-01-17,1.0150220340047702,1.0167773843507357,0.17293716659920744,0,True
2024-01-18,1.0167773843507357,1.0167773843507357,0.0,0,False
2024-01-19,1.0167773843507357,1.0167773843507357,0.0,0,False
2024-01-20,1.0167773843507357,1.0305114416393792,1.3507437812863454,6,True
2024-01-21,1.0305114416393792,1.0329123147649304,0.23297879368828767,0,True
2024-01-22,1.0329123147649304,1.0329123147649304,0.0,0,False
2024-01-23,1.0329123147649304,1.0114974543515083,-2.0732505661233858,8,True
2024-01-24,1.0114974543515083,1.024486522532455,1.2841424489075326,0,True
2024-01-25,1.024486522532455,1.0229781873582802,-0.14722840574284968,1,True
2024-01-26,1.0229781873582802,1.0229781873582802,0.0,0,False
2024-01-27,1.0229781873582802,1.0229781873582802,0.0,0,False
2024-01-28,1.0229781873582802,1.0220443440198184,-0.09128673025505796,1,True
2024-01-29,1.0220443440198184,1.0220443440198184,0.0,0,False
2024-01-30,1.0220443440198184,1.0220443440198184,0.0,0,False
2024-01-31,1.0220443440198184,1.017576747393788,-0.4371235604571533,1,True
2024-02-01,1.017576747393788,1.017576747393788,0.0,0,False
2024-02-02,1.017576747393788,1.0173712974509954,-0.020190117680929376,2,True
2024-02-03,1.0173712974509954,1.0257310416620307,0.8217004187144328,1,True
2024-02-04,1.0257310416620307,1.0240900996449243,-0.1599778061164625,1,True
2024-02-05,1.0240900996449243,1.0240900996449243,0.0,0,False
2024-02-06,1.0240900996449243,1.0189776060263078,-0.49922302933980145,1,True
2024-02-07,1.0189776060263078,1.0171166089986359,-0.18263375138627413,3,True
2024-02-08,1.0171166089986359,1.0259540381876164,0.8688707971921783,0,True
2024-02-09,1.0259540381876164,1.0259540381876164,0.0,0,False
2024-02-10,1.0259540381876164,1.0259540381876164,0.0,0,False
2024-02-11,1.0259540381876164,1.0259540381876164,0.0,0,False
2024-02-12,1.0259540381876164,1.0259540381876164,0.0,0,False
2024-02-13,1.0259540381876164,1.0259540381876164,0.0,0,False
2024-02-14,1.0259540381876164,1.02729551020898,0.1307536177481472,1,True
2024-02-15,1.02729551020898,1.0279751669566661,0.0661598090259119,0,True
2024-02-16,1.0279751669566661,1.0332182450901477,0.5100393766323874,1,True
2024-02-17,1.0332182450901477,1.030021239132174,-0.30942213546517605,2,True
2024-02-18,1.030021239132174,1.0315359095430752,0.14705234740377549,0,True
2024-02-19,1.0315359095430752,1.0315359095430752,0.0,0,False
2024-02-20,1.0315359095430752,1.033890703851763,0.22828040079874157,7,True
2024-02-21,1.033890703851763,1.0256548220974688,-0.7965911409795523,6,True
2024-02-22,1.0256548220974688,1.0510908036250466,2.479974839445598,3,True
2024-02-23,1.0510908036250466,1.0518029095306727,0.06774922805623529,1,True
2024-02-24,1.0518029095306727,1.0482042748852745,-0.34213963593273666,3,True
2024-02-25,1.0482042748852745,1.044628811138564,-0.34110371731710387,1,True
2024-02-26,1.044628811138564,1.0499686619114674,0.5111720752832172,0,True
2024-02-27,1.0499686619114674,1.0491307603666065,-0.07980252889981942,1,True
2024-02-28,1.0491307603666065,1.0491900092078439,0.005647421987386991,1,True
2024-02-29,1.0491900092078439,1.074278602865898,2.3912345178540573,5,True
2024-03-01,1.074278602865898,1.070927868231863,-0.31190555458295854,1,True
2024-03-02,1.070927868231863,1.070496996133354,-0.040233531248046184,1,True
2024-03-03,1.070496996133354,1.0757030757766028,0.4863236106269708,6,True
2024-03-04,1.0757030757766028,1.0924318260021284,1.5551457090934084,0,True
2024-03-05,1.0924318260021284,1.0852211419551339,-0.6600580352352781,5,True
2024-03-06,1.0852211419551339,1.0706380743829134,-1.3437876399963633,5,True
2024-03-07,1.0706380743829134,1.0698443654520353,-0.07413419622084305,0,True
2024-03-08,1.0698443654520353,1.0707597855333413,0.08556572440507892,2,True
2024-03-09,1.0707597855333413,1.0613634683585547,-0.8775373619496096,3,True
2024-03-10,1.0613634683585547,1.05940147148122,-0.18485626609787698,2,True
2024-03-11,1.05940147148122,1.055400756338721,-0.3776391906370802,0,True
2024-03-12,1.055400756338721,1.0515036195885221,-0.3692565811416082,1,True
2024-03-13,1.0515036195885221,1.0559684471618562,0.42461361902694783,2,True
2024-03-14,1.0559684471618562,1.05078925480952,-0.4904684762368161,1,True
2024-03-15,1.05078925480952,1.035837954830457,-1.422863805528074,11,True
2024-03-16,1.035837954830457,1.0449917481440405,0.8837090078516852,1,True
2024-03-17,1.0449917481440405,1.0299097775183048,-1.4432621743207141,4,True
2024-03-18,1.0299097775183048,1.0299097775183048,0.0,0,False
2024-03-19,1.0299097775183048,1.020950043371858,-0.86995330484545,10,True
2024-03-20,1.020950043371858,1.018422840413833,-0.2475344385782563,0,True
2024-03-21,1.018422840413833,1.0202448133646187,0.17890142271803633,2,True
2024-03-22,1.0202448133646187,1.0202448133646187,0.0,0,False
2024-03-23,1.0202448133646187,1.0220293022734004,0.1749079128269937,1,True
2024-03-24,1.0220293022734004,1.0185766382968786,-0.337824362651995,2,True
2024-03-25,1.0185766382968786,1.026910843741813,0.8182207535085251,2,True
2024-03-26,1.026910843741813,1.0410202630549363,1.3739673116813123,2,True
2024-03-27,1.0410202630549363,1.0350038964539612,-0.5779298265837562,3,True
2024-03-28,1.0350038964539612,1.0337071878088147,-0.12528538777382137,0,True
2024-03-29,1.0337071878088147,1.021480144130738,-1.182834348283368,4,True
2024-03-30,1.021480144130738,1.0205449835100882,-0.09154956423020888,0,True
2024-03-31,1.0205449835100882,1.0205449835100882,0.0,0,False
2024-04-01,1.0205449835100882,1.018880292701917,-0.1631178277360812,4,True
2024-04-02,1.018880292701917,1.0066723113034237,-1.1981762220681924,5,True
2024-04-03,1.0066723113034237,1.0049199179128199,-0.17407783753731199,1,True
2024-04-04,1.0049199179128199,1.0044430914528484,-0.047449199828963895,1,True
2024-04-05,1.0044430914528484,0.9960028386815021,-0.8402917838917223,3,True
2024-04-06,0.9960028386815021,0.9957370793347451,-0.02668258928948397,1,True
2024-04-07,0.9957370793347451,1.0111866139824934,1.5515676746787666,1,True
2024-04-08,1.0111866139824934,1.0054976932086297,-0.5625985050828786,0,True
2024-04-09,1.0054976932086297,1.0004821044349475,-0.4988165370799713,1,True
2024-04-10,1.0004821044349475,0.9895827191347818,-1.0894133190239685,5,True
2024-04-11,0.9895827191347818,0.9879522684344891,-0.16476143618576744,1,True
2024-04-12,0.9879522684344891,0.9861665608906488,-0.1807483621318995,3,True
2024-04-13,0.9861665608906488,0.9644130602362946,-2.2058647612942517,7,True
2024-04-14,0.9644130602362946,0.9238185581790341,-4.2092443301539495,14,True
2024-04-15,0.9238185581790341,0.9302823335893807,0.6996801864521451,0,True
2024-04-16,0.9302823335893807,0.9302823335893807,0.0,0,False
2024-04-17,0.9302823335893807,0.9302823335893807,0.0,0,False
2024-04-18,0.9302823335893807,0.9302823335893807,0.0,0,False
2024-04-19,0.9302823335893807,0.9344619930989383,0.4492893564291167,4,True
2024-04-20,0.9344619930989383,0.9320554062715614,-0.25753715454985837,0,True
2024-04-21,0.9320554062715614,0.9320554062715614,0.0,0,False
2024-04-22,0.9320554062715614,0.9320554062715614,0.0,0,False
2024-04-23,0.9320554062715614,0.9339875876992414,0.20730327989932906,1,True
2024-04-24,0.9339875876992414,0.9310091342900988,-0.31889646590268494,1,True
2024-04-25,0.9310091342900988,0.9310091342900988,0.0,0,False
2024-04-26,0.9310091342900988,0.9310091342900988,0.0,0,False
2024-04-27,0.9310091342900988,0.9383175545934548,0.7849998495373267,3,True
2024-04-28,0.9383175545934548,0.9413718291247085,0.3255054236491528,1,True
2024-04-29,0.9413718291247085,0.9436078850832231,0.23753164151871786,2,True
2024-04-30,0.9436078850832231,0.9430721505239218,-0.05677512532168416,2,True
2024-05-01,0.9430721505239218,0.9398885134151397,-0.33758149967777484,3,True
2024-05-02,0.9398885134151397,0.941207362690758,0.14031975673649555,1,True
2024-05-03,0.941207362690758,0.9395435524443575,-0.1767740364507886,1,True
2024-05-04,0.9395435524443575,0.9398293484226453,0.030418598216575,0,True
2024-05-05,0.9398293484226453,0.9378411655719917,-0.21154721907657992,1,True
2024-05-06,0.9378411655719917,0.9378411655719917,0.0,0,False
2024-05-07,0.9378411655719917,0.942947770974548,0.544506424970348,2,True
2024-05-08,0.942947770974548,0.9451522133129546,0.2337820191385953,2,True
2024-05-09,0.9451522133129546,0.9403591722564404,-0.5071184290743602,1,True
2024-05-10,0.9403591722564404,0.9403591722564404,0.0,0,False
2024-05-11,0.9403591722564404,0.9333049319619742,-0.7501644587077472,4,True
2024-05-12,0.9333049319619742,0.930238907370418,-0.328512631462341,0,True
2024-05-13,0.930238907370418,0.9325682504250963,0.25040266927371935,3,True
2024-05-14,0.9325682504250963,0.932048033156409,-0.05578329183414388,3,True
2024-05-15,0.932048033156409,0.9378706012305531,0.6247068677807999,2,True
2024-05-16,0.9378706012305531,0.9471617425740181,0.9906634594659902,0,True
2024-05-17,0.9471617425740181,0.9471617425740181,0.0,0,False
2024-05-18,0.9471617425740181,0.9526726071282036,0.5818293018475584,2,True
2024-05-19,0.9526726071282036,0.9520575003102505,-0.06456644321991556,0,True
2024-05-20,0.9520575003102505,0.9483091307030938,-0.3937125232389094,1,True
2024-05-21,0.9483091307030938,0.9430105856414567,-0.5587360587479107,2,True
2024-05-22,0.9430105856414567,0.9456380033511268,0.27862017136137673,1,True
2024-05-23,0.9456380033511268,0.9408690993950799,-0.5043054466029262,1,True
2024-05-24,0.9408690993950799,0.9440161703259987,0.3344855233254229,2,True
2024-05-25,0.9440161703259987,0.9435462786577078,-0.049775807137775185,0,True
2024-05-26,0.9435462786577078,0.9452234716979133,0.17775418950212174,2,True
2024-05-27,0.9452234716979133,0.9487449727235967,0.37255750953344435,2,True
2024-05-28,0.9487449727235967,0.9538624340119233,0.5393927172689716,1,True
2024-05-29,0.9538624340119233,0.9532877068008724,-0.06025263083625498,0,True
2024-05-30,0.9532877068008724,0.9536140420474083,0.03423260828896435,3,True
2024-05-31,0.9536140420474083,0.9489593502236359,-0.4881106630706511,0,True
2024-06-01,0.9489593502236359,0.9470318736978285,-0.2031147620130569,2,True
2024-06-02,0.9470318736978285,0.9557753400078772,0.9232494230535737,0,True
2024-06-03,0.9557753400078772,0.95684586301125,0.11200571500034062,1,True
2024-06-04,0.95684586301125,0.95555440920935,-0.13496988928139997,3,True
2024-06-05,0.95555440920935,0.9545652403336523,-0.1035177972247725,0,True
2024-06-06,0.9545652403336523,0.9557451447667207,0.12360647373415024,1,True
2024-06-07,0.9557451447667207,0.9545616847188362,-0.12382590216279965,0,True
2024-06-08,0.9545616847188362,0.9737956954690989,2.014957342010648,5,True
2024-06-09,0.9737956954690989,0.9737956954690989,0.0,0,False
2024-06-10,0.9737956954690989,0.9737956954690989,0.0,0,False
2024-06-11,0.9737956954690989,0.9740098022704138,0.021986829712949962,1,True
2024-06-12,0.9740098022704138,0.9715863092885395,-0.24881607723301613,1,True
2024-06-13,0.9715863092885395,0.9667445152450538,-0.4983390561597356,1,True
2024-06-14,0.9667445152450538,0.9607356939058739,-0.621552152034377,4,True
2024-06-15,0.9607356939058739,0.9703441207476426,1.0001113628562708,4,True
2024-06-16,0.9703441207476426,0.9706604524936575,0.03259995492848056,0,True
2024-06-17,0.9706604524936575,0.9635239200559135,-0.7352243948344661,2,True
2024-06-18,0.9635239200559135,0.9658839196529074,0.2449341991278331,5,True
2024-06-19,0.9658839196529074,0.9658839196529074,0.0,0,False
2024-06-20,0.9658839196529074,0.9703323959590403,0.46056013726074596,1,True
2024-06-21,0.9703323959590403,0.9689189526604369,-0.14566588774008737,1,True
2024-06-22,0.9689189526604369,0.9715711843077292,0.27373101124812393,0,True
2024-06-23,0.9715711843077292,0.9722833018385769,0.0732954560972443,2,True
2024-06-24,0.9722833018385769,0.9722833018385769,0.0,0,False
2024-06-25,0.9722833018385769,0.9722833018385769,0.0,0,False
2024-06-26,0.9722833018385769,0.9722833018385769,0.0,0,False
2024-06-27,0.9722833018385769,0.9674386532637685,-0.4982754065247397,1,True
2024-06-28,0.9674386532637685,0.9672561110594452,-0.018868607710420537,1,True
2024-06-29,0.9672561110594452,0.9563675945155731,-1.1257118377826392,3,True
2024-06-30,0.9563675945155731,0.9538956142169963,-0.25847595764982856,0,True
2024-07-01,0.9538956142169963,0.9477763086795814,-0.6415068322164319,2,True
2024-07-02,0.9477763086795814,0.9519151920709151,0.4366941179506645,0,True
2024-07-03,0.9519151920709151,0.9489102981866387,-0.31566823487071405,1,True
2024-07-04,0.9489102981866387,0.9408828993900011,-0.8459597089396031,4,True
2024-07-05,0.9408828993900011,0.9120859757932287,-3.0606278013387445,15,True
2024-07-06,0.9120859757932287,0.918811316177459,0.7373581616997749,0,True
2024-07-07,0.918811316177459,0.918811316177459,0.0,0,False
2024-07-08,0.918811316177459,0.9177106457763613,-0.1197928651637481,2,True
2024-07-09,0.9177106457763613,0.9177106800806921,3.7380334383385616e-06,1,True
2024-07-10,0.9177106800806921,0.9211992107806626,0.38013404177270615,1,True
2024-07-11,0.9211992107806626,0.9110962484535653,-1.096718517435069,2,True
2024-07-12,0.9110962484535653,0.9110962484535653,0.0,0,False
2024-07-13,0.9110962484535653,0.9110962484535653,0.0,0,False
2024-07-14,0.9110962484535653,0.9118984040088677,0.08804289960187006,1,True
2024-07-15,0.9118984040088677,0.9131624417772094,0.13861607420133648,0,True
2024-07-16,0.9131624417772094,0.9113704801657481,-0.1962368938404624,1,True
2024-07-17,0.9113704801657481,0.9113704801657481,0.0,0,False
2024-07-18,0.9113704801657481,0.9113704801657481,0.0,0,False
2024-07-19,0.9113704801657481,0.9084515557159424,-0.3202785819082954,2,True
2024-07-20,0.9084515557159424,0.9103340973561045,0.20722531964607604,1,True
2024-07-21,0.9103340973561045,0.9101299610231774,-0.022424331190040725,1,True
2024-07-22,0.9101299610231774,0.9101463110590481,0.0017964506796586122,1,True
2024-07-23,0.9101463110590481,0.9072964793796957,-0.31311797287144616,3,True
2024-07-24,0.9072964793796957,0.9063391985181146,-0.1055091564155064,1,True
2024-07-25,0.9063391985181146,0.9055421321572231,-0.08794349424527947,0,True
2024-07-26,0.9055421321572231,0.9055421321572231,0.0,0,False
2024-07-27,0.9055421321572231,0.9055421321572231,0.0,0,False
2024-07-28,0.9055421321572231,0.9034111548286919,-0.23532613810631764,1,True
2024-07-29,0.9034111548286919,0.9034111548286919,0.0,0,False
2024-07-30,0.9034111548286919,0.8999149944686595,-0.38699548277055795,2,True
2024-07-31,0.8999149944686595,0.8886505069412572,-1.251727951710957,4,True
2024-08-01,0.8886505069412572,0.8867091519467417,-0.2184610236928508,0,True
2024-08-02,0.8867091519467417,0.882416804858907,-0.4840761007610106,4,True
2024-08-03,0.882416804858907,0.8797652953284666,-0.30048266486315534,6,True
2024-08-04,0.8797652953284666,0.8660008917998087,-1.564554046601585,3,True
2024-08-05,0.8660008917998087,0.8514440784434254,-1.6809235988348492,8,True
2024-08-06,0.8514440784434254,0.8532856804391861,0.2162915971096302,0,True
2024-08-07,0.8532856804391861,0.8532856804391861,0.0,0,False
2024-08-08,0.8532856804391861,0.8532856804391861,0.0,0,False
2024-08-09,0.8532856804391861,0.8532856804391861,0.0,0,False
2024-08-10,0.8532856804391861,0.8532856804391861,0.0,0,False
2024-08-11,0.8532856804391861,0.8523066255841409,-0.11473939824482304,1,True
2024-08-12,0.8523066255841409,0.8532722369457959,0.11329389361407483,1,True
2024-08-13,0.8532722369457959,0.8499946511629162,-0.38411958586763717,0,True
2024-08-14,0.8499946511629162,0.8499946511629162,0.0,0,False
2024-08-15,0.8499946511629162,0.8499946511629162,0.0,0,False
2024-08-16,0.8499946511629162,0.8499946511629162,0.0,0,False
2024-08-17,0.8499946511629162,0.8674954230406173,2.058927294866808,1,True
2024-08-18,0.8674954230406173,0.8674954230406173,0.0,0,False
2024-08-19,0.8674954230406173,0.8670721400972157,-0.048793680307612775,1,True
2024-08-20,0.8670721400972157,0.8605254977455217,-0.7550285667072609,2,True
2024-08-21,0.8605254977455217,0.8605254977455217,0.0,0,False
2024-08-22,0.8605254977455217,0.8605254977455217,0.0,0,False
2024-08-23,0.8605254977455217,0.8605254977455217,0.0,0,False
2024-08-24,0.8605254977455217,0.8591295449607029,-0.16222096712718015,1,True
2024-08-25,0.8591295449607029,0.8560741834687094,-0.35563455009957057,2,True
2024-08-26,0.8560741834687094,0.8582176294494688,0.25038086910580404,2,True
2024-08-27,0.8582176294494688,0.8520012570805644,-0.7243351983915902,0,True
2024-08-28,0.8520012570805644,0.852927086457082,0.10866525944928096,4,True
2024-08-29,0.852927086457082,0.8517177862647973,-0.1417823646928551,3,True
2024-08-30,0.8517177862647973,0.8536345739713875,0.22504962764675618,0,True
2024-08-31,0.8536345739713875,0.8536345739713875,0.0,0,False
2024-09-01,0.8536345739713875,0.8505584486139627,-0.36035622867449657,1,True
2024-09-02,0.8505584486139627,0.8505584486139627,0.0,0,False
2024-09-03,0.8505584486139627,0.8505584486139627,0.0,0,False
2024-09-04,0.8505584486139627,0.8505584486139627,0.0,0,False
2024-09-05,0.8505584486139627,0.8505584486139627,0.0,0,False
2024-09-06,0.8505584486139627,0.8504614262733685,-0.011406898697230439,1,True
2024-09-07,0.8504614262733685,0.8485010680670513,-0.2305052464175006,0,True
2024-09-08,0.8485010680670513,0.8485010680670513,0.0,0,False
2024-09-09,0.8485010680670513,0.8485010680670513,0.0,0,False
2024-09-10,0.8485010680670513,0.8485010680670513,0.0,0,False
2024-09-11,0.8485010680670513,0.8442684939538936,-0.4988295563139178,1,True
2024-09-12,0.8442684939538936,0.8442684939538936,0.0,0,False
2024-09-13,0.8442684939538936,0.8418026389630752,-0.2920700000624499,1,True
2024-09-14,0.8418026389630752,0.8418026389630752,0.0,0,False
2024-09-15,0.8418026389630752,0.8436831774294619,0.22339422322352753,1,True
2024-09-16,0.8436831774294619,0.8438971950662126,0.025367062242831473,0,True
2024-09-17,0.8438971950662126,0.8438971950662126,0.0,0,False
2024-09-18,0.8438971950662126,0.8438971950662126,0.0,0,False
2024-09-19,0.8438971950662126,0.8438971950662126,0.0,0,False
2024-09-20,0.8438971950662126,0.8438971950662126,0.0,0,False
2024-09-21,0.8438971950662126,0.8438971950662126,0.0,0,False
2024-09-22,0.8438971950662126,0.8415392419335008,-0.27941236758427523,1,True
2024-09-23,0.8415392419335008,0.8415392419335008,0.0,0,False
2024-09-24,0.8415392419335008,0.8415392419335008,0.0,0,False
2024-09-25,0.8415392419335008,0.8415392419335008,0.0,0,False
2024-09-26,0.8415392419335008,0.8415392419335008,0.0,0,False
2024-09-27,0.8415392419335008,0.8415392419335008,0.0,0,False
2024-09-28,0.8415392419335008,0.8415392419335008,0.0,0,False
2024-09-29,0.8415392419335008,0.8415392419335008,0.0,0,False
2024-09-30,0.8415392419335008,0.8398561723792377,-0.19999893889631748,1,True
2024-10-01,0.8398561723792377,0.8410425406362578,0.14125850306716536,0,True
2024-10-02,0.8410425406362578,0.8258656814840675,-1.8045293096243253,7,True
2024-10-03,0.8258656814840675,0.8190113139465541,-0.8299615411063166,1,True
2024-10-04,0.8190113139465541,0.8190113139465541,0.0,0,False
2024-10-05,0.8190113139465541,0.8190113139465541,0.0,0,False
2024-10-06,0.8190113139465541,0.8190113139465541,0.0,0,False
2024-10-07,0.8190113139465541,0.8190113139465541,0.0,0,False
2024-10-08,0.8190113139465541,0.8190113139465541,0.0,0,False
2024-10-09,0.8190113139465541,0.8190113139465541,0.0,0,False
2024-10-10,0.8190113139465541,0.8190113139465541,0.0,0,False
2024-10-11,0.8190113139465541,0.8190113139465541,0.0,0,False
2024-10-12,0.8190113139465541,0.8190113139465541,0.0,0,False
2024-10-13,0.8190113139465541,0.8190113139465541,0.0,0,False
2024-10-14,0.8190113139465541,0.8190113139465541,0.0,0,False
2024-10-15,0.8190113139465541,0.819206014366368,0.023772616629136323,1,True
2024-10-16,0.819206014366368,0.8199820068347196,0.09472494766189499,3,True
2024-10-17,0.8199820068347196,0.8198518754138048,-0.015870033711729015,2,True
2024-10-18,0.8198518754138048,0.8239829540400949,0.5038810973268859,1,True
2024-10-19,0.8239829540400949,0.8232641492922537,-0.08723539052802876,1,True
2024-10-20,0.8232641492922537,0.8248601644766744,0.19386428836878355,2,True
2024-10-21,0.8248601644766744,0.8237707955859406,-0.13206709908520908,0,True
2024-10-22,0.8237707955859406,0.8237707955859406,0.0,0,False
2024-10-23,0.8237707955859406,0.8237707955859406,0.0,0,False
2024-10-24,0.8237707955859406,0.8230123094694177,-0.09207489760344467,1,True
2024-10-25,0.8230123094694177,0.8230123094694177,0.0,0,False
2024-10-26,0.8230123094694177,0.8099483048411027,-1.5873401257797903,9,True
2024-10-27,0.8099483048411027,0.8082352872850042,-0.21149714689934207,1,True
2024-10-28,0.8082352872850042,0.8082352872850042,0.0,0,False
2024-10-29,0.8082352872850042,0.8199964185956823,1.455161819299633,2,True
2024-10-30,0.8199964185956823,0.8221492133511696,0.2625370924392856,0,True
2024-10-31,0.8221492133511696,0.8221492133511696,0.0,0,False
2024-11-01,0.8221492133511696,0.8218767111943385,-0.03314509731395798,2,True
2024-11-02,0.8218767111943385,0.8204343400989708,-0.17549725837487928,0,True
2024-11-03,0.8204343400989708,0.818570678693853,-0.22715546071522263,2,True
2024-11-04,0.818570678693853,0.8270655496911254,1.037768786297999,3,True
2024-11-05,0.8270655496911254,0.8280038285316708,0.11344673235340608,1,True
2024-11-06,0.8280038285316708,0.8288091633178738,0.09726220561456778,1,True
2024-11-07,0.8288091633178738,0.8297093170829783,0.10860808554542523,1,True
2024-11-08,0.8297093170829783,0.8276004356845051,-0.2541711121055501,2,True
2024-11-09,0.8276004356845051,0.8264700409049801,-0.13658702083573226,2,True
2024-11-10,0.8264700409049801,0.8288705939115444,0.2904585632572676,1,True
2024-11-11,0.8288705939115444,0.8299603885414119,0.13147946589884274,2,True
2024-11-12,0.8299603885414119,0.8218262828900378,-0.9800595020768577,4,True
2024-11-13,0.8218262828900378,0.8200565929193017,-0.21533625871793527,0,True
2024-11-14,0.8200565929193017,0.8221507321629489,0.25536521036826354,4,True
2024-11-15,0.8221507321629489,0.8280840090470426,0.7216775041340995,3,True
2024-11-16,0.8280840090470426,0.8232772350311389,-0.5804693682510909,0,True
2024-11-17,0.8232772350311389,0.8207527841721579,-0.30663435736633105,6,True
2024-11-18,0.8207527841721579,0.8219775655874745,0.1492265928225711,1,True
2024-11-19,0.8219775655874745,0.8192718356277193,-0.32917321263158383,1,True
2024-11-20,0.8192718356277193,0.8209132866865334,0.20035487458889278,1,True
2024-11-21,0.8209132866865334,0.8336391237056819,1.5502047811303044,3,True
2024-11-22,0.8336391237056819,0.8292853493964729,-0.5222612741416999,0,True
2024-11-23,0.8292853493964729,0.8292853493964729,0.0,0,False
2024-11-24,0.8292853493964729,0.8400687693655735,1.3003268388798173,9,True
2024-11-25,0.8400687693655735,0.8443595965541564,0.5107709446005693,0,True
2024-11-26,0.8443595965541564,0.8396434077155623,-0.5585521687490602,2,True
2024-11-27,0.8396434077155623,0.8396434077155623,0.0,0,False
2024-11-28,0.8396434077155623,0.8389316099037488,-0.08477382246709908,2,True
2024-11-29,0.8389316099037488,0.8468358221259419,0.9421759925221984,2,True
2024-11-30,0.8468358221259419,0.8494794604120741,0.31217837236685586,0,True
2024-12-01,0.8494794604120741,0.8501069740109188,0.07387036745305497,1,True
2024-12-02,0.8501069740109188,0.8515671626488136,0.17176528160984805,9,True
2024-12-03,0.8515671626488136,0.8472721086560172,-0.504370551282951,5,True
2024-12-04,0.8472721086560172,0.8883691768242353,4.85051587894334,1,True
2024-12-05,0.8883691768242353,0.8915435065843116,0.3573210150563666,6,True
2024-12-06,0.8915435065843116,0.888237563002632,-0.3708112455829915,1,True
2024-12-07,0.888237563002632,0.8877306971159504,-0.05706422558489077,1,True
2024-12-08,0.8877306971159504,0.8865828018016461,-0.12930670506648978,0,True
2024-12-09,0.8865828018016461,0.8865828018016461,0.0,0,False
2024-12-10,0.8865828018016461,0.8649230450952045,-2.4430607792556236,7,True
2024-12-11,0.8649230450952045,0.8816406498398532,1.9328430245269645,4,True
2024-12-12,0.8816406498398532,0.8883715539771233,0.7634521092570568,0,True
2024-12-13,0.8883715539771233,0.8883715539771233,0.0,0,False
2024-12-14,0.8883715539771233,0.8883715539771233,0.0,0,False
2024-12-15,0.8883715539771233,0.8832860951973035,-0.5724472780620715,2,True
2024-12-16,0.8832860951973035,0.8815504057613498,-0.19650365214523013,0,True
2024-12-17,0.8815504057613498,0.8815504057613498,0.0,0,False
2024-12-18,0.8815504057613498,0.8772974241411877,-0.48244338524113806,2,True
2024-12-19,0.8772974241411877,0.8604976588298942,-1.9149452453641191,6,True
2024-12-20,0.8604976588298942,0.8279952913100092,-3.7771593201173514,10,True
2024-12-21,0.8279952913100092,0.828319421103897,0.0391463329912245,1,True
2024-12-22,0.828319421103897,0.8304567327528041,0.25802988490342127,0,True
2024-12-23,0.8304567327528041,0.8285475439843734,-0.22989623578607565,1,True
2024-12-24,0.8285475439843734,0.8285475439843734,0.0,0,False
2024-12-25,0.8285475439843734,0.8285475439843734,0.0,0,False
2024-12-26,0.8285475439843734,0.8285475439843734,0.0,0,False
2024-12-27,0.8285475439843734,0.8285475439843734,0.0,0,False
2024-12-28,0.8285475439843734,0.8244138922922605,-0.49890337882539937,1,True
2024-12-29,0.8244138922922605,0.8513098460574,3.262433350116911,3,True
2024-12-30,0.8513098460574,0.8500573826188943,-0.14712192561922022,0,True
2024-12-31,0.8500573826188943,0.8500573826188943,0.0,0,False
