day,start_equity,end_equity,return_pct,entries,active
2021-09-02,1.0,1.0,0.0,0,False
2021-09-03,1.0,1.0,0.0,0,False
2021-09-04,1.0,1.0,0.0,0,False
2021-09-05,1.0,1.0,0.0,0,False
2021-09-06,1.0,1.0,0.0,0,False
2021-09-07,1.0,1.0,0.0,0,False
2021-09-08,1.0,1.0,0.0,0,False
2021-09-09,1.0,1.0,0.0,0,False
2021-09-10,1.0,1.0,0.0,0,False
2021-09-11,1.0,1.0,0.0,0,False
2021-09-12,1.0,1.0,0.0,0,False
2021-09-13,1.0,1.0,0.0,0,False
2021-09-14,1.0,1.0,0.0,0,False
2021-09-15,1.0,1.0,0.0,0,False
2021-09-16,1.0,1.0,0.0,0,False
2021-09-17,1.0,1.0,0.0,0,False
2021-09-18,1.0,1.0,0.0,0,False
2021-09-19,1.0,1.0,0.0,0,False
2021-09-20,1.0,1.0,0.0,0,False
2021-09-21,1.0,1.0,0.0,0,False
2021-09-22,1.0,1.0,0.0,0,False
2021-09-23,1.0,1.0,0.0,0,False
2021-09-24,1.0,1.0,0.0,0,False
2021-09-25,1.0,1.0,0.0,0,False
2021-09-26,1.0,1.0,0.0,0,False
2021-09-27,1.0,1.0,0.0,0,False
2021-09-28,1.0,1.0,0.0,0,False
2021-09-29,1.0,1.0,0.0,0,False
2021-09-30,1.0,1.0,0.0,0,False
2021-10-01,1.0,1.0,0.0,0,False
2021-10-02,1.0,1.0,0.0,0,False
2021-10-03,1.0,1.0,0.0,0,False
2021-10-04,1.0,1.0,0.0,0,False
2021-10-05,1.0,1.0,0.0,0,False
2021-10-06,1.0,1.0013367622167146,0.13367622167146376,1,True
2021-10-07,1.0013367622167146,1.0004939772081831,-0.08416599093653554,0,True
2021-10-08,1.0004939772081831,1.0004939772081831,0.0,0,False
2021-10-09,1.0004939772081831,0.9981469044963843,-0.2345913883807782,3,True
2021-10-10,0.9981469044963843,1.000300551514583,0.21576453410787622,1,True
2021-10-11,1.000300551514583,0.9966563313634399,-0.3643125204345177,0,True
2021-10-12,0.9966563313634399,0.9966563313634399,0.0,0,False
2021-10-13,0.9966563313634399,1.0093351271265074,1.27213316808239,4,True
2021-10-14,1.0093351271265074,1.0242386381808062,1.4765671632501087,0,True
2021-10-15,1.0242386381808062,1.0272008019946954,0.289206411813403,1,True
2021-10-16,1.0272008019946954,1.033599002476243,0.622877286419854,0,True
2021-10-17,1.033599002476243,1.033599002476243,0.0,0,False
2021-10-18,1.033599002476243,1.0325057488471512,-0.10577154452283688,1,True
2021-10-19,1.0325057488471512,1.0345453175890376,0.1975358242957581,0,True
2021-10-20,1.0345453175890376,1.0345453175890376,0.0,0,False
2021-10-21,1.0345453175890376,1.0345453175890376,0.0,0,False
2021-10-22,1.0345453175890376,1.0345453175890376,0.0,0,False
2021-10-23,1.0345453175890376,1.0345453175890376,0.0,0,False
2021-10-24,1.0345453175890376,1.0345453175890376,0.0,0,False
2021-10-25,1.0345453175890376,1.0379466019175363,0.3287709364366176,1,True
2021-10-26,1.0379466019175363,1.0379466019175363,0.0,0,False
2021-10-27,1.0379466019175363,1.0313638625000985,-0.6342079067725326,6,True
2021-10-28,1.0313638625000985,1.0345656558683,0.31044265604189825,0,True
2021-10-29,1.0345656558683,1.0345656558683,0.0,0,False
2021-10-30,1.0345656558683,1.0345656558683,0.0,0,False
2021-10-31,1.0345656558683,1.0345656558683,0.0,0,False
2021-11-01,1.0345656558683,1.035758817106455,0.11532967785921056,1,True
2021-11-02,1.035758817106455,1.0353092354889775,-0.04340601403070021,0,True
2021-11-03,1.0353092354889775,1.0352983567960128,-0.001050767499388705,1,True
2021-11-04,1.0352983567960128,1.0518717299987002,1.6008306295373531,1,True
2021-11-05,1.0518717299987002,1.0518717299987002,0.0,0,False
2021-11-06,1.0518717299987002,1.048741417873277,-0.2975944724198487,1,True
2021-11-07,1.048741417873277,1.0489149088634757,0.01654278044540547,0,True
2021-11-08,1.0489149088634757,1.0489149088634757,0.0,0,False
2021-11-09,1.0489149088634757,1.0489149088634757,0.0,0,False
2021-11-10,1.0489149088634757,1.0489149088634757,0.0,0,False
2021-11-11,1.0489149088634757,1.0228711184351276,-2.482926899815663,5,True
2021-11-12,1.0228711184351276,1.0228711184351276,0.0,0,False
2021-11-13,1.0228711184351276,1.0217078442639382,-0.11372636788973267,1,True
2021-11-14,1.0217078442639382,1.0220331128932483,0.03183577684522376,0,True
2021-11-15,1.0220331128932483,1.0220331128932483,0.0,0,False
2021-11-16,1.0220331128932483,1.036676089817557,1.4327301864864639,5,True
2021-11-17,1.036676089817557,1.022564847328842,-1.3612007286864847,0,True
2021-11-18,1.022564847328842,1.0196750599908688,-0.2826018658397933,2,True
2021-11-19,1.0196750599908688,1.0232094238716778,0.34661668402879986,1,True
2021-11-20,1.0232094238716778,1.0237219719562995,0.05009219741960447,0,True
2021-11-21,1.0237219719562995,1.0237219719562995,0.0,0,False
2021-11-22,1.0237219719562995,1.0186114708433565,-0.49920791513120566,1,True
2021-11-23,1.0186114708433565,1.0186114708433565,0.0,0,False
2021-11-24,1.0186114708433565,1.0186114708433565,0.0,0,False
2021-11-25,1.0186114708433565,1.0208390849176976,0.21869124176432386,2,True
2021-11-26,1.0208390849176976,0.9982775181525075,-2.210100210554633,2,True
2021-11-27,0.9982775181525075,0.9982775181525075,0.0,0,False
2021-11-28,0.9982775181525075,0.9932945591852037,-0.49915568333399607,1,True
2021-11-29,0.9932945591852037,0.9932945591852037,0.0,0,False
2021-11-30,0.9932945591852037,0.9932945591852037,0.0,0,False
2021-12-01,0.9932945591852037,0.9912378015140484,-0.2070642240145193,1,True
2021-12-02,0.9912378015140484,0.9890937541299117,-0.2163000019633765,2,True
2021-12-03,0.9890937541299117,0.9840491956619524,-0.5100182310216916,1,True
2021-12-04,0.9840491956619524,0.9500740939588467,-3.452581624260287,8,True
2021-12-05,0.9500740939588467,0.9472529694037368,-0.29693732026252473,1,True
2021-12-06,0.9472529694037368,0.9436811641312327,-0.37706984172901636,7,True
2021-12-07,0.9436811641312327,0.9553409380395061,1.2355628523122553,0,True
2021-12-08,0.9553409380395061,0.9569535125451807,0.16879570857539772,1,True
2021-12-09,0.9569535125451807,0.955829513885381,-0.1174559312510648,0,True
2021-12-10,0.955829513885381,0.9534419033464229,-0.24979460293631517,1,True
2021-12-11,0.9534419033464229,0.9532493993592177,-0.02019042655136971,1,True
2021-12-12,0.9532493993592177,0.9539917922060613,0.07788023232353503,0,True
2021-12-13,0.9539917922060613,0.9523155093784894,-0.1757124999676951,1,True
2021-12-14,0.9523155093784894,0.9516094827527892,-0.07413789009494964,0,True
2021-12-15,0.9516094827527892,0.9516094827527892,0.0,0,False
2021-12-16,0.9516094827527892,0.9516094827527892,0.0,0,False
2021-12-17,0.9516094827527892,0.9517299004205455,0.012654105485365719,2,True
2021-12-18,0.9517299004205455,0.9544688358903818,0.28778495544019567,0,True
2021-12-19,0.9544688358903818,0.9529795539533723,-0.15603253673758255,1,True
2021-12-20,0.9529795539533723,0.9520843366173158,-0.0939387767914579,0,True
2021-12-21,0.9520843366173158,0.950803107729772,-0.13457094484885523,1,True
2021-12-22,0.950803107729772,0.9510176075772265,0.022559859734450072,0,True
2021-12-23,0.9510176075772265,0.9510176075772265,0.0,0,False
2021-12-24,0.9510176075772265,0.9510176075772265,0.0,0,False
2021-12-25,0.9510176075772265,0.9517877837971322,0.08098443328170557,1,True
2021-12-26,0.9517877837971322,0.9516288562628779,-0.01669779093196322,0,True
2021-12-27,0.9516288562628779,0.9516288562628779,0.0,0,False
2021-12-28,0.9516288562628779,0.9516288562628779,0.0,0,False
2021-12-29,0.9516288562628779,0.9516288562628779,0.0,0,False
2021-12-30,0.9516288562628779,0.9516288562628779,0.0,0,False
2021-12-31,0.9516288562628779,0.9516288562628779,0.0,0,False
2022-01-01,0.9516288562628779,0.9516288562628779,0.0,0,False
2022-01-02,0.9516288562628779,0.9516288562628779,0.0,0,False
2022-01-03,0.9516288562628779,0.9516288562628779,0.0,0,False
2022-01-04,0.9516288562628779,0.9516288562628779,0.0,0,False
2022-01-05,0.9516288562628779,0.9522396028979129,0.06417907895663877,1,True
2022-01-06,0.9522396028979129,0.9441632094652914,-0.8481471898504234,9,True
2022-01-07,0.9441632094652914,0.9494497216736631,0.5599150819873167,4,True
2022-01-08,0.9494497216736631,0.9484498297404781,-0.1053127838536283,0,True
2022-01-09,0.9484498297404781,0.9486959831912961,0.025953238969456116,1,True
2022-01-10,0.9486959831912961,0.9493978225560732,0.07397937560735812,0,True
2022-01-11,0.9493978225560732,0.9493978225560732,0.0,0,False
2022-01-12,0.9493978225560732,0.9493978225560732,0.0,0,False
2022-01-13,0.9493978225560732,0.9493978225560732,0.0,0,False
2022-01-14,0.9493978225560732,0.9493978225560732,0.0,0,False
2022-01-15,0.9493978225560732,0.9495640526720547,0.017509005396076915,1,True
2022-01-16,0.9495640526720547,0.9490821405714114,-0.05075087870978212,0,True
2022-01-17,0.9490821405714114,0.9500590182505082,0.1029286757528336,1,True
2022-01-18,0.9500590182505082,0.9534054823150353,0.3522374926443472,0,True
2022-01-19,0.9534054823150353,0.9534054823150353,0.0,0,False
2022-01-20,0.9534054823150353,0.9534054823150353,0.0,0,False
2022-01-21,0.9534054823150353,0.937930562627408,-1.623120484901286,7,True
2022-01-22,0.937930562627408,0.9266889009033291,-1.1985601250254496,8,True
2022-01-23,0.9266889009033291,0.9305078632682541,0.4121083527818481,0,True
2022-01-24,0.9305078632682541,0.9276871714036564,-0.30313466182761983,2,True
2022-01-25,0.9276871714036564,0.9361175808213376,0.9087556320225287,0,True
2022-01-26,0.9361175808213376,0.9361175808213376,0.0,0,False
2022-01-27,0.9361175808213376,0.9424309113882468,0.6744164083928306,4,True
2022-01-28,0.9424309113882468,0.9363111647888289,-0.6493575842501986,0,True
2022-01-29,0.9363111647888289,0.9363111647888289,0.0,0,False
2022-01-30,0.9363111647888289,0.9395257719741736,0.3433268026948877,1,True
2022-01-31,0.9395257719741736,0.9405601405326309,0.1100947509171446,0,True
2022-02-01,0.9405601405326309,0.9405601405326309,0.0,0,False
2022-02-02,0.9405601405326309,0.9405601405326309,0.0,0,False
2022-02-03,0.9405601405326309,0.9391882230342826,-0.14586175186750427,3,True
2022-02-04,0.9391882230342826,0.9447981337307174,0.5973148468909173,0,True
2022-02-05,0.9447981337307174,0.9447981337307174,0.0,0,False
2022-02-06,0.9447981337307174,0.9447981337307174,0.0,0,False
2022-02-07,0.9447981337307174,0.9447981337307174,0.0,0,False
2022-02-08,0.9447981337307174,0.9447981337307174,0.0,0,False
2022-02-09,0.9447981337307174,0.9459152240216043,0.1182358697593866,2,True
2022-02-10,0.9459152240216043,0.946370648886623,0.04814647797741767,5,True
2022-02-11,0.946370648886623,0.9420066388399826,-0.4611311700943532,0,True
2022-02-12,0.9420066388399826,0.932614005825585,-0.9970877727532801,4,True
2022-02-13,0.932614005825585,0.932614005825585,0.0,0,False
2022-02-14,0.932614005825585,0.932614005825585,0.0,0,False
2022-02-15,0.932614005825585,0.932614005825585,0.0,0,False
2022-02-16,0.932614005825585,0.932614005825585,0.0,0,False
2022-02-17,0.932614005825585,0.932614005825585,0.0,0,False
2022-02-18,0.932614005825585,0.932614005825585,0.0,0,False
2022-02-19,0.932614005825585,0.932614005825585,0.0,0,False
2022-02-20,0.932614005825585,0.932614005825585,0.0,0,False
2022-02-21,0.932614005825585,0.932614005825585,0.0,0,False
2022-02-22,0.932614005825585,0.9317997212543487,-0.08731206760244081,2,True
2022-02-23,0.9317997212543487,0.9314149975037115,-0.04128824487298344,0,True
2022-02-24,0.9314149975037115,0.922132951645615,-0.9965531887475843,4,True
2022-02-25,0.922132951645615,0.922132951645615,0.0,0,False
2022-02-26,0.922132951645615,0.922132951645615,0.0,0,False
2022-02-27,0.922132951645615,0.922132951645615,0.0,0,False
2022-02-28,0.922132951645615,0.9231974569052894,0.11543945564191915,1,True
2022-03-01,0.9231974569052894,0.9245566448373563,0.14722613476678692,0,True
2022-03-02,0.9245566448373563,0.9245566448373563,0.0,0,False
2022-03-03,0.9245566448373563,0.9245566448373563,0.0,0,False
2022-03-04,0.9245566448373563,0.9236665299893501,-0.0962747769946426,1,True
2022-03-05,0.9236665299893501,0.9233598306494908,-0.03320455271480505,0,True
2022-03-06,0.9233598306494908,0.9202788689155068,-0.33366859069631216,3,True
2022-03-07,0.9202788689155068,0.9177624047831224,-0.2734458235849613,0,True
2022-03-08,0.9177624047831224,0.9182333485330861,0.051314343179598154,1,True
2022-03-09,0.9182333485330861,0.9223196961913951,0.4450227891240388,1,True
2022-03-10,0.9223196961913951,0.9221670892234067,-0.01654599469343987,3,True
2022-03-11,0.9221670892234067,0.9201349763871733,-0.22036275854787624,0,True
2022-03-12,0.9201349763871733,0.9201349763871733,0.0,0,False
2022-03-13,0.9201349763871733,0.9201349763871733,0.0,0,False
2022-03-14,0.9201349763871733,0.917838853950446,-0.24954191457245978,1,True
2022-03-15,0.917838853950446,0.9182191365555266,0.041432393436369175,1,True
2022-03-16,0.9182191365555266,0.9197675187750228,0.16862883355976965,1,True
2022-03-17,0.9197675187750228,0.9203569936089464,0.06408954674859135,1,True
2022-03-18,0.9203569936089464,0.9199202650265934,-0.047452084939392236,0,True
2022-03-19,0.9199202650265934,0.9199202650265934,0.0,0,False
2022-03-20,0.9199202650265934,0.9176226647159333,-0.24976081058434296,1,True
2022-03-21,0.9176226647159333,0.9203681922928637,0.29920006147410305,3,True
2022-03-22,0.9203681922928637,0.9200362554489292,-0.036065657930617334,0,True
2022-03-23,0.9200362554489292,0.9200362554489292,0.0,0,False
2022-03-24,0.9200362554489292,0.9200362554489292,0.0,0,False
2022-03-25,0.9200362554489292,0.9200362554489292,0.0,0,False
2022-03-26,0.9200362554489292,0.9200362554489292,0.0,0,False
2022-03-27,0.9200362554489292,0.9200362554489292,0.0,0,False
2022-03-28,0.9200362554489292,0.9200362554489292,0.0,0,False
2022-03-29,0.9200362554489292,0.9200362554489292,0.0,0,False
2022-03-30,0.9200362554489292,0.9234294778623814,0.36881398894399453,4,True
2022-03-31,0.9234294778623814,0.9269160641455575,0.3775693073224229,5,True
2022-04-01,0.9269160641455575,0.9165775711609034,-1.115364528090712,0,True
2022-04-02,0.9165775711609034,0.9165775711609034,0.0,0,False
2022-04-03,0.9165775711609034,0.9142898548308986,-0.24959331342869762,1,True
2022-04-04,0.9142898548308986,0.9142898548308986,0.0,0,False
2022-04-05,0.9142898548308986,0.9141086863654373,-0.019815211172269365,3,True
2022-04-06,0.9141086863654373,0.9015535829723687,-1.3734803727758704,7,True
2022-04-07,0.9015535829723687,0.8996200655537335,-0.21446505844504582,0,True
2022-04-08,0.8996200655537335,0.8996200655537335,0.0,0,False
2022-04-09,0.8996200655537335,0.8996200655537335,0.0,0,False
2022-04-10,0.8996200655537335,0.8996200655537335,0.0,0,False
2022-04-11,0.8996200655537335,0.895902422524446,-0.4132458992007093,6,True
2022-04-12,0.895902422524446,0.895902422524446,0.0,0,False
2022-04-13,0.895902422524446,0.895902422524446,0.0,0,False
2022-04-14,0.895902422524446,0.895902422524446,0.0,0,False
2022-04-15,0.895902422524446,0.895902422524446,0.0,0,False
2022-04-16,0.895902422524446,0.895902422524446,0.0,0,False
2022-04-17,0.895902422524446,0.895902422524446,0.0,0,False
2022-04-18,0.895902422524446,0.895902422524446,0.0,0,False
2022-04-19,0.895902422524446,0.895902422524446,0.0,0,False
2022-04-20,0.895902422524446,0.895902422524446,0.0,0,False
2022-04-21,0.895902422524446,0.895902422524446,0.0,0,False
2022-04-22,0.895902422524446,0.895902422524446,0.0,0,False
2022-04-23,0.895902422524446,0.895902422524446,0.0,0,False
2022-04-24,0.895902422524446,0.895902422524446,0.0,0,False
2022-04-25,0.895902422524446,0.895902422524446,0.0,0,False
2022-04-26,0.895902422524446,0.895902422524446,0.0,0,False
2022-04-27,0.895902422524446,0.895902422524446,0.0,0,False
2022-04-28,0.895902422524446,0.895902422524446,0.0,0,False
2022-04-29,0.895902422524446,0.895902422524446,0.0,0,False
2022-04-30,0.895902422524446,0.895902422524446,0.0,0,False
2022-05-01,0.895902422524446,0.895902422524446,0.0,0,False
2022-05-02,0.895902422524446,0.895902422524446,0.0,0,False
2022-05-03,0.895902422524446,0.895902422524446,0.0,0,False
2022-05-04,0.895902422524446,0.895902422524446,0.0,0,False
2022-05-05,0.895902422524446,0.895902422524446,0.0,0,False
2022-05-06,0.895902422524446,0.895902422524446,0.0,0,False
2022-05-07,0.895902422524446,0.895902422524446,0.0,0,False
2022-05-08,0.895902422524446,0.895902422524446,0.0,0,False
2022-05-09,0.895902422524446,0.895902422524446,0.0,0,False
2022-05-10,0.895902422524446,0.895902422524446,0.0,0,False
2022-05-11,0.895902422524446,0.895902422524446,0.0,0,False
2022-05-12,0.895902422524446,0.895902422524446,0.0,0,False
2022-05-13,0.895902422524446,0.895902422524446,0.0,0,False
2022-05-14,0.895902422524446,0.895902422524446,0.0,0,False
2022-05-15,0.895902422524446,0.895902422524446,0.0,0,False
2022-05-16,0.895902422524446,0.895902422524446,0.0,0,False
2022-05-17,0.895902422524446,0.895902422524446,0.0,0,False
2022-05-18,0.895902422524446,0.895902422524446,0.0,0,False
2022-05-19,0.895902422524446,0.895902422524446,0.0,0,False
2022-05-20,0.895902422524446,0.895902422524446,0.0,0,False
2022-05-21,0.895902422524446,0.895902422524446,0.0,0,False
2022-05-22,0.895902422524446,0.895902422524446,0.0,0,False
2022-05-23,0.895902422524446,0.895902422524446,0.0,0,False
2022-05-24,0.895902422524446,0.895902422524446,0.0,0,False
2022-05-25,0.895902422524446,0.895902422524446,0.0,0,False
2022-05-26,0.895902422524446,0.895902422524446,0.0,0,False
2022-05-27,0.895902422524446,0.895902422524446,0.0,0,False
2022-05-28,0.895902422524446,0.895902422524446,0.0,0,False
2022-05-29,0.895902422524446,0.895902422524446,0.0,0,False
2022-05-30,0.895902422524446,0.895902422524446,0.0,0,False
2022-05-31,0.895902422524446,0.895902422524446,0.0,0,False
2022-06-01,0.895902422524446,0.895902422524446,0.0,0,False
2022-06-02,0.895902422524446,0.895902422524446,0.0,0,False
2022-06-03,0.895902422524446,0.895902422524446,0.0,0,False
2022-06-04,0.895902422524446,0.895902422524446,0.0,0,False
2022-06-05,0.895902422524446,0.895902422524446,0.0,0,False
2022-06-06,0.895902422524446,0.895902422524446,0.0,0,False
2022-06-07,0.895902422524446,0.895902422524446,0.0,0,False
2022-06-08,0.895902422524446,0.895902422524446,0.0,0,False
2022-06-09,0.895902422524446,0.895902422524446,0.0,0,False
2022-06-10,0.895902422524446,0.895902422524446,0.0,0,False
2022-06-11,0.895902422524446,0.895902422524446,0.0,0,False
2022-06-12,0.895902422524446,0.895902422524446,0.0,0,False
2022-06-13,0.895902422524446,0.895902422524446,0.0,0,False
2022-06-14,0.895902422524446,0.895902422524446,0.0,0,False
2022-06-15,0.895902422524446,0.895902422524446,0.0,0,False
2022-06-16,0.895902422524446,0.895902422524446,0.0,0,False
2022-06-17,0.895902422524446,0.895902422524446,0.0,0,False
2022-06-18,0.895902422524446,0.895902422524446,0.0,0,False
2022-06-19,0.895902422524446,0.895902422524446,0.0,0,False
2022-06-20,0.895902422524446,0.895902422524446,0.0,0,False
2022-06-21,0.895902422524446,0.895902422524446,0.0,0,False
2022-06-22,0.895902422524446,0.895902422524446,0.0,0,False
2022-06-23,0.895902422524446,0.895902422524446,0.0,0,False
2022-06-24,0.895902422524446,0.895902422524446,0.0,0,False
2022-06-25,0.895902422524446,0.895902422524446,0.0,0,False
2022-06-26,0.895902422524446,0.895902422524446,0.0,0,False
2022-06-27,0.895902422524446,0.895902422524446,0.0,0,False
2022-06-28,0.895902422524446,0.895902422524446,0.0,0,False
2022-06-29,0.895902422524446,0.895902422524446,0.0,0,False
2022-06-30,0.895902422524446,0.895902422524446,0.0,0,False
2022-07-01,0.895902422524446,0.895902422524446,0.0,0,False
2022-07-02,0.895902422524446,0.895902422524446,0.0,0,False
2022-07-03,0.895902422524446,0.895902422524446,0.0,0,False
2022-07-04,0.895902422524446,0.895902422524446,0.0,0,False
2022-07-05,0.895902422524446,0.895902422524446,0.0,0,False
2022-07-06,0.895902422524446,0.895902422524446,0.0,0,False
2022-07-07,0.895902422524446,0.895902422524446,0.0,0,False
2022-07-08,0.895902422524446,0.895902422524446,0.0,0,False
2022-07-09,0.895902422524446,0.895902422524446,0.0,0,False
2022-07-10,0.895902422524446,0.895902422524446,0.0,0,False
2022-07-11,0.895902422524446,0.895902422524446,0.0,0,False
2022-07-12,0.895902422524446,0.895902422524446,0.0,0,False
2022-07-13,0.895902422524446,0.895902422524446,0.0,0,False
2022-07-14,0.895902422524446,0.895902422524446,0.0,0,False
2022-07-15,0.895902422524446,0.895902422524446,0.0,0,False
2022-07-16,0.895902422524446,0.895902422524446,0.0,0,False
2022-07-17,0.895902422524446,0.895902422524446,0.0,0,False
2022-07-18,0.895902422524446,0.895902422524446,0.0,0,False
2022-07-19,0.895902422524446,0.895902422524446,0.0,0,False
2022-07-20,0.895902422524446,0.895902422524446,0.0,0,False
2022-07-21,0.895902422524446,0.895902422524446,0.0,0,False
2022-07-22,0.895902422524446,0.895902422524446,0.0,0,False
2022-07-23,0.895902422524446,0.895902422524446,0.0,0,False
2022-07-24,0.895902422524446,0.895902422524446,0.0,0,False
2022-07-25,0.895902422524446,0.895902422524446,0.0,0,False
2022-07-26,0.895902422524446,0.895902422524446,0.0,0,False
2022-07-27,0.895902422524446,0.895902422524446,0.0,0,False
2022-07-28,0.895902422524446,0.895902422524446,0.0,0,False
2022-07-29,0.895902422524446,0.895902422524446,0.0,0,False
2022-07-30,0.895902422524446,0.895902422524446,0.0,0,False
2022-07-31,0.895902422524446,0.895902422524446,0.0,0,False
2022-08-01,0.895902422524446,0.895902422524446,0.0,0,False
2022-08-02,0.895902422524446,0.895902422524446,0.0,0,False
2022-08-03,0.895902422524446,0.895902422524446,0.0,0,False
2022-08-04,0.895902422524446,0.895902422524446,0.0,0,False
2022-08-05,0.895902422524446,0.895902422524446,0.0,0,False
2022-08-06,0.895902422524446,0.895902422524446,0.0,0,False
2022-08-07,0.895902422524446,0.895902422524446,0.0,0,False
2022-08-08,0.895902422524446,0.895902422524446,0.0,0,False
2022-08-09,0.895902422524446,0.895902422524446,0.0,0,False
2022-08-10,0.895902422524446,0.895902422524446,0.0,0,False
2022-08-11,0.895902422524446,0.895902422524446,0.0,0,False
2022-08-12,0.895902422524446,0.895902422524446,0.0,0,False
2022-08-13,0.895902422524446,0.895902422524446,0.0,0,False
2022-08-14,0.895902422524446,0.895902422524446,0.0,0,False
2022-08-15,0.895902422524446,0.895902422524446,0.0,0,False
2022-08-16,0.895902422524446,0.895902422524446,0.0,0,False
2022-08-17,0.895902422524446,0.895902422524446,0.0,0,False
2022-08-18,0.895902422524446,0.895902422524446,0.0,0,False
2022-08-19,0.895902422524446,0.895902422524446,0.0,0,False
2022-08-20,0.895902422524446,0.895902422524446,0.0,0,False
2022-08-21,0.895902422524446,0.895902422524446,0.0,0,False
2022-08-22,0.895902422524446,0.895902422524446,0.0,0,False
2022-08-23,0.895902422524446,0.895902422524446,0.0,0,False
2022-08-24,0.895902422524446,0.895902422524446,0.0,0,False
2022-08-25,0.895902422524446,0.895902422524446,0.0,0,False
2022-08-26,0.895902422524446,0.895902422524446,0.0,0,False
2022-08-27,0.895902422524446,0.895902422524446,0.0,0,False
2022-08-28,0.895902422524446,0.895902422524446,0.0,0,False
2022-08-29,0.895902422524446,0.895902422524446,0.0,0,False
2022-08-30,0.895902422524446,0.895902422524446,0.0,0,False
2022-08-31,0.895902422524446,0.895902422524446,0.0,0,False
2022-09-01,0.895902422524446,0.895902422524446,0.0,0,False
2022-09-02,0.895902422524446,0.895902422524446,0.0,0,False
2022-09-03,0.895902422524446,0.895902422524446,0.0,0,False
2022-09-04,0.895902422524446,0.895902422524446,0.0,0,False
2022-09-05,0.895902422524446,0.895902422524446,0.0,0,False
2022-09-06,0.895902422524446,0.895902422524446,0.0,0,False
2022-09-07,0.895902422524446,0.895902422524446,0.0,0,False
2022-09-08,0.895902422524446,0.895902422524446,0.0,0,False
2022-09-09,0.895902422524446,0.895902422524446,0.0,0,False
2022-09-10,0.895902422524446,0.895902422524446,0.0,0,False
2022-09-11,0.895902422524446,0.895902422524446,0.0,0,False
2022-09-12,0.895902422524446,0.895902422524446,0.0,0,False
2022-09-13,0.895902422524446,0.895902422524446,0.0,0,False
2022-09-14,0.895902422524446,0.895902422524446,0.0,0,False
2022-09-15,0.895902422524446,0.895902422524446,0.0,0,False
2022-09-16,0.895902422524446,0.895902422524446,0.0,0,False
2022-09-17,0.895902422524446,0.895902422524446,0.0,0,False
2022-09-18,0.895902422524446,0.895902422524446,0.0,0,False
2022-09-19,0.895902422524446,0.895902422524446,0.0,0,False
2022-09-20,0.895902422524446,0.895902422524446,0.0,0,False
2022-09-21,0.895902422524446,0.895902422524446,0.0,0,False
2022-09-22,0.895902422524446,0.895902422524446,0.0,0,False
2022-09-23,0.895902422524446,0.895902422524446,0.0,0,False
2022-09-24,0.895902422524446,0.895902422524446,0.0,0,False
2022-09-25,0.895902422524446,0.895902422524446,0.0,0,False
2022-09-26,0.895902422524446,0.895902422524446,0.0,0,False
2022-09-27,0.895902422524446,0.895902422524446,0.0,0,False
2022-09-28,0.895902422524446,0.895902422524446,0.0,0,False
2022-09-29,0.895902422524446,0.895902422524446,0.0,0,False
2022-09-30,0.895902422524446,0.895902422524446,0.0,0,False
2022-10-01,0.895902422524446,0.895902422524446,0.0,0,False
2022-10-02,0.895902422524446,0.895902422524446,0.0,0,False
2022-10-03,0.895902422524446,0.895902422524446,0.0,0,False
2022-10-04,0.895902422524446,0.895902422524446,0.0,0,False
2022-10-05,0.895902422524446,0.895902422524446,0.0,0,False
2022-10-06,0.895902422524446,0.895902422524446,0.0,0,False
2022-10-07,0.895902422524446,0.895902422524446,0.0,0,False
2022-10-08,0.895902422524446,0.895902422524446,0.0,0,False
2022-10-09,0.895902422524446,0.895902422524446,0.0,0,False
2022-10-10,0.895902422524446,0.895902422524446,0.0,0,False
2022-10-11,0.895902422524446,0.895902422524446,0.0,0,False
2022-10-12,0.895902422524446,0.895902422524446,0.0,0,False
2022-10-13,0.895902422524446,0.895902422524446,0.0,0,False
2022-10-14,0.895902422524446,0.895902422524446,0.0,0,False
2022-10-15,0.895902422524446,0.895902422524446,0.0,0,False
2022-10-16,0.895902422524446,0.895902422524446,0.0,0,False
2022-10-17,0.895902422524446,0.895902422524446,0.0,0,False
2022-10-18,0.895902422524446,0.895902422524446,0.0,0,False
2022-10-19,0.895902422524446,0.895902422524446,0.0,0,False
2022-10-20,0.895902422524446,0.895902422524446,0.0,0,False
2022-10-21,0.895902422524446,0.895902422524446,0.0,0,False
2022-10-22,0.895902422524446,0.895902422524446,0.0,0,False
2022-10-23,0.895902422524446,0.895902422524446,0.0,0,False
2022-10-24,0.895902422524446,0.895902422524446,0.0,0,False
2022-10-25,0.895902422524446,0.895902422524446,0.0,0,False
2022-10-26,0.895902422524446,0.895902422524446,0.0,0,False
2022-10-27,0.895902422524446,0.895902422524446,0.0,0,False
2022-10-28,0.895902422524446,0.895902422524446,0.0,0,False
2022-10-29,0.895902422524446,0.895902422524446,0.0,0,False
2022-10-30,0.895902422524446,0.895902422524446,0.0,0,False
2022-10-31,0.895902422524446,0.895902422524446,0.0,0,False
2022-11-01,0.895902422524446,0.895902422524446,0.0,0,False
2022-11-02,0.895902422524446,0.895902422524446,0.0,0,False
2022-11-03,0.895902422524446,0.895902422524446,0.0,0,False
2022-11-04,0.895902422524446,0.895902422524446,0.0,0,False
2022-11-05,0.895902422524446,0.895902422524446,0.0,0,False
2022-11-06,0.895902422524446,0.895902422524446,0.0,0,False
2022-11-07,0.895902422524446,0.895902422524446,0.0,0,False
2022-11-08,0.895902422524446,0.895902422524446,0.0,0,False
2022-11-09,0.895902422524446,0.895902422524446,0.0,0,False
2022-11-10,0.895902422524446,0.895902422524446,0.0,0,False
2022-11-11,0.895902422524446,0.895902422524446,0.0,0,False
2022-11-12,0.895902422524446,0.895902422524446,0.0,0,False
2022-11-13,0.895902422524446,0.895902422524446,0.0,0,False
2022-11-14,0.895902422524446,0.895902422524446,0.0,0,False
2022-11-15,0.895902422524446,0.895902422524446,0.0,0,False
2022-11-16,0.895902422524446,0.895902422524446,0.0,0,False
2022-11-17,0.895902422524446,0.895902422524446,0.0,0,False
2022-11-18,0.895902422524446,0.895902422524446,0.0,0,False
2022-11-19,0.895902422524446,0.895902422524446,0.0,0,False
2022-11-20,0.895902422524446,0.895902422524446,0.0,0,False
2022-11-21,0.895902422524446,0.895902422524446,0.0,0,False
2022-11-22,0.895902422524446,0.895902422524446,0.0,0,False
2022-11-23,0.895902422524446,0.895902422524446,0.0,0,False
2022-11-24,0.895902422524446,0.895902422524446,0.0,0,False
2022-11-25,0.895902422524446,0.895902422524446,0.0,0,False
2022-11-26,0.895902422524446,0.895902422524446,0.0,0,False
2022-11-27,0.895902422524446,0.895902422524446,0.0,0,False
2022-11-28,0.895902422524446,0.895902422524446,0.0,0,False
2022-11-29,0.895902422524446,0.895902422524446,0.0,0,False
2022-11-30,0.895902422524446,0.895902422524446,0.0,0,False
2022-12-01,0.895902422524446,0.895902422524446,0.0,0,False
2022-12-02,0.895902422524446,0.895902422524446,0.0,0,False
2022-12-03,0.895902422524446,0.895902422524446,0.0,0,False
2022-12-04,0.895902422524446,0.895902422524446,0.0,0,False
2022-12-05,0.895902422524446,0.895902422524446,0.0,0,False
2022-12-06,0.895902422524446,0.895902422524446,0.0,0,False
2022-12-07,0.895902422524446,0.895902422524446,0.0,0,False
2022-12-08,0.895902422524446,0.895902422524446,0.0,0,False
2022-12-09,0.895902422524446,0.895902422524446,0.0,0,False
2022-12-10,0.895902422524446,0.895902422524446,0.0,0,False
2022-12-11,0.895902422524446,0.895902422524446,0.0,0,False
2022-12-12,0.895902422524446,0.895902422524446,0.0,0,False
2022-12-13,0.895902422524446,0.895902422524446,0.0,0,False
2022-12-14,0.895902422524446,0.895902422524446,0.0,0,False
2022-12-15,0.895902422524446,0.895902422524446,0.0,0,False
2022-12-16,0.895902422524446,0.895902422524446,0.0,0,False
2022-12-17,0.895902422524446,0.895902422524446,0.0,0,False
2022-12-18,0.895902422524446,0.895902422524446,0.0,0,False
2022-12-19,0.895902422524446,0.895902422524446,0.0,0,False
2022-12-20,0.895902422524446,0.895902422524446,0.0,0,False
2022-12-21,0.895902422524446,0.895902422524446,0.0,0,False
2022-12-22,0.895902422524446,0.895902422524446,0.0,0,False
2022-12-23,0.895902422524446,0.895902422524446,0.0,0,False
2022-12-24,0.895902422524446,0.895902422524446,0.0,0,False
2022-12-25,0.895902422524446,0.895902422524446,0.0,0,False
2022-12-26,0.895902422524446,0.895902422524446,0.0,0,False
2022-12-27,0.895902422524446,0.895902422524446,0.0,0,False
2022-12-28,0.895902422524446,0.895902422524446,0.0,0,False
2022-12-29,0.895902422524446,0.895902422524446,0.0,0,False
2022-12-30,0.895902422524446,0.895902422524446,0.0,0,False
2022-12-31,0.895902422524446,0.895902422524446,0.0,0,False
2023-01-01,0.895902422524446,0.895902422524446,0.0,0,False
2023-01-02,0.895902422524446,0.895902422524446,0.0,0,False
2023-01-03,0.895902422524446,0.895902422524446,0.0,0,False
2023-01-04,0.895902422524446,0.895902422524446,0.0,0,False
2023-01-05,0.895902422524446,0.895902422524446,0.0,0,False
2023-01-06,0.895902422524446,0.895902422524446,0.0,0,False
2023-01-07,0.895902422524446,0.895902422524446,0.0,0,False
2023-01-08,0.895902422524446,0.895902422524446,0.0,0,False
2023-01-09,0.895902422524446,0.895902422524446,0.0,0,False
2023-01-10,0.895902422524446,0.895902422524446,0.0,0,False
2023-01-11,0.895902422524446,0.895902422524446,0.0,0,False
2023-01-12,0.895902422524446,0.895902422524446,0.0,0,False
2023-01-13,0.895902422524446,0.895902422524446,0.0,0,False
2023-01-14,0.895902422524446,0.895902422524446,0.0,0,False
2023-01-15,0.895902422524446,0.895902422524446,0.0,0,False
2023-01-16,0.895902422524446,0.895902422524446,0.0,0,False
2023-01-17,0.895902422524446,0.895902422524446,0.0,0,False
2023-01-18,0.895902422524446,0.895902422524446,0.0,0,False
2023-01-19,0.895902422524446,0.895902422524446,0.0,0,False
2023-01-20,0.895902422524446,0.895902422524446,0.0,0,False
2023-01-21,0.895902422524446,0.895902422524446,0.0,0,False
2023-01-22,0.895902422524446,0.895902422524446,0.0,0,False
2023-01-23,0.895902422524446,0.895902422524446,0.0,0,False
2023-01-24,0.895902422524446,0.895902422524446,0.0,0,False
2023-01-25,0.895902422524446,0.895902422524446,0.0,0,False
2023-01-26,0.895902422524446,0.895902422524446,0.0,0,False
2023-01-27,0.895902422524446,0.895902422524446,0.0,0,False
2023-01-28,0.895902422524446,0.895902422524446,0.0,0,False
2023-01-29,0.895902422524446,0.895902422524446,0.0,0,False
2023-01-30,0.895902422524446,0.895902422524446,0.0,0,False
2023-01-31,0.895902422524446,0.895902422524446,0.0,0,False
2023-02-01,0.895902422524446,0.895902422524446,0.0,0,False
2023-02-02,0.895902422524446,0.895902422524446,0.0,0,False
2023-02-03,0.895902422524446,0.895902422524446,0.0,0,False
2023-02-04,0.895902422524446,0.895902422524446,0.0,0,False
2023-02-05,0.895902422524446,0.895902422524446,0.0,0,False
2023-02-06,0.895902422524446,0.895902422524446,0.0,0,False
2023-02-07,0.895902422524446,0.895902422524446,0.0,0,False
2023-02-08,0.895902422524446,0.895902422524446,0.0,0,False
2023-02-09,0.895902422524446,0.895902422524446,0.0,0,False
2023-02-10,0.895902422524446,0.895902422524446,0.0,0,False
2023-02-11,0.895902422524446,0.895902422524446,0.0,0,False
2023-02-12,0.895902422524446,0.895902422524446,0.0,0,False
2023-02-13,0.895902422524446,0.895902422524446,0.0,0,False
2023-02-14,0.895902422524446,0.895902422524446,0.0,0,False
2023-02-15,0.895902422524446,0.895902422524446,0.0,0,False
2023-02-16,0.895902422524446,0.895902422524446,0.0,0,False
2023-02-17,0.895902422524446,0.895902422524446,0.0,0,False
2023-02-18,0.895902422524446,0.895902422524446,0.0,0,False
2023-02-19,0.895902422524446,0.895902422524446,0.0,0,False
2023-02-20,0.895902422524446,0.895902422524446,0.0,0,False
2023-02-21,0.895902422524446,0.895902422524446,0.0,0,False
2023-02-22,0.895902422524446,0.895902422524446,0.0,0,False
2023-02-23,0.895902422524446,0.895902422524446,0.0,0,False
2023-02-24,0.895902422524446,0.895902422524446,0.0,0,False
2023-02-25,0.895902422524446,0.895902422524446,0.0,0,False
2023-02-26,0.895902422524446,0.895902422524446,0.0,0,False
2023-02-27,0.895902422524446,0.895902422524446,0.0,0,False
2023-02-28,0.895902422524446,0.895902422524446,0.0,0,False
2023-03-01,0.895902422524446,0.895902422524446,0.0,0,False
2023-03-02,0.895902422524446,0.895902422524446,0.0,0,False
2023-03-03,0.895902422524446,0.895902422524446,0.0,0,False
2023-03-04,0.895902422524446,0.895902422524446,0.0,0,False
2023-03-05,0.895902422524446,0.895902422524446,0.0,0,False
2023-03-06,0.895902422524446,0.895902422524446,0.0,0,False
2023-03-07,0.895902422524446,0.895902422524446,0.0,0,False
2023-03-08,0.895902422524446,0.895902422524446,0.0,0,False
2023-03-09,0.895902422524446,0.895902422524446,0.0,0,False
2023-03-10,0.895902422524446,0.895902422524446,0.0,0,False
2023-03-11,0.895902422524446,0.895902422524446,0.0,0,False
2023-03-12,0.895902422524446,0.895902422524446,0.0,0,False
2023-03-13,0.895902422524446,0.895902422524446,0.0,0,False
2023-03-14,0.895902422524446,0.895902422524446,0.0,0,False
2023-03-15,0.895902422524446,0.895902422524446,0.0,0,False
2023-03-16,0.895902422524446,0.895902422524446,0.0,0,False
2023-03-17,0.895902422524446,0.895902422524446,0.0,0,False
2023-03-18,0.895902422524446,0.895902422524446,0.0,0,False
2023-03-19,0.895902422524446,0.895902422524446,0.0,0,False
2023-03-20,0.895902422524446,0.895902422524446,0.0,0,False
2023-03-21,0.895902422524446,0.895902422524446,0.0,0,False
2023-03-22,0.895902422524446,0.895902422524446,0.0,0,False
2023-03-23,0.895902422524446,0.895902422524446,0.0,0,False
2023-03-24,0.895902422524446,0.895902422524446,0.0,0,False
2023-03-25,0.895902422524446,0.895902422524446,0.0,0,False
2023-03-26,0.895902422524446,0.895902422524446,0.0,0,False
2023-03-27,0.895902422524446,0.895902422524446,0.0,0,False
2023-03-28,0.895902422524446,0.895902422524446,0.0,0,False
2023-03-29,0.895902422524446,0.895902422524446,0.0,0,False
2023-03-30,0.895902422524446,0.895902422524446,0.0,0,False
2023-03-31,0.895902422524446,0.895902422524446,0.0,0,False
2023-04-01,0.895902422524446,0.895902422524446,0.0,0,False
2023-04-02,0.895902422524446,0.895902422524446,0.0,0,False
2023-04-03,0.895902422524446,0.895902422524446,0.0,0,False
2023-04-04,0.895902422524446,0.895902422524446,0.0,0,False
2023-04-05,0.895902422524446,0.895902422524446,0.0,0,False
2023-04-06,0.895902422524446,0.895902422524446,0.0,0,False
2023-04-07,0.895902422524446,0.895902422524446,0.0,0,False
2023-04-08,0.895902422524446,0.895902422524446,0.0,0,False
2023-04-09,0.895902422524446,0.895902422524446,0.0,0,False
2023-04-10,0.895902422524446,0.895902422524446,0.0,0,False
2023-04-11,0.895902422524446,0.895902422524446,0.0,0,False
2023-04-12,0.895902422524446,0.895902422524446,0.0,0,False
2023-04-13,0.895902422524446,0.895902422524446,0.0,0,False
2023-04-14,0.895902422524446,0.895902422524446,0.0,0,False
2023-04-15,0.895902422524446,0.895902422524446,0.0,0,False
2023-04-16,0.895902422524446,0.895902422524446,0.0,0,False
2023-04-17,0.895902422524446,0.895902422524446,0.0,0,False
2023-04-18,0.895902422524446,0.895902422524446,0.0,0,False
2023-04-19,0.895902422524446,0.895902422524446,0.0,0,False
2023-04-20,0.895902422524446,0.895902422524446,0.0,0,False
2023-04-21,0.895902422524446,0.895902422524446,0.0,0,False
2023-04-22,0.895902422524446,0.895902422524446,0.0,0,False
2023-04-23,0.895902422524446,0.895902422524446,0.0,0,False
2023-04-24,0.895902422524446,0.895902422524446,0.0,0,False
2023-04-25,0.895902422524446,0.895902422524446,0.0,0,False
2023-04-26,0.895902422524446,0.895902422524446,0.0,0,False
2023-04-27,0.895902422524446,0.895902422524446,0.0,0,False
2023-04-28,0.895902422524446,0.895902422524446,0.0,0,False
2023-04-29,0.895902422524446,0.895902422524446,0.0,0,False
2023-04-30,0.895902422524446,0.895902422524446,0.0,0,False
2023-05-01,0.895902422524446,0.895902422524446,0.0,0,False
2023-05-02,0.895902422524446,0.895902422524446,0.0,0,False
2023-05-03,0.895902422524446,0.895902422524446,0.0,0,False
2023-05-04,0.895902422524446,0.895902422524446,0.0,0,False
2023-05-05,0.895902422524446,0.895902422524446,0.0,0,False
2023-05-06,0.895902422524446,0.895902422524446,0.0,0,False
2023-05-07,0.895902422524446,0.895902422524446,0.0,0,False
2023-05-08,0.895902422524446,0.895902422524446,0.0,0,False
2023-05-09,0.895902422524446,0.895902422524446,0.0,0,False
2023-05-10,0.895902422524446,0.895902422524446,0.0,0,False
2023-05-11,0.895902422524446,0.895902422524446,0.0,0,False
2023-05-12,0.895902422524446,0.895902422524446,0.0,0,False
2023-05-13,0.895902422524446,0.895902422524446,0.0,0,False
2023-05-14,0.895902422524446,0.895902422524446,0.0,0,False
2023-05-15,0.895902422524446,0.895902422524446,0.0,0,False
2023-05-16,0.895902422524446,0.895902422524446,0.0,0,False
2023-05-17,0.895902422524446,0.895902422524446,0.0,0,False
2023-05-18,0.895902422524446,0.895902422524446,0.0,0,False
2023-05-19,0.895902422524446,0.895902422524446,0.0,0,False
2023-05-20,0.895902422524446,0.895902422524446,0.0,0,False
2023-05-21,0.895902422524446,0.895902422524446,0.0,0,False
2023-05-22,0.895902422524446,0.895902422524446,0.0,0,False
2023-05-23,0.895902422524446,0.895902422524446,0.0,0,False
2023-05-24,0.895902422524446,0.895902422524446,0.0,0,False
2023-05-25,0.895902422524446,0.895902422524446,0.0,0,False
2023-05-26,0.895902422524446,0.895902422524446,0.0,0,False
2023-05-27,0.895902422524446,0.895902422524446,0.0,0,False
2023-05-28,0.895902422524446,0.895902422524446,0.0,0,False
2023-05-29,0.895902422524446,0.895902422524446,0.0,0,False
2023-05-30,0.895902422524446,0.895902422524446,0.0,0,False
2023-05-31,0.895902422524446,0.895902422524446,0.0,0,False
2023-06-01,0.895902422524446,0.895902422524446,0.0,0,False
2023-06-02,0.895902422524446,0.895902422524446,0.0,0,False
2023-06-03,0.895902422524446,0.895902422524446,0.0,0,False
2023-06-04,0.895902422524446,0.895902422524446,0.0,0,False
2023-06-05,0.895902422524446,0.895902422524446,0.0,0,False
2023-06-06,0.895902422524446,0.895902422524446,0.0,0,False
2023-06-07,0.895902422524446,0.895902422524446,0.0,0,False
2023-06-08,0.895902422524446,0.895902422524446,0.0,0,False
2023-06-09,0.895902422524446,0.895902422524446,0.0,0,False
2023-06-10,0.895902422524446,0.895902422524446,0.0,0,False
2023-06-11,0.895902422524446,0.895902422524446,0.0,0,False
2023-06-12,0.895902422524446,0.895902422524446,0.0,0,False
2023-06-13,0.895902422524446,0.895902422524446,0.0,0,False
2023-06-14,0.895902422524446,0.895902422524446,0.0,0,False
2023-06-15,0.895902422524446,0.895902422524446,0.0,0,False
2023-06-16,0.895902422524446,0.895902422524446,0.0,0,False
2023-06-17,0.895902422524446,0.895902422524446,0.0,0,False
2023-06-18,0.895902422524446,0.895902422524446,0.0,0,False
2023-06-19,0.895902422524446,0.895902422524446,0.0,0,False
2023-06-20,0.895902422524446,0.895902422524446,0.0,0,False
2023-06-21,0.895902422524446,0.895902422524446,0.0,0,False
2023-06-22,0.895902422524446,0.895902422524446,0.0,0,False
2023-06-23,0.895902422524446,0.895902422524446,0.0,0,False
2023-06-24,0.895902422524446,0.895902422524446,0.0,0,False
2023-06-25,0.895902422524446,0.895902422524446,0.0,0,False
2023-06-26,0.895902422524446,0.895902422524446,0.0,0,False
2023-06-27,0.895902422524446,0.895902422524446,0.0,0,False
2023-06-28,0.895902422524446,0.895902422524446,0.0,0,False
2023-06-29,0.895902422524446,0.895902422524446,0.0,0,False
2023-06-30,0.895902422524446,0.895902422524446,0.0,0,False
2023-07-01,0.895902422524446,0.895902422524446,0.0,0,False
2023-07-02,0.895902422524446,0.895902422524446,0.0,0,False
2023-07-03,0.895902422524446,0.895902422524446,0.0,0,False
2023-07-04,0.895902422524446,0.895902422524446,0.0,0,False
2023-07-05,0.895902422524446,0.895902422524446,0.0,0,False
2023-07-06,0.895902422524446,0.895902422524446,0.0,0,False
2023-07-07,0.895902422524446,0.895902422524446,0.0,0,False
2023-07-08,0.895902422524446,0.895902422524446,0.0,0,False
2023-07-09,0.895902422524446,0.895902422524446,0.0,0,False
2023-07-10,0.895902422524446,0.895902422524446,0.0,0,False
2023-07-11,0.895902422524446,0.895902422524446,0.0,0,False
2023-07-12,0.895902422524446,0.895902422524446,0.0,0,False
2023-07-13,0.895902422524446,0.895902422524446,0.0,0,False
2023-07-14,0.895902422524446,0.895902422524446,0.0,0,False
2023-07-15,0.895902422524446,0.895902422524446,0.0,0,False
2023-07-16,0.895902422524446,0.895902422524446,0.0,0,False
2023-07-17,0.895902422524446,0.895902422524446,0.0,0,False
2023-07-18,0.895902422524446,0.895902422524446,0.0,0,False
2023-07-19,0.895902422524446,0.895902422524446,0.0,0,False
2023-07-20,0.895902422524446,0.895902422524446,0.0,0,False
2023-07-21,0.895902422524446,0.895902422524446,0.0,0,False
2023-07-22,0.895902422524446,0.895902422524446,0.0,0,False
2023-07-23,0.895902422524446,0.895902422524446,0.0,0,False
2023-07-24,0.895902422524446,0.895902422524446,0.0,0,False
2023-07-25,0.895902422524446,0.895902422524446,0.0,0,False
2023-07-26,0.895902422524446,0.895902422524446,0.0,0,False
2023-07-27,0.895902422524446,0.895902422524446,0.0,0,False
2023-07-28,0.895902422524446,0.895902422524446,0.0,0,False
2023-07-29,0.895902422524446,0.895902422524446,0.0,0,False
2023-07-30,0.895902422524446,0.895902422524446,0.0,0,False
2023-07-31,0.895902422524446,0.895902422524446,0.0,0,False
2023-08-01,0.895902422524446,0.895902422524446,0.0,0,False
2023-08-02,0.895902422524446,0.895902422524446,0.0,0,False
2023-08-03,0.895902422524446,0.895902422524446,0.0,0,False
2023-08-04,0.895902422524446,0.895902422524446,0.0,0,False
2023-08-05,0.895902422524446,0.895902422524446,0.0,0,False
2023-08-06,0.895902422524446,0.895902422524446,0.0,0,False
2023-08-07,0.895902422524446,0.895902422524446,0.0,0,False
2023-08-08,0.895902422524446,0.895902422524446,0.0,0,False
2023-08-09,0.895902422524446,0.895902422524446,0.0,0,False
2023-08-10,0.895902422524446,0.895902422524446,0.0,0,False
2023-08-11,0.895902422524446,0.895902422524446,0.0,0,False
2023-08-12,0.895902422524446,0.895902422524446,0.0,0,False
2023-08-13,0.895902422524446,0.895902422524446,0.0,0,False
2023-08-14,0.895902422524446,0.895902422524446,0.0,0,False
2023-08-15,0.895902422524446,0.895902422524446,0.0,0,False
2023-08-16,0.895902422524446,0.895902422524446,0.0,0,False
2023-08-17,0.895902422524446,0.895902422524446,0.0,0,False
2023-08-18,0.895902422524446,0.895902422524446,0.0,0,False
2023-08-19,0.895902422524446,0.895902422524446,0.0,0,False
2023-08-20,0.895902422524446,0.895902422524446,0.0,0,False
2023-08-21,0.895902422524446,0.895902422524446,0.0,0,False
2023-08-22,0.895902422524446,0.895902422524446,0.0,0,False
2023-08-23,0.895902422524446,0.895902422524446,0.0,0,False
2023-08-24,0.895902422524446,0.895902422524446,0.0,0,False
2023-08-25,0.895902422524446,0.895902422524446,0.0,0,False
2023-08-26,0.895902422524446,0.895902422524446,0.0,0,False
2023-08-27,0.895902422524446,0.895902422524446,0.0,0,False
2023-08-28,0.895902422524446,0.895902422524446,0.0,0,False
2023-08-29,0.895902422524446,0.895902422524446,0.0,0,False
2023-08-30,0.895902422524446,0.895902422524446,0.0,0,False
2023-08-31,0.895902422524446,0.895902422524446,0.0,0,False
2023-09-01,0.895902422524446,0.895902422524446,0.0,0,False
2023-09-02,0.895902422524446,0.895902422524446,0.0,0,False
2023-09-03,0.895902422524446,0.895902422524446,0.0,0,False
2023-09-04,0.895902422524446,0.895902422524446,0.0,0,False
2023-09-05,0.895902422524446,0.895902422524446,0.0,0,False
2023-09-06,0.895902422524446,0.895902422524446,0.0,0,False
2023-09-07,0.895902422524446,0.895902422524446,0.0,0,False
2023-09-08,0.895902422524446,0.895902422524446,0.0,0,False
2023-09-09,0.895902422524446,0.895902422524446,0.0,0,False
2023-09-10,0.895902422524446,0.895902422524446,0.0,0,False
2023-09-11,0.895902422524446,0.895902422524446,0.0,0,False
2023-09-12,0.895902422524446,0.895902422524446,0.0,0,False
2023-09-13,0.895902422524446,0.895902422524446,0.0,0,False
2023-09-14,0.895902422524446,0.895902422524446,0.0,0,False
2023-09-15,0.895902422524446,0.895902422524446,0.0,0,False
2023-09-16,0.895902422524446,0.895902422524446,0.0,0,False
2023-09-17,0.895902422524446,0.895902422524446,0.0,0,False
2023-09-18,0.895902422524446,0.895902422524446,0.0,0,False
2023-09-19,0.895902422524446,0.895902422524446,0.0,0,False
2023-09-20,0.895902422524446,0.895902422524446,0.0,0,False
2023-09-21,0.895902422524446,0.895902422524446,0.0,0,False
2023-09-22,0.895902422524446,0.895902422524446,0.0,0,False
2023-09-23,0.895902422524446,0.895902422524446,0.0,0,False
2023-09-24,0.895902422524446,0.895902422524446,0.0,0,False
2023-09-25,0.895902422524446,0.895902422524446,0.0,0,False
2023-09-26,0.895902422524446,0.895902422524446,0.0,0,False
2023-09-27,0.895902422524446,0.895902422524446,0.0,0,False
2023-09-28,0.895902422524446,0.895902422524446,0.0,0,False
2023-09-29,0.895902422524446,0.895902422524446,0.0,0,False
2023-09-30,0.895902422524446,0.895902422524446,0.0,0,False
2023-10-01,0.895902422524446,0.895902422524446,0.0,0,False
2023-10-02,0.895902422524446,0.895902422524446,0.0,0,False
2023-10-03,0.895902422524446,0.895902422524446,0.0,0,False
2023-10-04,0.895902422524446,0.895902422524446,0.0,0,False
2023-10-05,0.895902422524446,0.895902422524446,0.0,0,False
2023-10-06,0.895902422524446,0.895902422524446,0.0,0,False
2023-10-07,0.895902422524446,0.895902422524446,0.0,0,False
2023-10-08,0.895902422524446,0.895902422524446,0.0,0,False
2023-10-09,0.895902422524446,0.895902422524446,0.0,0,False
2023-10-10,0.895902422524446,0.895902422524446,0.0,0,False
2023-10-11,0.895902422524446,0.895902422524446,0.0,0,False
2023-10-12,0.895902422524446,0.895902422524446,0.0,0,False
2023-10-13,0.895902422524446,0.895902422524446,0.0,0,False
2023-10-14,0.895902422524446,0.895902422524446,0.0,0,False
2023-10-15,0.895902422524446,0.895902422524446,0.0,0,False
2023-10-16,0.895902422524446,0.895902422524446,0.0,0,False
2023-10-17,0.895902422524446,0.895902422524446,0.0,0,False
2023-10-18,0.895902422524446,0.895902422524446,0.0,0,False
2023-10-19,0.895902422524446,0.895902422524446,0.0,0,False
2023-10-20,0.895902422524446,0.895902422524446,0.0,0,False
2023-10-21,0.895902422524446,0.895902422524446,0.0,0,False
2023-10-22,0.895902422524446,0.895902422524446,0.0,0,False
2023-10-23,0.895902422524446,0.895902422524446,0.0,0,False
2023-10-24,0.895902422524446,0.895902422524446,0.0,0,False
2023-10-25,0.895902422524446,0.895902422524446,0.0,0,False
2023-10-26,0.895902422524446,0.895902422524446,0.0,0,False
2023-10-27,0.895902422524446,0.895902422524446,0.0,0,False
2023-10-28,0.895902422524446,0.895902422524446,0.0,0,False
2023-10-29,0.895902422524446,0.895902422524446,0.0,0,False
2023-10-30,0.895902422524446,0.895902422524446,0.0,0,False
2023-10-31,0.895902422524446,0.895902422524446,0.0,0,False
2023-11-01,0.895902422524446,0.895902422524446,0.0,0,False
2023-11-02,0.895902422524446,0.895902422524446,0.0,0,False
2023-11-03,0.895902422524446,0.895902422524446,0.0,0,False
2023-11-04,0.895902422524446,0.895902422524446,0.0,0,False
2023-11-05,0.895902422524446,0.895902422524446,0.0,0,False
2023-11-06,0.895902422524446,0.895902422524446,0.0,0,False
2023-11-07,0.895902422524446,0.895902422524446,0.0,0,False
2023-11-08,0.895902422524446,0.895902422524446,0.0,0,False
2023-11-09,0.895902422524446,0.895902422524446,0.0,0,False
2023-11-10,0.895902422524446,0.895902422524446,0.0,0,False
2023-11-11,0.895902422524446,0.895902422524446,0.0,0,False
2023-11-12,0.895902422524446,0.895902422524446,0.0,0,False
2023-11-13,0.895902422524446,0.895902422524446,0.0,0,False
2023-11-14,0.895902422524446,0.895902422524446,0.0,0,False
2023-11-15,0.895902422524446,0.895902422524446,0.0,0,False
2023-11-16,0.895902422524446,0.895902422524446,0.0,0,False
2023-11-17,0.895902422524446,0.895902422524446,0.0,0,False
2023-11-18,0.895902422524446,0.895902422524446,0.0,0,False
2023-11-19,0.895902422524446,0.895902422524446,0.0,0,False
2023-11-20,0.895902422524446,0.895902422524446,0.0,0,False
2023-11-21,0.895902422524446,0.895902422524446,0.0,0,False
2023-11-22,0.895902422524446,0.895902422524446,0.0,0,False
2023-11-23,0.895902422524446,0.895902422524446,0.0,0,False
2023-11-24,0.895902422524446,0.895902422524446,0.0,0,False
2023-11-25,0.895902422524446,0.895902422524446,0.0,0,False
2023-11-26,0.895902422524446,0.895902422524446,0.0,0,False
2023-11-27,0.895902422524446,0.895902422524446,0.0,0,False
2023-11-28,0.895902422524446,0.895902422524446,0.0,0,False
2023-11-29,0.895902422524446,0.895902422524446,0.0,0,False
2023-11-30,0.895902422524446,0.895902422524446,0.0,0,False
2023-12-01,0.895902422524446,0.895902422524446,0.0,0,False
2023-12-02,0.895902422524446,0.895902422524446,0.0,0,False
2023-12-03,0.895902422524446,0.895902422524446,0.0,0,False
2023-12-04,0.895902422524446,0.895902422524446,0.0,0,False
2023-12-05,0.895902422524446,0.895902422524446,0.0,0,False
2023-12-06,0.895902422524446,0.895902422524446,0.0,0,False
2023-12-07,0.895902422524446,0.895902422524446,0.0,0,False
2023-12-08,0.895902422524446,0.895902422524446,0.0,0,False
2023-12-09,0.895902422524446,0.895902422524446,0.0,0,False
2023-12-10,0.895902422524446,0.895902422524446,0.0,0,False
2023-12-11,0.895902422524446,0.895902422524446,0.0,0,False
2023-12-12,0.895902422524446,0.895902422524446,0.0,0,False
2023-12-13,0.895902422524446,0.895902422524446,0.0,0,False
2023-12-14,0.895902422524446,0.895902422524446,0.0,0,False
2023-12-15,0.895902422524446,0.895902422524446,0.0,0,False
2023-12-16,0.895902422524446,0.895902422524446,0.0,0,False
2023-12-17,0.895902422524446,0.895902422524446,0.0,0,False
2023-12-18,0.895902422524446,0.895902422524446,0.0,0,False
2023-12-19,0.895902422524446,0.895902422524446,0.0,0,False
2023-12-20,0.895902422524446,0.895902422524446,0.0,0,False
2023-12-21,0.895902422524446,0.895902422524446,0.0,0,False
2023-12-22,0.895902422524446,0.895902422524446,0.0,0,False
2023-12-23,0.895902422524446,0.895902422524446,0.0,0,False
2023-12-24,0.895902422524446,0.895902422524446,0.0,0,False
2023-12-25,0.895902422524446,0.895902422524446,0.0,0,False
2023-12-26,0.895902422524446,0.895902422524446,0.0,0,False
2023-12-27,0.895902422524446,0.895902422524446,0.0,0,False
2023-12-28,0.895902422524446,0.895902422524446,0.0,0,False
2023-12-29,0.895902422524446,0.895902422524446,0.0,0,False
2023-12-30,0.895902422524446,0.895902422524446,0.0,0,False
2023-12-31,0.895902422524446,0.895902422524446,0.0,0,False
