day,start_equity,end_equity,return_pct,entries,active
2021-09-02,1.0,1.0,0.0,0,False
2021-09-03,1.0,1.0,0.0,0,False
2021-09-04,1.0,1.0,0.0,0,False
2021-09-05,1.0,1.0,0.0,0,False
2021-09-06,1.0,1.0,0.0,0,False
2021-09-07,1.0,1.0,0.0,0,False
2021-09-08,1.0,1.0,0.0,0,False
2021-09-09,1.0,1.0,0.0,0,False
2021-09-10,1.0,1.0,0.0,0,False
2021-09-11,1.0,1.0,0.0,0,False
2021-09-12,1.0,1.0,0.0,0,False
2021-09-13,1.0,1.0,0.0,0,False
2021-09-14,1.0,1.0,0.0,0,False
2021-09-15,1.0,1.0,0.0,0,False
2021-09-16,1.0,1.0,0.0,0,False
2021-09-17,1.0,1.0,0.0,0,False
2021-09-18,1.0,1.0,0.0,0,False
2021-09-19,1.0,1.0,0.0,0,False
2021-09-20,1.0,1.0,0.0,0,False
2021-09-21,1.0,1.0,0.0,0,False
2021-09-22,1.0,1.0,0.0,0,False
2021-09-23,1.0,1.0,0.0,0,False
2021-09-24,1.0,1.0,0.0,0,False
2021-09-25,1.0,1.0,0.0,0,False
2021-09-26,1.0,1.0,0.0,0,False
2021-09-27,1.0,1.0,0.0,0,False
2021-09-28,1.0,1.0,0.0,0,False
2021-09-29,1.0,1.0,0.0,0,False
2021-09-30,1.0,1.0,0.0,0,False
2021-10-01,1.0,1.0,0.0,0,False
2021-10-02,1.0,1.0,0.0,0,False
2021-10-03,1.0,1.0,0.0,0,False
2021-10-04,1.0,1.0,0.0,0,False
2021-10-05,1.0,1.0,0.0,0,False
2021-10-06,1.0,1.001489821323389,0.1489821323388929,1,True
2021-10-07,1.001489821323389,1.0006266840307554,-0.08618532852315841,0,True
2021-10-08,1.0006266840307554,1.0006266840307554,0.0,0,False
2021-10-09,1.0006266840307554,0.9986866545947173,-0.19388144120074946,3,True
2021-10-10,0.9986866545947173,1.0011029499451742,0.24194729541444637,1,True
2021-10-11,1.0011029499451742,0.9973633736513651,-0.3735456272518145,0,True
2021-10-12,0.9973633736513651,0.9973633736513651,0.0,0,False
2021-10-13,0.9973633736513651,1.0110936133521444,1.376653691473817,4,True
2021-10-14,1.0110936133521444,1.026493397529733,1.523081935660997,0,True
2021-10-15,1.026493397529733,1.0296614828987463,0.3086318311094072,1,True
2021-10-16,1.0296614828987463,1.0362316106110756,0.6380861886600586,0,True
2021-10-17,1.0362316106110756,1.0362316106110756,0.0,0,False
2021-10-18,1.0362316106110756,1.0352761769146124,-0.09220271671694924,1,True
2021-10-19,1.0352761769146124,1.0373913247201767,0.2043075898711333,0,True
2021-10-20,1.0373913247201767,1.0373913247201767,0.0,0,False
2021-10-21,1.0373913247201767,1.0373913247201767,0.0,0,False
2021-10-22,1.0373913247201767,1.0373913247201767,0.0,0,False
2021-10-23,1.0373913247201767,1.0373913247201767,0.0,0,False
2021-10-24,1.0373913247201767,1.0373913247201767,0.0,0,False
2021-10-25,1.0373913247201767,1.0410490874159612,0.352592373641758,1,True
2021-10-26,1.0410490874159612,1.0410490874159612,0.0,0,False
2021-10-27,1.0410490874159612,1.0352034547144413,-0.5615136473564042,6,True
2021-10-28,1.0352034547144413,1.0385456593474216,0.32285485696164073,0,True
2021-10-29,1.0385456593474216,1.0385456593474216,0.0,0,False
2021-10-30,1.0385456593474216,1.0385456593474216,0.0,0,False
2021-10-31,1.0385456593474216,1.0385456593474216,0.0,0,False
2021-11-01,1.0385456593474216,1.0399112157246555,0.13148737033785718,1,True
2021-11-02,1.0399112157246555,1.039448059960733,-0.044538010256944816,0,True
2021-11-03,1.039448059960733,1.0396045099617253,0.015051257202625123,1,True
2021-11-04,1.0396045099617253,1.0568520878951093,1.6590518575202218,1,True
2021-11-05,1.0568520878951093,1.0568520878951093,0.0,0,False
2021-11-06,1.0568520878951093,1.0537649219178937,-0.292109559376863,1,True
2021-11-07,1.0537649219178937,1.053943958135674,0.016990147807760536,0,True
2021-11-08,1.053943958135674,1.053943958135674,0.0,0,False
2021-11-09,1.053943958135674,1.053943958135674,0.0,0,False
2021-11-10,1.053943958135674,1.053943958135674,0.0,0,False
2021-11-11,1.053943958135674,1.0277636565581647,-2.4840316579848976,5,True
2021-11-12,1.0277636565581647,1.0277636565581647,0.0,0,False
2021-11-13,1.0277636565581647,1.0266942305872822,-0.1040536862788044,1,True
2021-11-14,1.0266942305872822,1.027029244258994,0.03263032573195268,0,True
2021-11-15,1.027029244258994,1.027029244258994,0.0,0,False
2021-11-16,1.027029244258994,1.0431275933553503,1.5674674490862683,5,True
2021-11-17,1.0431275933553503,1.0284543996230162,-1.4066537809757196,0,True
2021-11-18,1.0284543996230162,1.0257535347004163,-0.26261396942731663,2,True
2021-11-19,1.0257535347004163,1.0295173092794176,0.36692777082172334,1,True
2021-11-20,1.0295173092794176,1.0300458479564525,0.05133849351253161,0,True
2021-11-21,1.0300458479564525,1.0300458479564525,0.0,0,False
2021-11-22,1.0300458479564525,1.0249039815917904,-0.4991881065161574,1,True
2021-11-23,1.0249039815917904,1.0249039815917904,0.0,0,False
2021-11-24,1.0249039815917904,1.0249039815917904,0.0,0,False
2021-11-25,1.0249039815917904,1.0274845097354948,0.2517824293839288,2,True
2021-11-26,1.0274845097354948,1.0044340426264957,-2.243388283774028,2,True
2021-11-27,1.0044340426264957,1.0044340426264957,0.0,0,False
2021-11-28,1.0044340426264957,0.9994205516654032,-0.4991359062246348,1,True
2021-11-29,0.9994205516654032,0.9994205516654032,0.0,0,False
2021-11-30,0.9994205516654032,0.9994205516654032,0.0,0,False
2021-12-01,0.9994205516654032,0.9974246790038852,-0.19970298371312367,1,True
2021-12-02,0.9974246790038852,0.9954718533155771,-0.19578678264291494,2,True
2021-12-03,0.9954718533155771,0.9904007899518597,-0.5094130333095248,1,True
2021-12-04,0.9904007899518597,0.9561973383069688,-3.453495997974043,8,True
2021-12-05,0.9561973383069688,0.9534102952454483,-0.29147153520163727,1,True
2021-12-06,0.9534102952454483,0.9500721658519858,-0.3501251675285366,7,True
2021-12-07,0.9500721658519858,0.9621356614115939,1.2697451828609374,0,True
2021-12-08,0.9621356614115939,0.9638695727546299,0.18021485041850305,1,True
2021-12-09,0.9638695727546299,0.9627067182291116,-0.12064438575387637,0,True
2021-12-10,0.9627067182291116,0.9603019768010311,-0.24978961739292593,1,True
2021-12-11,0.9603019768010311,0.9601693528122497,-0.013810654563395364,1,True
2021-12-12,0.9601693528122497,0.960937845819511,0.08003723562000076,0,True
2021-12-13,0.960937845819511,0.9592696073837107,-0.17360523815955764,1,True
2021-12-14,0.9592696073837107,0.9585382642054735,-0.07623958609841441,0,True
2021-12-15,0.9585382642054735,0.9585382642054735,0.0,0,False
2021-12-16,0.9585382642054735,0.9585382642054735,0.0,0,False
2021-12-17,0.9585382642054735,0.9587961960103761,0.026908868903263716,2,True
2021-12-18,0.9587961960103761,0.9616314445413765,0.29570919688648445,0,True
2021-12-19,0.9616314445413765,0.9601682732421849,-0.15215510136415977,1,True
2021-12-20,0.9601682732421849,0.9592291190944718,-0.09781141221650858,0,True
2021-12-21,0.9592291190944718,0.9579665918914977,-0.1316189404431345,1,True
2021-12-22,0.9579665918914977,0.9581882303100965,0.023136341128671134,0,True
2021-12-23,0.9581882303100965,0.9581882303100965,0.0,0,False
2021-12-24,0.9581882303100965,0.9581882303100965,0.0,0,False
2021-12-25,0.9581882303100965,0.9590447563686206,0.08939016692439683,1,True
2021-12-26,0.9590447563686206,0.9588805651509885,-0.017120287300653736,0,True
2021-12-27,0.9588805651509885,0.9588805651509885,0.0,0,False
2021-12-28,0.9588805651509885,0.9588805651509885,0.0,0,False
2021-12-29,0.9588805651509885,0.9588805651509885,0.0,0,False
2021-12-30,0.9588805651509885,0.9588805651509885,0.0,0,False
2021-12-31,0.9588805651509885,0.9588805651509885,0.0,0,False
2022-01-01,0.9588805651509885,0.9588805651509885,0.0,0,False
2022-01-02,0.9588805651509885,0.9588805651509885,0.0,0,False
2022-01-03,0.9588805651509885,0.9588805651509885,0.0,0,False
2022-01-04,0.9588805651509885,0.9588805651509885,0.0,0,False
2022-01-05,0.9588805651509885,0.9595838816643347,0.07334766590409991,1,True
2022-01-06,0.9595838816643347,0.9517625122231937,-0.8150792849474842,9,True
2022-01-07,0.9517625122231937,0.957517050579512,0.6046191442102833,4,True
2022-01-08,0.957517050579512,0.9564743346555978,-0.1088978962080156,0,True
2022-01-09,0.9564743346555978,0.9568035139749689,0.03441590719626131,1,True
2022-01-10,0.9568035139749689,0.9575329979567376,0.07624177494272022,0,True
2022-01-11,0.9575329979567376,0.9575329979567376,0.0,0,False
2022-01-12,0.9575329979567376,0.9575329979567376,0.0,0,False
2022-01-13,0.9575329979567376,0.9575329979567376,0.0,0,False
2022-01-14,0.9575329979567376,0.9575329979567376,0.0,0,False
2022-01-15,0.9575329979567376,0.9577639186576004,0.024116213368685635,1,True
2022-01-16,0.9577639186576004,0.9572658758597569,-0.05200058053361767,0,True
2022-01-17,0.9572658758597569,0.9583368750167117,0.11188105457045072,1,True
2022-01-18,0.9583368750167117,0.9617978194615927,0.36114069437436225,0,True
2022-01-19,0.9617978194615927,0.9617978194615927,0.0,0,False
2022-01-20,0.9617978194615927,0.9617978194615927,0.0,0,False
2022-01-21,0.9617978194615927,0.9462127696112259,-1.6204081081293342,7,True
2022-01-22,0.9462127696112259,0.9350678959947237,-1.1778401195199795,8,True
2022-01-23,0.9350678959947237,0.9390228442132983,0.42295840072310575,0,True
2022-01-24,0.9390228442132983,0.9362227881311755,-0.29818828150752763,2,True
2022-01-25,0.9362227881311755,0.9449453653403527,0.9316775151979151,0,True
2022-01-26,0.9449453653403527,0.9449453653403527,0.0,0,False
2022-01-27,0.9449453653403527,0.9517637296435815,0.7215617487867032,4,True
2022-01-28,0.9517637296435815,0.9454118437060668,-0.6673805420063017,0,True
2022-01-29,0.9454118437060668,0.9454118437060668,0.0,0,False
2022-01-30,0.9454118437060668,0.9488058857274225,0.3590014282083498,1,True
2022-01-31,0.9488058857274225,0.949877900479048,0.11298567681243821,0,True
2022-02-01,0.949877900479048,0.949877900479048,0.0,0,False
2022-02-02,0.949877900479048,0.949877900479048,0.0,0,False
2022-02-03,0.949877900479048,0.9486640105342081,-0.12779431379840167,3,True
2022-02-04,0.9486640105342081,0.9544983013327595,0.6150007519802436,0,True
2022-02-05,0.9544983013327595,0.9544983013327595,0.0,0,False
2022-02-06,0.9544983013327595,0.9544983013327595,0.0,0,False
2022-02-07,0.9544983013327595,0.9544983013327595,0.0,0,False
2022-02-08,0.9544983013327595,0.9544983013327595,0.0,0,False
2022-02-09,0.9544983013327595,0.9557757956484408,0.13383934931026076,2,True
2022-02-10,0.9557757956484408,0.9567143093265253,0.09819391559793278,5,True
2022-02-11,0.9567143093265253,0.9521372058196967,-0.47841904967959037,0,True
2022-02-12,0.9521372058196967,0.9426415681262668,-0.9972971999613445,4,True
2022-02-13,0.9426415681262668,0.9426415681262668,0.0,0,False
2022-02-14,0.9426415681262668,0.9426415681262668,0.0,0,False
2022-02-15,0.9426415681262668,0.9426415681262668,0.0,0,False
2022-02-16,0.9426415681262668,0.9426415681262668,0.0,0,False
2022-02-17,0.9426415681262668,0.9426415681262668,0.0,0,False
2022-02-18,0.9426415681262668,0.9426415681262668,0.0,0,False
2022-02-19,0.9426415681262668,0.9426415681262668,0.0,0,False
2022-02-20,0.9426415681262668,0.9426415681262668,0.0,0,False
2022-02-21,0.9426415681262668,0.9426415681262668,0.0,0,False
2022-02-22,0.9426415681262668,0.9419406342675806,-0.07435847117154282,2,True
2022-02-23,0.9419406342675806,0.9415395508282516,-0.04258054326755634,0,True
2022-02-24,0.9415395508282516,0.9321546950331585,-0.9967564067635215,4,True
2022-02-25,0.9321546950331585,0.9321546950331585,0.0,0,False
2022-02-26,0.9321546950331585,0.9321546950331585,0.0,0,False
2022-02-27,0.9321546950331585,0.9321546950331585,0.0,0,False
2022-02-28,0.9321546950331585,0.9333433673880789,0.12751878644756687,1,True
2022-03-01,0.9333433673880789,0.9347627444476968,0.15207447861229628,0,True
2022-03-02,0.9347627444476968,0.9347627444476968,0.0,0,False
2022-03-03,0.9347627444476968,0.9347627444476968,0.0,0,False
2022-03-04,0.9347627444476968,0.9339093800267035,-0.09129208733040794,1,True
2022-03-05,0.9339093800267035,0.9335892445352924,-0.03427907442176137,0,True
2022-03-06,0.9335892445352924,0.9305893424740366,-0.3213299723422769,3,True
2022-03-07,0.9305893424740366,0.9279693904781652,-0.28153685802010386,0,True
2022-03-08,0.9279693904781652,0.9285296124779461,0.060370741268989114,1,True
2022-03-09,0.9285296124779461,0.9328721649532361,0.4676805582647159,1,True
2022-03-10,0.9328721649532361,0.9329075943716322,0.0037978856832765473,3,True
2022-03-11,0.9329075943716322,0.9307949659723993,-0.2264563405827813,0,True
2022-03-12,0.9307949659723993,0.9307949659723993,0.0,0,False
2022-03-13,0.9307949659723993,0.9307949659723993,0.0,0,False
2022-03-14,0.9307949659723993,0.9284723419618052,-0.24953121745429074,1,True
2022-03-15,0.9284723419618052,0.9289792359996929,0.05459441439221724,1,True
2022-03-16,0.9289792359996929,0.930667617585648,0.18174589059982704,1,True
2022-03-17,0.930667617585648,0.9313492028685257,0.07323616616703443,1,True
2022-03-18,0.9313492028685257,0.9308934426357999,-0.048935483202450225,0,True
2022-03-19,0.9308934426357999,0.9308934426357999,0.0,0,False
2022-03-20,0.9308934426357999,0.9285684885574762,-0.24975512468329297,1,True
2022-03-21,0.9285684885574762,0.9316116766415191,0.32772898515762705,3,True
2022-03-22,0.9316116766415191,0.9312649891420706,-0.03721373487914903,0,True
2022-03-23,0.9312649891420706,0.9312649891420706,0.0,0,False
2022-03-24,0.9312649891420706,0.9312649891420706,0.0,0,False
2022-03-25,0.9312649891420706,0.9312649891420706,0.0,0,False
2022-03-26,0.9312649891420706,0.9312649891420706,0.0,0,False
2022-03-27,0.9312649891420706,0.9312649891420706,0.0,0,False
2022-03-28,0.9312649891420706,0.9312649891420706,0.0,0,False
2022-03-29,0.9312649891420706,0.9312649891420706,0.0,0,False
2022-03-30,0.9312649891420706,0.9350932525207774,0.411082068298696,4,True
2022-03-31,0.9350932525207774,0.9390029708228212,0.4181099897260898,5,True
2022-04-01,0.9390029708228212,0.9282242956473995,-1.1478850983801192,0,True
2022-04-02,0.9282242956473995,0.9282242956473995,0.0,0,False
2022-04-03,0.9282242956473995,0.9259076185308789,-0.24958160731020085,1,True
2022-04-04,0.9259076185308789,0.9259076185308789,0.0,0,False
2022-04-05,0.9259076185308789,0.9259193428461654,0.0012662510872507582,3,True
2022-04-06,0.9259193428461654,0.9132379387679542,-1.3696013779375238,7,True
2022-04-07,0.9132379387679542,0.9112153210730222,-0.22147762473170296,0,True
2022-04-08,0.9112153210730222,0.9112153210730222,0.0,0,False
2022-04-09,0.9112153210730222,0.9112153210730222,0.0,0,False
2022-04-10,0.9112153210730222,0.9112153210730222,0.0,0,False
2022-04-11,0.9112153210730222,0.9073881004492566,-0.42001276045916525,6,True
2022-04-12,0.9073881004492566,0.909732438068292,0.2583610715056528,0,True
2022-04-13,0.909732438068292,0.909732438068292,0.0,0,False
2022-04-14,0.909732438068292,0.909732438068292,0.0,0,False
2022-04-15,0.909732438068292,0.909732438068292,0.0,0,False
2022-04-16,0.909732438068292,0.909732438068292,0.0,0,False
2022-04-17,0.909732438068292,0.9118229573736186,0.2297949614466388,1,True
2022-04-18,0.9118229573736186,0.912983155914368,0.1272394527213061,6,True
2022-04-19,0.912983155914368,0.9197157288455972,0.7374257550772034,0,True
2022-04-20,0.9197157288455972,0.9197157288455972,0.0,0,False
2022-04-21,0.9197157288455972,0.9209976316207713,0.13938032535152356,2,True
2022-04-22,0.9209976316207713,0.9186223757784284,-0.2579003203475039,0,True
2022-04-23,0.9186223757784284,0.9186223757784284,0.0,0,False
2022-04-24,0.9186223757784284,0.9186223757784284,0.0,0,False
2022-04-25,0.9186223757784284,0.9159617961412532,-0.28962713159699227,3,True
2022-04-26,0.9159617961412532,0.9177609455070321,0.19642187844060022,2,True
2022-04-27,0.9177609455070321,0.9171064233308707,-0.07131728358737988,0,True
2022-04-28,0.9171064233308707,0.9171064233308707,0.0,0,False
2022-04-29,0.9171064233308707,0.9171064233308707,0.0,0,False
2022-04-30,0.9171064233308707,0.9157948509321124,-0.14301201751424353,1,True
2022-05-01,0.9157948509321124,0.9183562306712696,0.2796892488039271,6,True
2022-05-02,0.9183562306712696,0.9196211013178195,0.13773202645179783,0,True
2022-05-03,0.9196211013178195,0.9202479018705045,0.06815856571655843,3,True
2022-05-04,0.9202479018705045,0.9165948317727411,-0.3969658708635082,1,True
2022-05-05,0.9165948317727411,0.9165948317727411,0.0,0,False
2022-05-06,0.9165948317727411,0.910703981695532,-0.6426885547473504,4,True
2022-05-07,0.910703981695532,0.9086791630246311,-0.22233554608283024,2,True
2022-05-08,0.9086791630246311,0.9029131477173375,-0.6345490842004975,3,True
2022-05-09,0.9029131477173375,0.9002160912706848,-0.29870607748609945,2,True
2022-05-10,0.9002160912706848,0.9002160912706848,0.0,0,False
2022-05-11,0.9002160912706848,0.9002160912706848,0.0,0,False
2022-05-12,0.9002160912706848,0.9002160912706848,0.0,0,False
2022-05-13,0.9002160912706848,0.9002160912706848,0.0,0,False
2022-05-14,0.9002160912706848,0.9002160912706848,0.0,0,False
2022-05-15,0.9002160912706848,0.9002160912706848,0.0,0,False
2022-05-16,0.9002160912706848,0.9002160912706848,0.0,0,False
2022-05-17,0.9002160912706848,0.9002160912706848,0.0,0,False
2022-05-18,0.9002160912706848,0.9002160912706848,0.0,0,False
2022-05-19,0.9002160912706848,0.9002160912706848,0.0,0,False
2022-05-20,0.9002160912706848,0.9002160912706848,0.0,0,False
2022-05-21,0.9002160912706848,0.9002160912706848,0.0,0,False
2022-05-22,0.9002160912706848,0.9002160912706848,0.0,0,False
2022-05-23,0.9002160912706848,0.9002160912706848,0.0,0,False
2022-05-24,0.9002160912706848,0.9002160912706848,0.0,0,False
2022-05-25,0.9002160912706848,0.9002160912706848,0.0,0,False
2022-05-26,0.9002160912706848,0.9002160912706848,0.0,0,False
2022-05-27,0.9002160912706848,0.9002160912706848,0.0,0,False
2022-05-28,0.9002160912706848,0.9002160912706848,0.0,0,False
2022-05-29,0.9002160912706848,0.9002160912706848,0.0,0,False
2022-05-30,0.9002160912706848,0.9002160912706848,0.0,0,False
2022-05-31,0.9002160912706848,0.9002160912706848,0.0,0,False
2022-06-01,0.9002160912706848,0.9002160912706848,0.0,0,False
2022-06-02,0.9002160912706848,0.9002160912706848,0.0,0,False
2022-06-03,0.9002160912706848,0.9002160912706848,0.0,0,False
2022-06-04,0.9002160912706848,0.9002160912706848,0.0,0,False
2022-06-05,0.9002160912706848,0.9002160912706848,0.0,0,False
2022-06-06,0.9002160912706848,0.9002160912706848,0.0,0,False
2022-06-07,0.9002160912706848,0.9002160912706848,0.0,0,False
2022-06-08,0.9002160912706848,0.9002160912706848,0.0,0,False
2022-06-09,0.9002160912706848,0.9002160912706848,0.0,0,False
2022-06-10,0.9002160912706848,0.9002160912706848,0.0,0,False
2022-06-11,0.9002160912706848,0.9002160912706848,0.0,0,False
2022-06-12,0.9002160912706848,0.9002160912706848,0.0,0,False
2022-06-13,0.9002160912706848,0.9002160912706848,0.0,0,False
2022-06-14,0.9002160912706848,0.9002160912706848,0.0,0,False
2022-06-15,0.9002160912706848,0.9002160912706848,0.0,0,False
2022-06-16,0.9002160912706848,0.9002160912706848,0.0,0,False
2022-06-17,0.9002160912706848,0.9002160912706848,0.0,0,False
2022-06-18,0.9002160912706848,0.9002160912706848,0.0,0,False
2022-06-19,0.9002160912706848,0.9002160912706848,0.0,0,False
2022-06-20,0.9002160912706848,0.9002160912706848,0.0,0,False
2022-06-21,0.9002160912706848,0.9002160912706848,0.0,0,False
2022-06-22,0.9002160912706848,0.9002160912706848,0.0,0,False
2022-06-23,0.9002160912706848,0.9002160912706848,0.0,0,False
2022-06-24,0.9002160912706848,0.9002160912706848,0.0,0,False
2022-06-25,0.9002160912706848,0.9002160912706848,0.0,0,False
2022-06-26,0.9002160912706848,0.9002160912706848,0.0,0,False
2022-06-27,0.9002160912706848,0.9002160912706848,0.0,0,False
2022-06-28,0.9002160912706848,0.9002160912706848,0.0,0,False
2022-06-29,0.9002160912706848,0.9002160912706848,0.0,0,False
2022-06-30,0.9002160912706848,0.9002160912706848,0.0,0,False
2022-07-01,0.9002160912706848,0.9002160912706848,0.0,0,False
2022-07-02,0.9002160912706848,0.9002160912706848,0.0,0,False
2022-07-03,0.9002160912706848,0.9002160912706848,0.0,0,False
2022-07-04,0.9002160912706848,0.9002160912706848,0.0,0,False
2022-07-05,0.9002160912706848,0.9002160912706848,0.0,0,False
2022-07-06,0.9002160912706848,0.9002160912706848,0.0,0,False
2022-07-07,0.9002160912706848,0.9002160912706848,0.0,0,False
2022-07-08,0.9002160912706848,0.9002160912706848,0.0,0,False
2022-07-09,0.9002160912706848,0.9002160912706848,0.0,0,False
2022-07-10,0.9002160912706848,0.9002160912706848,0.0,0,False
2022-07-11,0.9002160912706848,0.9002160912706848,0.0,0,False
2022-07-12,0.9002160912706848,0.9002160912706848,0.0,0,False
2022-07-13,0.9002160912706848,0.9002160912706848,0.0,0,False
2022-07-14,0.9002160912706848,0.9002160912706848,0.0,0,False
2022-07-15,0.9002160912706848,0.9002160912706848,0.0,0,False
2022-07-16,0.9002160912706848,0.9002160912706848,0.0,0,False
2022-07-17,0.9002160912706848,0.9002160912706848,0.0,0,False
2022-07-18,0.9002160912706848,0.9002160912706848,0.0,0,False
2022-07-19,0.9002160912706848,0.9002160912706848,0.0,0,False
2022-07-20,0.9002160912706848,0.9002160912706848,0.0,0,False
2022-07-21,0.9002160912706848,0.9002160912706848,0.0,0,False
2022-07-22,0.9002160912706848,0.9002160912706848,0.0,0,False
2022-07-23,0.9002160912706848,0.9002160912706848,0.0,0,False
2022-07-24,0.9002160912706848,0.9002160912706848,0.0,0,False
2022-07-25,0.9002160912706848,0.9002160912706848,0.0,0,False
2022-07-26,0.9002160912706848,0.9002160912706848,0.0,0,False
2022-07-27,0.9002160912706848,0.9002160912706848,0.0,0,False
2022-07-28,0.9002160912706848,0.9002160912706848,0.0,0,False
2022-07-29,0.9002160912706848,0.9002160912706848,0.0,0,False
2022-07-30,0.9002160912706848,0.9002160912706848,0.0,0,False
2022-07-31,0.9002160912706848,0.9002160912706848,0.0,0,False
2022-08-01,0.9002160912706848,0.9002160912706848,0.0,0,False
2022-08-02,0.9002160912706848,0.9002160912706848,0.0,0,False
2022-08-03,0.9002160912706848,0.9002160912706848,0.0,0,False
2022-08-04,0.9002160912706848,0.9002160912706848,0.0,0,False
2022-08-05,0.9002160912706848,0.9002160912706848,0.0,0,False
2022-08-06,0.9002160912706848,0.9002160912706848,0.0,0,False
2022-08-07,0.9002160912706848,0.9002160912706848,0.0,0,False
2022-08-08,0.9002160912706848,0.9002160912706848,0.0,0,False
2022-08-09,0.9002160912706848,0.9002160912706848,0.0,0,False
2022-08-10,0.9002160912706848,0.9002160912706848,0.0,0,False
2022-08-11,0.9002160912706848,0.9002160912706848,0.0,0,False
2022-08-12,0.9002160912706848,0.9002160912706848,0.0,0,False
2022-08-13,0.9002160912706848,0.9002160912706848,0.0,0,False
2022-08-14,0.9002160912706848,0.9002160912706848,0.0,0,False
2022-08-15,0.9002160912706848,0.9002160912706848,0.0,0,False
2022-08-16,0.9002160912706848,0.9002160912706848,0.0,0,False
2022-08-17,0.9002160912706848,0.9002160912706848,0.0,0,False
2022-08-18,0.9002160912706848,0.9002160912706848,0.0,0,False
2022-08-19,0.9002160912706848,0.9002160912706848,0.0,0,False
2022-08-20,0.9002160912706848,0.9002160912706848,0.0,0,False
2022-08-21,0.9002160912706848,0.9002160912706848,0.0,0,False
2022-08-22,0.9002160912706848,0.9002160912706848,0.0,0,False
2022-08-23,0.9002160912706848,0.9002160912706848,0.0,0,False
2022-08-24,0.9002160912706848,0.9002160912706848,0.0,0,False
2022-08-25,0.9002160912706848,0.9002160912706848,0.0,0,False
2022-08-26,0.9002160912706848,0.9002160912706848,0.0,0,False
2022-08-27,0.9002160912706848,0.9002160912706848,0.0,0,False
2022-08-28,0.9002160912706848,0.9002160912706848,0.0,0,False
2022-08-29,0.9002160912706848,0.9002160912706848,0.0,0,False
2022-08-30,0.9002160912706848,0.9002160912706848,0.0,0,False
2022-08-31,0.9002160912706848,0.9002160912706848,0.0,0,False
2022-09-01,0.9002160912706848,0.9002160912706848,0.0,0,False
2022-09-02,0.9002160912706848,0.9002160912706848,0.0,0,False
2022-09-03,0.9002160912706848,0.9002160912706848,0.0,0,False
2022-09-04,0.9002160912706848,0.9002160912706848,0.0,0,False
2022-09-05,0.9002160912706848,0.9002160912706848,0.0,0,False
2022-09-06,0.9002160912706848,0.9002160912706848,0.0,0,False
2022-09-07,0.9002160912706848,0.9002160912706848,0.0,0,False
2022-09-08,0.9002160912706848,0.9002160912706848,0.0,0,False
2022-09-09,0.9002160912706848,0.9002160912706848,0.0,0,False
2022-09-10,0.9002160912706848,0.9002160912706848,0.0,0,False
2022-09-11,0.9002160912706848,0.9002160912706848,0.0,0,False
2022-09-12,0.9002160912706848,0.9002160912706848,0.0,0,False
2022-09-13,0.9002160912706848,0.9002160912706848,0.0,0,False
2022-09-14,0.9002160912706848,0.9002160912706848,0.0,0,False
2022-09-15,0.9002160912706848,0.9002160912706848,0.0,0,False
2022-09-16,0.9002160912706848,0.9002160912706848,0.0,0,False
2022-09-17,0.9002160912706848,0.9002160912706848,0.0,0,False
2022-09-18,0.9002160912706848,0.9002160912706848,0.0,0,False
2022-09-19,0.9002160912706848,0.9002160912706848,0.0,0,False
2022-09-20,0.9002160912706848,0.9002160912706848,0.0,0,False
2022-09-21,0.9002160912706848,0.9002160912706848,0.0,0,False
2022-09-22,0.9002160912706848,0.9002160912706848,0.0,0,False
2022-09-23,0.9002160912706848,0.9002160912706848,0.0,0,False
2022-09-24,0.9002160912706848,0.9002160912706848,0.0,0,False
2022-09-25,0.9002160912706848,0.9002160912706848,0.0,0,False
2022-09-26,0.9002160912706848,0.9002160912706848,0.0,0,False
2022-09-27,0.9002160912706848,0.9002160912706848,0.0,0,False
2022-09-28,0.9002160912706848,0.9002160912706848,0.0,0,False
2022-09-29,0.9002160912706848,0.9002160912706848,0.0,0,False
2022-09-30,0.9002160912706848,0.9002160912706848,0.0,0,False
2022-10-01,0.9002160912706848,0.9002160912706848,0.0,0,False
2022-10-02,0.9002160912706848,0.9002160912706848,0.0,0,False
2022-10-03,0.9002160912706848,0.9002160912706848,0.0,0,False
2022-10-04,0.9002160912706848,0.9002160912706848,0.0,0,False
2022-10-05,0.9002160912706848,0.9002160912706848,0.0,0,False
2022-10-06,0.9002160912706848,0.9002160912706848,0.0,0,False
2022-10-07,0.9002160912706848,0.9002160912706848,0.0,0,False
2022-10-08,0.9002160912706848,0.9002160912706848,0.0,0,False
2022-10-09,0.9002160912706848,0.9002160912706848,0.0,0,False
2022-10-10,0.9002160912706848,0.9002160912706848,0.0,0,False
2022-10-11,0.9002160912706848,0.9002160912706848,0.0,0,False
2022-10-12,0.9002160912706848,0.9002160912706848,0.0,0,False
2022-10-13,0.9002160912706848,0.9002160912706848,0.0,0,False
2022-10-14,0.9002160912706848,0.9002160912706848,0.0,0,False
2022-10-15,0.9002160912706848,0.9002160912706848,0.0,0,False
2022-10-16,0.9002160912706848,0.9002160912706848,0.0,0,False
2022-10-17,0.9002160912706848,0.9002160912706848,0.0,0,False
2022-10-18,0.9002160912706848,0.9002160912706848,0.0,0,False
2022-10-19,0.9002160912706848,0.9002160912706848,0.0,0,False
2022-10-20,0.9002160912706848,0.9002160912706848,0.0,0,False
2022-10-21,0.9002160912706848,0.9002160912706848,0.0,0,False
2022-10-22,0.9002160912706848,0.9002160912706848,0.0,0,False
2022-10-23,0.9002160912706848,0.9002160912706848,0.0,0,False
2022-10-24,0.9002160912706848,0.9002160912706848,0.0,0,False
2022-10-25,0.9002160912706848,0.9002160912706848,0.0,0,False
2022-10-26,0.9002160912706848,0.9002160912706848,0.0,0,False
2022-10-27,0.9002160912706848,0.9002160912706848,0.0,0,False
2022-10-28,0.9002160912706848,0.9002160912706848,0.0,0,False
2022-10-29,0.9002160912706848,0.9002160912706848,0.0,0,False
2022-10-30,0.9002160912706848,0.9002160912706848,0.0,0,False
2022-10-31,0.9002160912706848,0.9002160912706848,0.0,0,False
2022-11-01,0.9002160912706848,0.9002160912706848,0.0,0,False
2022-11-02,0.9002160912706848,0.9002160912706848,0.0,0,False
2022-11-03,0.9002160912706848,0.9002160912706848,0.0,0,False
2022-11-04,0.9002160912706848,0.9002160912706848,0.0,0,False
2022-11-05,0.9002160912706848,0.9002160912706848,0.0,0,False
2022-11-06,0.9002160912706848,0.9002160912706848,0.0,0,False
2022-11-07,0.9002160912706848,0.9002160912706848,0.0,0,False
2022-11-08,0.9002160912706848,0.9002160912706848,0.0,0,False
2022-11-09,0.9002160912706848,0.9002160912706848,0.0,0,False
2022-11-10,0.9002160912706848,0.9002160912706848,0.0,0,False
2022-11-11,0.9002160912706848,0.9002160912706848,0.0,0,False
2022-11-12,0.9002160912706848,0.9002160912706848,0.0,0,False
2022-11-13,0.9002160912706848,0.9002160912706848,0.0,0,False
2022-11-14,0.9002160912706848,0.9002160912706848,0.0,0,False
2022-11-15,0.9002160912706848,0.9002160912706848,0.0,0,False
2022-11-16,0.9002160912706848,0.9002160912706848,0.0,0,False
2022-11-17,0.9002160912706848,0.9002160912706848,0.0,0,False
2022-11-18,0.9002160912706848,0.9002160912706848,0.0,0,False
2022-11-19,0.9002160912706848,0.9002160912706848,0.0,0,False
2022-11-20,0.9002160912706848,0.9002160912706848,0.0,0,False
2022-11-21,0.9002160912706848,0.9002160912706848,0.0,0,False
2022-11-22,0.9002160912706848,0.9002160912706848,0.0,0,False
2022-11-23,0.9002160912706848,0.9002160912706848,0.0,0,False
2022-11-24,0.9002160912706848,0.9002160912706848,0.0,0,False
2022-11-25,0.9002160912706848,0.9002160912706848,0.0,0,False
2022-11-26,0.9002160912706848,0.9002160912706848,0.0,0,False
2022-11-27,0.9002160912706848,0.9002160912706848,0.0,0,False
2022-11-28,0.9002160912706848,0.9002160912706848,0.0,0,False
2022-11-29,0.9002160912706848,0.9002160912706848,0.0,0,False
2022-11-30,0.9002160912706848,0.9002160912706848,0.0,0,False
2022-12-01,0.9002160912706848,0.9002160912706848,0.0,0,False
2022-12-02,0.9002160912706848,0.9002160912706848,0.0,0,False
2022-12-03,0.9002160912706848,0.9002160912706848,0.0,0,False
2022-12-04,0.9002160912706848,0.9002160912706848,0.0,0,False
2022-12-05,0.9002160912706848,0.9002160912706848,0.0,0,False
2022-12-06,0.9002160912706848,0.9002160912706848,0.0,0,False
2022-12-07,0.9002160912706848,0.9002160912706848,0.0,0,False
2022-12-08,0.9002160912706848,0.9002160912706848,0.0,0,False
2022-12-09,0.9002160912706848,0.9002160912706848,0.0,0,False
2022-12-10,0.9002160912706848,0.9002160912706848,0.0,0,False
2022-12-11,0.9002160912706848,0.9002160912706848,0.0,0,False
2022-12-12,0.9002160912706848,0.9002160912706848,0.0,0,False
2022-12-13,0.9002160912706848,0.9002160912706848,0.0,0,False
2022-12-14,0.9002160912706848,0.9002160912706848,0.0,0,False
2022-12-15,0.9002160912706848,0.9002160912706848,0.0,0,False
2022-12-16,0.9002160912706848,0.9002160912706848,0.0,0,False
2022-12-17,0.9002160912706848,0.9002160912706848,0.0,0,False
2022-12-18,0.9002160912706848,0.9002160912706848,0.0,0,False
2022-12-19,0.9002160912706848,0.9002160912706848,0.0,0,False
2022-12-20,0.9002160912706848,0.9002160912706848,0.0,0,False
2022-12-21,0.9002160912706848,0.9002160912706848,0.0,0,False
2022-12-22,0.9002160912706848,0.9002160912706848,0.0,0,False
2022-12-23,0.9002160912706848,0.9002160912706848,0.0,0,False
2022-12-24,0.9002160912706848,0.9002160912706848,0.0,0,False
2022-12-25,0.9002160912706848,0.9002160912706848,0.0,0,False
2022-12-26,0.9002160912706848,0.9002160912706848,0.0,0,False
2022-12-27,0.9002160912706848,0.9002160912706848,0.0,0,False
2022-12-28,0.9002160912706848,0.9002160912706848,0.0,0,False
2022-12-29,0.9002160912706848,0.9002160912706848,0.0,0,False
2022-12-30,0.9002160912706848,0.9002160912706848,0.0,0,False
2022-12-31,0.9002160912706848,0.9002160912706848,0.0,0,False
2023-01-01,0.9002160912706848,0.9002160912706848,0.0,0,False
2023-01-02,0.9002160912706848,0.9002160912706848,0.0,0,False
2023-01-03,0.9002160912706848,0.9002160912706848,0.0,0,False
2023-01-04,0.9002160912706848,0.9002160912706848,0.0,0,False
2023-01-05,0.9002160912706848,0.9002160912706848,0.0,0,False
2023-01-06,0.9002160912706848,0.9002160912706848,0.0,0,False
2023-01-07,0.9002160912706848,0.9002160912706848,0.0,0,False
2023-01-08,0.9002160912706848,0.9002160912706848,0.0,0,False
2023-01-09,0.9002160912706848,0.9002160912706848,0.0,0,False
2023-01-10,0.9002160912706848,0.9002160912706848,0.0,0,False
2023-01-11,0.9002160912706848,0.9002160912706848,0.0,0,False
2023-01-12,0.9002160912706848,0.9002160912706848,0.0,0,False
2023-01-13,0.9002160912706848,0.9002160912706848,0.0,0,False
2023-01-14,0.9002160912706848,0.9002160912706848,0.0,0,False
2023-01-15,0.9002160912706848,0.9002160912706848,0.0,0,False
2023-01-16,0.9002160912706848,0.9002160912706848,0.0,0,False
2023-01-17,0.9002160912706848,0.9002160912706848,0.0,0,False
2023-01-18,0.9002160912706848,0.9002160912706848,0.0,0,False
2023-01-19,0.9002160912706848,0.9002160912706848,0.0,0,False
2023-01-20,0.9002160912706848,0.9002160912706848,0.0,0,False
2023-01-21,0.9002160912706848,0.9002160912706848,0.0,0,False
2023-01-22,0.9002160912706848,0.9002160912706848,0.0,0,False
2023-01-23,0.9002160912706848,0.9002160912706848,0.0,0,False
2023-01-24,0.9002160912706848,0.9002160912706848,0.0,0,False
2023-01-25,0.9002160912706848,0.9002160912706848,0.0,0,False
2023-01-26,0.9002160912706848,0.9002160912706848,0.0,0,False
2023-01-27,0.9002160912706848,0.9002160912706848,0.0,0,False
2023-01-28,0.9002160912706848,0.9002160912706848,0.0,0,False
2023-01-29,0.9002160912706848,0.9002160912706848,0.0,0,False
2023-01-30,0.9002160912706848,0.9002160912706848,0.0,0,False
2023-01-31,0.9002160912706848,0.9002160912706848,0.0,0,False
2023-02-01,0.9002160912706848,0.9002160912706848,0.0,0,False
2023-02-02,0.9002160912706848,0.9002160912706848,0.0,0,False
2023-02-03,0.9002160912706848,0.9002160912706848,0.0,0,False
2023-02-04,0.9002160912706848,0.9002160912706848,0.0,0,False
2023-02-05,0.9002160912706848,0.9002160912706848,0.0,0,False
2023-02-06,0.9002160912706848,0.9002160912706848,0.0,0,False
2023-02-07,0.9002160912706848,0.9002160912706848,0.0,0,False
2023-02-08,0.9002160912706848,0.9002160912706848,0.0,0,False
2023-02-09,0.9002160912706848,0.9002160912706848,0.0,0,False
2023-02-10,0.9002160912706848,0.9002160912706848,0.0,0,False
2023-02-11,0.9002160912706848,0.9002160912706848,0.0,0,False
2023-02-12,0.9002160912706848,0.9002160912706848,0.0,0,False
2023-02-13,0.9002160912706848,0.9002160912706848,0.0,0,False
2023-02-14,0.9002160912706848,0.9002160912706848,0.0,0,False
2023-02-15,0.9002160912706848,0.9002160912706848,0.0,0,False
2023-02-16,0.9002160912706848,0.9002160912706848,0.0,0,False
2023-02-17,0.9002160912706848,0.9002160912706848,0.0,0,False
2023-02-18,0.9002160912706848,0.9002160912706848,0.0,0,False
2023-02-19,0.9002160912706848,0.9002160912706848,0.0,0,False
2023-02-20,0.9002160912706848,0.9002160912706848,0.0,0,False
2023-02-21,0.9002160912706848,0.9002160912706848,0.0,0,False
2023-02-22,0.9002160912706848,0.9002160912706848,0.0,0,False
2023-02-23,0.9002160912706848,0.9002160912706848,0.0,0,False
2023-02-24,0.9002160912706848,0.9002160912706848,0.0,0,False
2023-02-25,0.9002160912706848,0.9002160912706848,0.0,0,False
2023-02-26,0.9002160912706848,0.9002160912706848,0.0,0,False
2023-02-27,0.9002160912706848,0.9002160912706848,0.0,0,False
2023-02-28,0.9002160912706848,0.9002160912706848,0.0,0,False
2023-03-01,0.9002160912706848,0.9002160912706848,0.0,0,False
2023-03-02,0.9002160912706848,0.9002160912706848,0.0,0,False
2023-03-03,0.9002160912706848,0.9002160912706848,0.0,0,False
2023-03-04,0.9002160912706848,0.9002160912706848,0.0,0,False
2023-03-05,0.9002160912706848,0.9002160912706848,0.0,0,False
2023-03-06,0.9002160912706848,0.9002160912706848,0.0,0,False
2023-03-07,0.9002160912706848,0.9002160912706848,0.0,0,False
2023-03-08,0.9002160912706848,0.9002160912706848,0.0,0,False
2023-03-09,0.9002160912706848,0.9002160912706848,0.0,0,False
2023-03-10,0.9002160912706848,0.9002160912706848,0.0,0,False
2023-03-11,0.9002160912706848,0.9002160912706848,0.0,0,False
2023-03-12,0.9002160912706848,0.9002160912706848,0.0,0,False
2023-03-13,0.9002160912706848,0.9002160912706848,0.0,0,False
2023-03-14,0.9002160912706848,0.9002160912706848,0.0,0,False
2023-03-15,0.9002160912706848,0.9002160912706848,0.0,0,False
2023-03-16,0.9002160912706848,0.9002160912706848,0.0,0,False
2023-03-17,0.9002160912706848,0.9002160912706848,0.0,0,False
2023-03-18,0.9002160912706848,0.9002160912706848,0.0,0,False
2023-03-19,0.9002160912706848,0.9002160912706848,0.0,0,False
2023-03-20,0.9002160912706848,0.9002160912706848,0.0,0,False
2023-03-21,0.9002160912706848,0.9002160912706848,0.0,0,False
2023-03-22,0.9002160912706848,0.9002160912706848,0.0,0,False
2023-03-23,0.9002160912706848,0.9002160912706848,0.0,0,False
2023-03-24,0.9002160912706848,0.9002160912706848,0.0,0,False
2023-03-25,0.9002160912706848,0.9002160912706848,0.0,0,False
2023-03-26,0.9002160912706848,0.9002160912706848,0.0,0,False
2023-03-27,0.9002160912706848,0.9002160912706848,0.0,0,False
2023-03-28,0.9002160912706848,0.9002160912706848,0.0,0,False
2023-03-29,0.9002160912706848,0.9002160912706848,0.0,0,False
2023-03-30,0.9002160912706848,0.9002160912706848,0.0,0,False
2023-03-31,0.9002160912706848,0.9002160912706848,0.0,0,False
2023-04-01,0.9002160912706848,0.9002160912706848,0.0,0,False
2023-04-02,0.9002160912706848,0.9002160912706848,0.0,0,False
2023-04-03,0.9002160912706848,0.9002160912706848,0.0,0,False
2023-04-04,0.9002160912706848,0.9002160912706848,0.0,0,False
2023-04-05,0.9002160912706848,0.9002160912706848,0.0,0,False
2023-04-06,0.9002160912706848,0.9002160912706848,0.0,0,False
2023-04-07,0.9002160912706848,0.9002160912706848,0.0,0,False
2023-04-08,0.9002160912706848,0.9002160912706848,0.0,0,False
2023-04-09,0.9002160912706848,0.9002160912706848,0.0,0,False
2023-04-10,0.9002160912706848,0.9002160912706848,0.0,0,False
2023-04-11,0.9002160912706848,0.9002160912706848,0.0,0,False
2023-04-12,0.9002160912706848,0.9002160912706848,0.0,0,False
2023-04-13,0.9002160912706848,0.9002160912706848,0.0,0,False
2023-04-14,0.9002160912706848,0.9002160912706848,0.0,0,False
2023-04-15,0.9002160912706848,0.9002160912706848,0.0,0,False
2023-04-16,0.9002160912706848,0.9002160912706848,0.0,0,False
2023-04-17,0.9002160912706848,0.9002160912706848,0.0,0,False
2023-04-18,0.9002160912706848,0.9002160912706848,0.0,0,False
2023-04-19,0.9002160912706848,0.9002160912706848,0.0,0,False
2023-04-20,0.9002160912706848,0.9002160912706848,0.0,0,False
2023-04-21,0.9002160912706848,0.9002160912706848,0.0,0,False
2023-04-22,0.9002160912706848,0.9002160912706848,0.0,0,False
2023-04-23,0.9002160912706848,0.9002160912706848,0.0,0,False
2023-04-24,0.9002160912706848,0.9002160912706848,0.0,0,False
2023-04-25,0.9002160912706848,0.9002160912706848,0.0,0,False
2023-04-26,0.9002160912706848,0.9002160912706848,0.0,0,False
2023-04-27,0.9002160912706848,0.9002160912706848,0.0,0,False
2023-04-28,0.9002160912706848,0.9002160912706848,0.0,0,False
2023-04-29,0.9002160912706848,0.9002160912706848,0.0,0,False
2023-04-30,0.9002160912706848,0.9002160912706848,0.0,0,False
2023-05-01,0.9002160912706848,0.9002160912706848,0.0,0,False
2023-05-02,0.9002160912706848,0.9002160912706848,0.0,0,False
2023-05-03,0.9002160912706848,0.9002160912706848,0.0,0,False
2023-05-04,0.9002160912706848,0.9002160912706848,0.0,0,False
2023-05-05,0.9002160912706848,0.9002160912706848,0.0,0,False
2023-05-06,0.9002160912706848,0.9002160912706848,0.0,0,False
2023-05-07,0.9002160912706848,0.9002160912706848,0.0,0,False
2023-05-08,0.9002160912706848,0.9002160912706848,0.0,0,False
2023-05-09,0.9002160912706848,0.9002160912706848,0.0,0,False
2023-05-10,0.9002160912706848,0.9002160912706848,0.0,0,False
2023-05-11,0.9002160912706848,0.9002160912706848,0.0,0,False
2023-05-12,0.9002160912706848,0.9002160912706848,0.0,0,False
2023-05-13,0.9002160912706848,0.9002160912706848,0.0,0,False
2023-05-14,0.9002160912706848,0.9002160912706848,0.0,0,False
2023-05-15,0.9002160912706848,0.9002160912706848,0.0,0,False
2023-05-16,0.9002160912706848,0.9002160912706848,0.0,0,False
2023-05-17,0.9002160912706848,0.9002160912706848,0.0,0,False
2023-05-18,0.9002160912706848,0.9002160912706848,0.0,0,False
2023-05-19,0.9002160912706848,0.9002160912706848,0.0,0,False
2023-05-20,0.9002160912706848,0.9002160912706848,0.0,0,False
2023-05-21,0.9002160912706848,0.9002160912706848,0.0,0,False
2023-05-22,0.9002160912706848,0.9002160912706848,0.0,0,False
2023-05-23,0.9002160912706848,0.9002160912706848,0.0,0,False
2023-05-24,0.9002160912706848,0.9002160912706848,0.0,0,False
2023-05-25,0.9002160912706848,0.9002160912706848,0.0,0,False
2023-05-26,0.9002160912706848,0.9002160912706848,0.0,0,False
2023-05-27,0.9002160912706848,0.9002160912706848,0.0,0,False
2023-05-28,0.9002160912706848,0.9002160912706848,0.0,0,False
2023-05-29,0.9002160912706848,0.9002160912706848,0.0,0,False
2023-05-30,0.9002160912706848,0.9002160912706848,0.0,0,False
2023-05-31,0.9002160912706848,0.9002160912706848,0.0,0,False
2023-06-01,0.9002160912706848,0.9002160912706848,0.0,0,False
2023-06-02,0.9002160912706848,0.9002160912706848,0.0,0,False
2023-06-03,0.9002160912706848,0.9002160912706848,0.0,0,False
2023-06-04,0.9002160912706848,0.9002160912706848,0.0,0,False
2023-06-05,0.9002160912706848,0.9002160912706848,0.0,0,False
2023-06-06,0.9002160912706848,0.9002160912706848,0.0,0,False
2023-06-07,0.9002160912706848,0.9002160912706848,0.0,0,False
2023-06-08,0.9002160912706848,0.9002160912706848,0.0,0,False
2023-06-09,0.9002160912706848,0.9002160912706848,0.0,0,False
2023-06-10,0.9002160912706848,0.9002160912706848,0.0,0,False
2023-06-11,0.9002160912706848,0.9002160912706848,0.0,0,False
2023-06-12,0.9002160912706848,0.9002160912706848,0.0,0,False
2023-06-13,0.9002160912706848,0.9002160912706848,0.0,0,False
2023-06-14,0.9002160912706848,0.9002160912706848,0.0,0,False
2023-06-15,0.9002160912706848,0.9002160912706848,0.0,0,False
2023-06-16,0.9002160912706848,0.9002160912706848,0.0,0,False
2023-06-17,0.9002160912706848,0.9002160912706848,0.0,0,False
2023-06-18,0.9002160912706848,0.9002160912706848,0.0,0,False
2023-06-19,0.9002160912706848,0.9002160912706848,0.0,0,False
2023-06-20,0.9002160912706848,0.9002160912706848,0.0,0,False
2023-06-21,0.9002160912706848,0.9002160912706848,0.0,0,False
2023-06-22,0.9002160912706848,0.9002160912706848,0.0,0,False
2023-06-23,0.9002160912706848,0.9002160912706848,0.0,0,False
2023-06-24,0.9002160912706848,0.9002160912706848,0.0,0,False
2023-06-25,0.9002160912706848,0.9002160912706848,0.0,0,False
2023-06-26,0.9002160912706848,0.9002160912706848,0.0,0,False
2023-06-27,0.9002160912706848,0.9002160912706848,0.0,0,False
2023-06-28,0.9002160912706848,0.9002160912706848,0.0,0,False
2023-06-29,0.9002160912706848,0.9002160912706848,0.0,0,False
2023-06-30,0.9002160912706848,0.9002160912706848,0.0,0,False
2023-07-01,0.9002160912706848,0.9002160912706848,0.0,0,False
2023-07-02,0.9002160912706848,0.9002160912706848,0.0,0,False
2023-07-03,0.9002160912706848,0.9002160912706848,0.0,0,False
2023-07-04,0.9002160912706848,0.9002160912706848,0.0,0,False
2023-07-05,0.9002160912706848,0.9002160912706848,0.0,0,False
2023-07-06,0.9002160912706848,0.9002160912706848,0.0,0,False
2023-07-07,0.9002160912706848,0.9002160912706848,0.0,0,False
2023-07-08,0.9002160912706848,0.9002160912706848,0.0,0,False
2023-07-09,0.9002160912706848,0.9002160912706848,0.0,0,False
2023-07-10,0.9002160912706848,0.9002160912706848,0.0,0,False
2023-07-11,0.9002160912706848,0.9002160912706848,0.0,0,False
2023-07-12,0.9002160912706848,0.9002160912706848,0.0,0,False
2023-07-13,0.9002160912706848,0.9002160912706848,0.0,0,False
2023-07-14,0.9002160912706848,0.9002160912706848,0.0,0,False
2023-07-15,0.9002160912706848,0.9002160912706848,0.0,0,False
2023-07-16,0.9002160912706848,0.9002160912706848,0.0,0,False
2023-07-17,0.9002160912706848,0.9002160912706848,0.0,0,False
2023-07-18,0.9002160912706848,0.9002160912706848,0.0,0,False
2023-07-19,0.9002160912706848,0.9002160912706848,0.0,0,False
2023-07-20,0.9002160912706848,0.9002160912706848,0.0,0,False
2023-07-21,0.9002160912706848,0.9002160912706848,0.0,0,False
2023-07-22,0.9002160912706848,0.9002160912706848,0.0,0,False
2023-07-23,0.9002160912706848,0.9002160912706848,0.0,0,False
2023-07-24,0.9002160912706848,0.9002160912706848,0.0,0,False
2023-07-25,0.9002160912706848,0.9002160912706848,0.0,0,False
2023-07-26,0.9002160912706848,0.9002160912706848,0.0,0,False
2023-07-27,0.9002160912706848,0.9002160912706848,0.0,0,False
2023-07-28,0.9002160912706848,0.9002160912706848,0.0,0,False
2023-07-29,0.9002160912706848,0.9002160912706848,0.0,0,False
2023-07-30,0.9002160912706848,0.9002160912706848,0.0,0,False
2023-07-31,0.9002160912706848,0.9002160912706848,0.0,0,False
2023-08-01,0.9002160912706848,0.9002160912706848,0.0,0,False
2023-08-02,0.9002160912706848,0.9002160912706848,0.0,0,False
2023-08-03,0.9002160912706848,0.9002160912706848,0.0,0,False
2023-08-04,0.9002160912706848,0.9002160912706848,0.0,0,False
2023-08-05,0.9002160912706848,0.9002160912706848,0.0,0,False
2023-08-06,0.9002160912706848,0.9002160912706848,0.0,0,False
2023-08-07,0.9002160912706848,0.9002160912706848,0.0,0,False
2023-08-08,0.9002160912706848,0.9002160912706848,0.0,0,False
2023-08-09,0.9002160912706848,0.9002160912706848,0.0,0,False
2023-08-10,0.9002160912706848,0.9002160912706848,0.0,0,False
2023-08-11,0.9002160912706848,0.9002160912706848,0.0,0,False
2023-08-12,0.9002160912706848,0.9002160912706848,0.0,0,False
2023-08-13,0.9002160912706848,0.9002160912706848,0.0,0,False
2023-08-14,0.9002160912706848,0.9002160912706848,0.0,0,False
2023-08-15,0.9002160912706848,0.9002160912706848,0.0,0,False
2023-08-16,0.9002160912706848,0.9002160912706848,0.0,0,False
2023-08-17,0.9002160912706848,0.9002160912706848,0.0,0,False
2023-08-18,0.9002160912706848,0.9002160912706848,0.0,0,False
2023-08-19,0.9002160912706848,0.9002160912706848,0.0,0,False
2023-08-20,0.9002160912706848,0.9002160912706848,0.0,0,False
2023-08-21,0.9002160912706848,0.9002160912706848,0.0,0,False
2023-08-22,0.9002160912706848,0.9002160912706848,0.0,0,False
2023-08-23,0.9002160912706848,0.9002160912706848,0.0,0,False
2023-08-24,0.9002160912706848,0.9002160912706848,0.0,0,False
2023-08-25,0.9002160912706848,0.9002160912706848,0.0,0,False
2023-08-26,0.9002160912706848,0.9002160912706848,0.0,0,False
2023-08-27,0.9002160912706848,0.9002160912706848,0.0,0,False
2023-08-28,0.9002160912706848,0.9002160912706848,0.0,0,False
2023-08-29,0.9002160912706848,0.9002160912706848,0.0,0,False
2023-08-30,0.9002160912706848,0.9002160912706848,0.0,0,False
2023-08-31,0.9002160912706848,0.9002160912706848,0.0,0,False
2023-09-01,0.9002160912706848,0.9002160912706848,0.0,0,False
2023-09-02,0.9002160912706848,0.9002160912706848,0.0,0,False
2023-09-03,0.9002160912706848,0.9002160912706848,0.0,0,False
2023-09-04,0.9002160912706848,0.9002160912706848,0.0,0,False
2023-09-05,0.9002160912706848,0.9002160912706848,0.0,0,False
2023-09-06,0.9002160912706848,0.9002160912706848,0.0,0,False
2023-09-07,0.9002160912706848,0.9002160912706848,0.0,0,False
2023-09-08,0.9002160912706848,0.9002160912706848,0.0,0,False
2023-09-09,0.9002160912706848,0.9002160912706848,0.0,0,False
2023-09-10,0.9002160912706848,0.9002160912706848,0.0,0,False
2023-09-11,0.9002160912706848,0.9002160912706848,0.0,0,False
2023-09-12,0.9002160912706848,0.9002160912706848,0.0,0,False
2023-09-13,0.9002160912706848,0.9002160912706848,0.0,0,False
2023-09-14,0.9002160912706848,0.9002160912706848,0.0,0,False
2023-09-15,0.9002160912706848,0.9002160912706848,0.0,0,False
2023-09-16,0.9002160912706848,0.9002160912706848,0.0,0,False
2023-09-17,0.9002160912706848,0.9002160912706848,0.0,0,False
2023-09-18,0.9002160912706848,0.9002160912706848,0.0,0,False
2023-09-19,0.9002160912706848,0.9002160912706848,0.0,0,False
2023-09-20,0.9002160912706848,0.9002160912706848,0.0,0,False
2023-09-21,0.9002160912706848,0.9002160912706848,0.0,0,False
2023-09-22,0.9002160912706848,0.9002160912706848,0.0,0,False
2023-09-23,0.9002160912706848,0.9002160912706848,0.0,0,False
2023-09-24,0.9002160912706848,0.9002160912706848,0.0,0,False
2023-09-25,0.9002160912706848,0.9002160912706848,0.0,0,False
2023-09-26,0.9002160912706848,0.9002160912706848,0.0,0,False
2023-09-27,0.9002160912706848,0.9002160912706848,0.0,0,False
2023-09-28,0.9002160912706848,0.9002160912706848,0.0,0,False
2023-09-29,0.9002160912706848,0.9002160912706848,0.0,0,False
2023-09-30,0.9002160912706848,0.9002160912706848,0.0,0,False
2023-10-01,0.9002160912706848,0.9002160912706848,0.0,0,False
2023-10-02,0.9002160912706848,0.9002160912706848,0.0,0,False
2023-10-03,0.9002160912706848,0.9002160912706848,0.0,0,False
2023-10-04,0.9002160912706848,0.9002160912706848,0.0,0,False
2023-10-05,0.9002160912706848,0.9002160912706848,0.0,0,False
2023-10-06,0.9002160912706848,0.9002160912706848,0.0,0,False
2023-10-07,0.9002160912706848,0.9002160912706848,0.0,0,False
2023-10-08,0.9002160912706848,0.9002160912706848,0.0,0,False
2023-10-09,0.9002160912706848,0.9002160912706848,0.0,0,False
2023-10-10,0.9002160912706848,0.9002160912706848,0.0,0,False
2023-10-11,0.9002160912706848,0.9002160912706848,0.0,0,False
2023-10-12,0.9002160912706848,0.9002160912706848,0.0,0,False
2023-10-13,0.9002160912706848,0.9002160912706848,0.0,0,False
2023-10-14,0.9002160912706848,0.9002160912706848,0.0,0,False
2023-10-15,0.9002160912706848,0.9002160912706848,0.0,0,False
2023-10-16,0.9002160912706848,0.9002160912706848,0.0,0,False
2023-10-17,0.9002160912706848,0.9002160912706848,0.0,0,False
2023-10-18,0.9002160912706848,0.9002160912706848,0.0,0,False
2023-10-19,0.9002160912706848,0.9002160912706848,0.0,0,False
2023-10-20,0.9002160912706848,0.9002160912706848,0.0,0,False
2023-10-21,0.9002160912706848,0.9002160912706848,0.0,0,False
2023-10-22,0.9002160912706848,0.9002160912706848,0.0,0,False
2023-10-23,0.9002160912706848,0.9002160912706848,0.0,0,False
2023-10-24,0.9002160912706848,0.9002160912706848,0.0,0,False
2023-10-25,0.9002160912706848,0.9002160912706848,0.0,0,False
2023-10-26,0.9002160912706848,0.9002160912706848,0.0,0,False
2023-10-27,0.9002160912706848,0.9002160912706848,0.0,0,False
2023-10-28,0.9002160912706848,0.9002160912706848,0.0,0,False
2023-10-29,0.9002160912706848,0.9002160912706848,0.0,0,False
2023-10-30,0.9002160912706848,0.9002160912706848,0.0,0,False
2023-10-31,0.9002160912706848,0.9002160912706848,0.0,0,False
2023-11-01,0.9002160912706848,0.9002160912706848,0.0,0,False
2023-11-02,0.9002160912706848,0.9002160912706848,0.0,0,False
2023-11-03,0.9002160912706848,0.9002160912706848,0.0,0,False
2023-11-04,0.9002160912706848,0.9002160912706848,0.0,0,False
2023-11-05,0.9002160912706848,0.9002160912706848,0.0,0,False
2023-11-06,0.9002160912706848,0.9002160912706848,0.0,0,False
2023-11-07,0.9002160912706848,0.9002160912706848,0.0,0,False
2023-11-08,0.9002160912706848,0.9002160912706848,0.0,0,False
2023-11-09,0.9002160912706848,0.9002160912706848,0.0,0,False
2023-11-10,0.9002160912706848,0.9002160912706848,0.0,0,False
2023-11-11,0.9002160912706848,0.9002160912706848,0.0,0,False
2023-11-12,0.9002160912706848,0.9002160912706848,0.0,0,False
2023-11-13,0.9002160912706848,0.9002160912706848,0.0,0,False
2023-11-14,0.9002160912706848,0.9002160912706848,0.0,0,False
2023-11-15,0.9002160912706848,0.9002160912706848,0.0,0,False
2023-11-16,0.9002160912706848,0.9002160912706848,0.0,0,False
2023-11-17,0.9002160912706848,0.9002160912706848,0.0,0,False
2023-11-18,0.9002160912706848,0.9002160912706848,0.0,0,False
2023-11-19,0.9002160912706848,0.9002160912706848,0.0,0,False
2023-11-20,0.9002160912706848,0.9002160912706848,0.0,0,False
2023-11-21,0.9002160912706848,0.9002160912706848,0.0,0,False
2023-11-22,0.9002160912706848,0.9002160912706848,0.0,0,False
2023-11-23,0.9002160912706848,0.9002160912706848,0.0,0,False
2023-11-24,0.9002160912706848,0.9002160912706848,0.0,0,False
2023-11-25,0.9002160912706848,0.9002160912706848,0.0,0,False
2023-11-26,0.9002160912706848,0.9002160912706848,0.0,0,False
2023-11-27,0.9002160912706848,0.9002160912706848,0.0,0,False
2023-11-28,0.9002160912706848,0.9002160912706848,0.0,0,False
2023-11-29,0.9002160912706848,0.9002160912706848,0.0,0,False
2023-11-30,0.9002160912706848,0.9002160912706848,0.0,0,False
2023-12-01,0.9002160912706848,0.9002160912706848,0.0,0,False
2023-12-02,0.9002160912706848,0.9002160912706848,0.0,0,False
2023-12-03,0.9002160912706848,0.9002160912706848,0.0,0,False
2023-12-04,0.9002160912706848,0.9002160912706848,0.0,0,False
2023-12-05,0.9002160912706848,0.9002160912706848,0.0,0,False
2023-12-06,0.9002160912706848,0.9002160912706848,0.0,0,False
2023-12-07,0.9002160912706848,0.9002160912706848,0.0,0,False
2023-12-08,0.9002160912706848,0.9002160912706848,0.0,0,False
2023-12-09,0.9002160912706848,0.9002160912706848,0.0,0,False
2023-12-10,0.9002160912706848,0.9002160912706848,0.0,0,False
2023-12-11,0.9002160912706848,0.9002160912706848,0.0,0,False
2023-12-12,0.9002160912706848,0.9002160912706848,0.0,0,False
2023-12-13,0.9002160912706848,0.9002160912706848,0.0,0,False
2023-12-14,0.9002160912706848,0.9002160912706848,0.0,0,False
2023-12-15,0.9002160912706848,0.9002160912706848,0.0,0,False
2023-12-16,0.9002160912706848,0.9002160912706848,0.0,0,False
2023-12-17,0.9002160912706848,0.9002160912706848,0.0,0,False
2023-12-18,0.9002160912706848,0.9002160912706848,0.0,0,False
2023-12-19,0.9002160912706848,0.9002160912706848,0.0,0,False
2023-12-20,0.9002160912706848,0.9002160912706848,0.0,0,False
2023-12-21,0.9002160912706848,0.9002160912706848,0.0,0,False
2023-12-22,0.9002160912706848,0.9002160912706848,0.0,0,False
2023-12-23,0.9002160912706848,0.9002160912706848,0.0,0,False
2023-12-24,0.9002160912706848,0.9002160912706848,0.0,0,False
2023-12-25,0.9002160912706848,0.9002160912706848,0.0,0,False
2023-12-26,0.9002160912706848,0.9002160912706848,0.0,0,False
2023-12-27,0.9002160912706848,0.9002160912706848,0.0,0,False
2023-12-28,0.9002160912706848,0.9002160912706848,0.0,0,False
2023-12-29,0.9002160912706848,0.9002160912706848,0.0,0,False
2023-12-30,0.9002160912706848,0.9002160912706848,0.0,0,False
2023-12-31,0.9002160912706848,0.9002160912706848,0.0,0,False
