day,start_equity,end_equity,return_pct,entries,active
2024-01-02,1.0,1.0,0.0,0,False
2024-01-03,1.0,0.9935142824198505,-0.6485717580149486,6,True
2024-01-04,0.9935142824198505,0.9988284641940535,0.5348873054204617,2,True
2024-01-05,0.9988284641940535,0.9968948699435509,-0.19358621823645228,1,True
2024-01-06,0.9968948699435509,0.9968448976766661,-0.00501279205977756,2,True
2024-01-07,0.9968448976766661,0.9950354354999302,-0.18151892846651752,1,True
2024-01-08,0.9950354354999302,0.999929013914495,0.49179941135524263,3,True
2024-01-09,0.999929013914495,1.0154735778982342,1.5545667509822447,0,True
2024-01-10,1.0154735778982342,1.0154735778982342,0.0,0,False
2024-01-11,1.0154735778982342,1.0163023138216882,0.08161078155959345,1,True
2024-01-12,1.0163023138216882,1.0144787672994011,-0.17942953562999353,2,True
2024-01-13,1.0144787672994011,1.0187631318689967,0.4223217584928607,4,True
2024-01-14,1.0187631318689967,1.0237295793986243,0.48749776805490086,0,True
2024-01-15,1.0237295793986243,1.0237295793986243,0.0,0,False
2024-01-16,1.0237295793986243,1.023404855481102,-0.03171969669110153,1,True
2024-01-17,1.023404855481102,1.0277898790478102,0.42847398497507516,0,True
2024-01-18,1.0277898790478102,1.0277898790478102,0.0,0,False
2024-01-19,1.0277898790478102,1.0277898790478102,0.0,0,False
2024-01-20,1.0277898790478102,1.042302585332057,1.412030472385295,6,True
2024-01-21,1.042302585332057,1.044567329063494,0.2172827510271702,0,True
2024-01-22,1.044567329063494,1.044567329063494,0.0,0,False
2024-01-23,1.044567329063494,1.022396033580072,-2.1225338823587125,8,True
2024-01-24,1.022396033580072,1.022396033580072,0.0,0,False
2024-01-25,1.022396033580072,1.017293462232723,-0.4990797283789816,1,True
2024-01-26,1.017293462232723,1.017293462232723,0.0,0,False
2024-01-27,1.017293462232723,1.017293462232723,0.0,0,False
2024-01-28,1.017293462232723,1.0163648082939523,-0.09128673025505796,1,True
2024-01-29,1.0163648082939523,1.0163648082939523,0.0,0,False
2024-01-30,1.0163648082939523,1.0163648082939523,0.0,0,False
2024-01-31,1.0163648082939523,1.0112877554270414,-0.49953056476178537,1,True
2024-02-01,1.0112877554270414,1.0112877554270414,0.0,0,False
2024-02-02,1.0112877554270414,1.0110835752391278,-0.020190117680929376,2,True
2024-02-03,1.0110835752391278,1.0193916532104206,0.8217004187144328,1,True
2024-02-04,1.0193916532104206,1.01776085280788,-0.1599778061164736,1,True
2024-02-05,1.01776085280788,1.01776085280788,0.0,0,False
2024-02-06,1.01776085280788,1.0126799562470579,-0.49922302933981255,1,True
2024-02-07,1.0126799562470579,1.0123445732615293,-0.03311835920714046,3,True
2024-02-08,1.0123445732615293,1.0242255923097774,1.1736141391038846,0,True
2024-02-09,1.0242255923097774,1.0242255923097774,0.0,0,False
2024-02-10,1.0242255923097774,1.0242255923097774,0.0,0,False
2024-02-11,1.0242255923097774,1.0242255923097774,0.0,0,False
2024-02-12,1.0242255923097774,1.0242255923097774,0.0,0,False
2024-02-13,1.0242255923097774,1.0242255923097774,0.0,0,False
2024-02-14,1.0242255923097774,1.0255648043256251,0.1307536177481694,1,True
2024-02-15,1.0255648043256251,1.0230043761984915,-0.24966029609579943,0,True
2024-02-16,1.0230043761984915,1.0282221013417763,0.5100393766323874,1,True
2024-02-17,1.0282221013417763,1.0243004230426276,-0.38140381285629577,2,True
2024-02-18,1.0243004230426276,1.02467853065248,0.03691374145187165,0,True
2024-02-19,1.02467853065248,1.02467853065248,0.0,0,False
2024-02-20,1.02467853065248,1.0267008491624865,0.19736126497340578,7,True
2024-02-21,1.0267008491624865,1.0119517449068796,-1.4365532343367904,5,True
2024-02-22,1.0119517449068796,1.0358813846489212,2.3647016631453743,2,True
2024-02-23,1.0358813846489212,1.0425287709714515,0.6417130784508895,1,True
2024-02-24,1.0425287709714515,1.0497392819472433,0.691636641267257,2,True
2024-02-25,1.0497392819472433,1.0475718007776162,-0.2064780471591421,1,True
2024-02-26,1.0475718007776162,1.052926695291733,0.5111720752832394,0,True
2024-02-27,1.052926695291733,1.052086433161429,-0.07980252889981942,1,True
2024-02-28,1.052086433161429,1.0521458489219817,0.005647421987386991,1,True
2024-02-29,1.0521458489219817,1.0729650643410378,1.9787385408959413,5,True
2024-03-01,1.0729650643410378,1.0686863702794611,-0.39877291477373733,1,True
2024-03-02,1.0686863702794611,1.0682564000147308,-0.04023353124807949,1,True
2024-03-03,1.0682564000147308,1.071743104201685,0.32639207093971834,6,True
2024-03-04,1.071743104201685,1.1000902804958408,2.6449599892943487,0,True
2024-03-05,1.1000902804958408,1.092839072845675,-0.6591465972136001,5,True
2024-03-06,1.092839072845675,1.0672544170076714,-2.3411183287382786,3,True
2024-03-07,1.0672544170076714,1.0672544170076714,0.0,0,False
2024-03-08,1.0672544170076714,1.0681676209808293,0.08556572440507892,2,True
2024-03-09,1.0681676209808293,1.0656592722169125,-0.23482726068906334,3,True
2024-03-10,1.0656592722169125,1.0784653928248442,1.2017087395383763,2,True
2024-03-11,1.0784653928248442,1.0709166240552341,-0.6999546596333062,0,True
2024-03-12,1.0709166240552341,1.0669621939423706,-0.3692565811416193,1,True
2024-03-13,1.0669621939423706,1.0714163986525669,0.4174660297698418,2,True
2024-03-14,1.0714163986525669,1.0807711803267956,0.8731228760352705,1,True
2024-03-15,1.0807711803267956,1.0588738870184007,-2.0260804235891827,6,True
2024-03-16,1.0588738870184007,1.0568308353777882,-0.1929457006787927,1,True
2024-03-17,1.0568308353777882,1.0336741638880709,-2.1911426800335088,4,True
2024-03-18,1.0336741638880709,1.0336741638880709,0.0,0,False
2024-03-19,1.0336741638880709,1.0123092096396447,-2.066894481338677,7,True
2024-03-20,1.0123092096396447,1.0123092096396447,0.0,0,False
2024-03-21,1.0123092096396447,1.0153528227821862,0.3006604220883169,2,True
2024-03-22,1.0153528227821862,1.016167536969879,0.0802395157045499,0,True
2024-03-23,1.016167536969879,1.0179448943996185,0.1749079128269937,1,True
2024-03-24,1.0179448943996185,1.0155922350708895,-0.23111853516556424,2,True
2024-03-25,1.0155922350708895,1.0238980479366542,0.8178294968142374,2,True
2024-03-26,1.0238980479366542,1.037966072488804,1.373967318377023,2,True
2024-03-27,1.037966072488804,1.0320943875865978,-0.5656914091736409,3,True
2024-03-28,1.0320943875865978,1.0277853167677018,-0.41750743640531773,0,True
2024-03-29,1.0277853167677018,1.0167935552690368,-1.069460841611669,4,True
2024-03-30,1.0167935552690368,1.0166821734802045,-0.01095421860761725,0,True
2024-03-31,1.0166821734802045,1.0166821734802045,0.0,0,False
2024-04-01,1.0166821734802045,1.0155825820607842,-0.10815488341417989,4,True
2024-04-02,1.0155825820607842,0.9947512486384964,-2.051170804841651,5,True
2024-04-03,0.9947512486384964,0.9897853660049465,-0.4992084845680367,1,True
2024-04-04,0.9897853660049465,0.9895505433868498,-0.023724599914476396,1,True
2024-04-05,0.9895505433868498,0.9823567155640841,-0.7269793211515996,3,True
2024-04-06,0.9823567155640841,0.9822256542100821,-0.013341523697607549,1,True
2024-04-07,0.9822256542100821,0.9898367214318545,0.774879701945208,1,True
2024-04-08,0.9898367214318545,0.9858717674275279,-0.40056646904259585,0,True
2024-04-09,0.9858717674275279,0.9834129217223623,-0.24940826853999676,1,True
2024-04-10,0.9834129217223623,0.9780335138128374,-0.5470141576036314,5,True
2024-04-11,0.9780335138128374,0.9826497908016247,0.4719957878325465,1,True
2024-04-12,0.9826497908016247,0.9809926603633019,-0.16863896515675325,3,True
2024-04-13,0.9809926603633019,0.9677613755068327,-1.3487649185437434,7,True
2024-04-14,0.9677613755068327,0.9428518644260533,-2.5739311064914006,10,True
2024-04-15,0.9428518644260533,0.9428518644260533,0.0,0,False
2024-04-16,0.9428518644260533,0.9428518644260533,0.0,0,False
2024-04-17,0.9428518644260533,0.9428518644260533,0.0,0,False
2024-04-18,0.9428518644260533,0.9428518644260533,0.0,0,False
2024-04-19,0.9428518644260533,0.9361520634843955,-0.7105889264732101,4,True
2024-04-20,0.9361520634843955,0.9361520634843955,0.0,0,False
2024-04-21,0.9361520634843955,0.9361520634843955,0.0,0,False
2024-04-22,0.9361520634843955,0.9361520634843955,0.0,0,False
2024-04-23,0.9361520634843955,0.9361520634843955,0.0,0,False
2024-04-24,0.9361520634843955,0.9361520634843955,0.0,0,False
2024-04-25,0.9361520634843955,0.9361520634843955,0.0,0,False
2024-04-26,0.9361520634843955,0.9361520634843955,0.0,0,False
2024-04-27,0.9361520634843955,0.9361520634843955,0.0,0,False
2024-04-28,0.9361520634843955,0.9361520634843955,0.0,0,False
2024-04-29,0.9361520634843955,0.9361520634843955,0.0,0,False
2024-04-30,0.9361520634843955,0.9361520634843955,0.0,0,False
2024-05-01,0.9361520634843955,0.9361520634843955,0.0,0,False
2024-05-02,0.9361520634843955,0.9361520634843955,0.0,0,False
2024-05-03,0.9361520634843955,0.9361520634843955,0.0,0,False
2024-05-04,0.9361520634843955,0.9361520634843955,0.0,0,False
2024-05-05,0.9361520634843955,0.9361520634843955,0.0,0,False
2024-05-06,0.9361520634843955,0.9361520634843955,0.0,0,False
2024-05-07,0.9361520634843955,0.9361520634843955,0.0,0,False
2024-05-08,0.9361520634843955,0.9361520634843955,0.0,0,False
2024-05-09,0.9361520634843955,0.9361520634843955,0.0,0,False
2024-05-10,0.9361520634843955,0.9361520634843955,0.0,0,False
2024-05-11,0.9361520634843955,0.9361520634843955,0.0,0,False
2024-05-12,0.9361520634843955,0.9361520634843955,0.0,0,False
2024-05-13,0.9361520634843955,0.9361520634843955,0.0,0,False
2024-05-14,0.9361520634843955,0.9361520634843955,0.0,0,False
2024-05-15,0.9361520634843955,0.9361520634843955,0.0,0,False
2024-05-16,0.9361520634843955,0.9361520634843955,0.0,0,False
2024-05-17,0.9361520634843955,0.9361520634843955,0.0,0,False
2024-05-18,0.9361520634843955,0.9361520634843955,0.0,0,False
2024-05-19,0.9361520634843955,0.9361520634843955,0.0,0,False
2024-05-20,0.9361520634843955,0.9361520634843955,0.0,0,False
2024-05-21,0.9361520634843955,0.9361520634843955,0.0,0,False
2024-05-22,0.9361520634843955,0.9361520634843955,0.0,0,False
2024-05-23,0.9361520634843955,0.9361520634843955,0.0,0,False
2024-05-24,0.9361520634843955,0.9361520634843955,0.0,0,False
2024-05-25,0.9361520634843955,0.9361520634843955,0.0,0,False
2024-05-26,0.9361520634843955,0.9361520634843955,0.0,0,False
2024-05-27,0.9361520634843955,0.9361520634843955,0.0,0,False
2024-05-28,0.9361520634843955,0.9361520634843955,0.0,0,False
2024-05-29,0.9361520634843955,0.9361520634843955,0.0,0,False
2024-05-30,0.9361520634843955,0.9361520634843955,0.0,0,False
2024-05-31,0.9361520634843955,0.9361520634843955,0.0,0,False
2024-06-01,0.9361520634843955,0.9361520634843955,0.0,0,False
2024-06-02,0.9361520634843955,0.9361520634843955,0.0,0,False
2024-06-03,0.9361520634843955,0.9361520634843955,0.0,0,False
2024-06-04,0.9361520634843955,0.9361520634843955,0.0,0,False
2024-06-05,0.9361520634843955,0.9361520634843955,0.0,0,False
2024-06-06,0.9361520634843955,0.9361520634843955,0.0,0,False
2024-06-07,0.9361520634843955,0.9361520634843955,0.0,0,False
2024-06-08,0.9361520634843955,0.9361520634843955,0.0,0,False
2024-06-09,0.9361520634843955,0.9361520634843955,0.0,0,False
2024-06-10,0.9361520634843955,0.9361520634843955,0.0,0,False
2024-06-11,0.9361520634843955,0.9361520634843955,0.0,0,False
2024-06-12,0.9361520634843955,0.9361520634843955,0.0,0,False
2024-06-13,0.9361520634843955,0.9361520634843955,0.0,0,False
2024-06-14,0.9361520634843955,0.9361520634843955,0.0,0,False
2024-06-15,0.9361520634843955,0.9361520634843955,0.0,0,False
2024-06-16,0.9361520634843955,0.9361520634843955,0.0,0,False
2024-06-17,0.9361520634843955,0.9361520634843955,0.0,0,False
2024-06-18,0.9361520634843955,0.9361520634843955,0.0,0,False
2024-06-19,0.9361520634843955,0.9361520634843955,0.0,0,False
2024-06-20,0.9361520634843955,0.9361520634843955,0.0,0,False
2024-06-21,0.9361520634843955,0.9361520634843955,0.0,0,False
2024-06-22,0.9361520634843955,0.9361520634843955,0.0,0,False
2024-06-23,0.9361520634843955,0.9361520634843955,0.0,0,False
2024-06-24,0.9361520634843955,0.9361520634843955,0.0,0,False
2024-06-25,0.9361520634843955,0.9361520634843955,0.0,0,False
2024-06-26,0.9361520634843955,0.9361520634843955,0.0,0,False
2024-06-27,0.9361520634843955,0.9361520634843955,0.0,0,False
2024-06-28,0.9361520634843955,0.9361520634843955,0.0,0,False
2024-06-29,0.9361520634843955,0.9361520634843955,0.0,0,False
2024-06-30,0.9361520634843955,0.9361520634843955,0.0,0,False
2024-07-01,0.9361520634843955,0.9361520634843955,0.0,0,False
2024-07-02,0.9361520634843955,0.9361520634843955,0.0,0,False
2024-07-03,0.9361520634843955,0.9361520634843955,0.0,0,False
2024-07-04,0.9361520634843955,0.9361520634843955,0.0,0,False
2024-07-05,0.9361520634843955,0.9361520634843955,0.0,0,False
2024-07-06,0.9361520634843955,0.9361520634843955,0.0,0,False
2024-07-07,0.9361520634843955,0.9361520634843955,0.0,0,False
2024-07-08,0.9361520634843955,0.9361520634843955,0.0,0,False
2024-07-09,0.9361520634843955,0.9361520634843955,0.0,0,False
2024-07-10,0.9361520634843955,0.9361520634843955,0.0,0,False
2024-07-11,0.9361520634843955,0.9361520634843955,0.0,0,False
2024-07-12,0.9361520634843955,0.9361520634843955,0.0,0,False
2024-07-13,0.9361520634843955,0.9361520634843955,0.0,0,False
2024-07-14,0.9361520634843955,0.9361520634843955,0.0,0,False
2024-07-15,0.9361520634843955,0.9361520634843955,0.0,0,False
2024-07-16,0.9361520634843955,0.9361520634843955,0.0,0,False
2024-07-17,0.9361520634843955,0.9361520634843955,0.0,0,False
2024-07-18,0.9361520634843955,0.9361520634843955,0.0,0,False
2024-07-19,0.9361520634843955,0.9361520634843955,0.0,0,False
2024-07-20,0.9361520634843955,0.9361520634843955,0.0,0,False
2024-07-21,0.9361520634843955,0.9361520634843955,0.0,0,False
2024-07-22,0.9361520634843955,0.9361520634843955,0.0,0,False
2024-07-23,0.9361520634843955,0.9361520634843955,0.0,0,False
2024-07-24,0.9361520634843955,0.9361520634843955,0.0,0,False
2024-07-25,0.9361520634843955,0.9361520634843955,0.0,0,False
2024-07-26,0.9361520634843955,0.9361520634843955,0.0,0,False
2024-07-27,0.9361520634843955,0.9361520634843955,0.0,0,False
2024-07-28,0.9361520634843955,0.9361520634843955,0.0,0,False
2024-07-29,0.9361520634843955,0.9361520634843955,0.0,0,False
2024-07-30,0.9361520634843955,0.9361520634843955,0.0,0,False
2024-07-31,0.9361520634843955,0.9361520634843955,0.0,0,False
2024-08-01,0.9361520634843955,0.9361520634843955,0.0,0,False
2024-08-02,0.9361520634843955,0.9361520634843955,0.0,0,False
2024-08-03,0.9361520634843955,0.9361520634843955,0.0,0,False
2024-08-04,0.9361520634843955,0.9361520634843955,0.0,0,False
2024-08-05,0.9361520634843955,0.9361520634843955,0.0,0,False
2024-08-06,0.9361520634843955,0.9361520634843955,0.0,0,False
2024-08-07,0.9361520634843955,0.9361520634843955,0.0,0,False
2024-08-08,0.9361520634843955,0.9361520634843955,0.0,0,False
2024-08-09,0.9361520634843955,0.9361520634843955,0.0,0,False
2024-08-10,0.9361520634843955,0.9361520634843955,0.0,0,False
2024-08-11,0.9361520634843955,0.9361520634843955,0.0,0,False
2024-08-12,0.9361520634843955,0.9361520634843955,0.0,0,False
2024-08-13,0.9361520634843955,0.9361520634843955,0.0,0,False
2024-08-14,0.9361520634843955,0.9361520634843955,0.0,0,False
2024-08-15,0.9361520634843955,0.9361520634843955,0.0,0,False
2024-08-16,0.9361520634843955,0.9361520634843955,0.0,0,False
2024-08-17,0.9361520634843955,0.9361520634843955,0.0,0,False
2024-08-18,0.9361520634843955,0.9361520634843955,0.0,0,False
2024-08-19,0.9361520634843955,0.9361520634843955,0.0,0,False
2024-08-20,0.9361520634843955,0.9361520634843955,0.0,0,False
2024-08-21,0.9361520634843955,0.9361520634843955,0.0,0,False
2024-08-22,0.9361520634843955,0.9361520634843955,0.0,0,False
2024-08-23,0.9361520634843955,0.9361520634843955,0.0,0,False
2024-08-24,0.9361520634843955,0.9361520634843955,0.0,0,False
2024-08-25,0.9361520634843955,0.9361520634843955,0.0,0,False
2024-08-26,0.9361520634843955,0.9361520634843955,0.0,0,False
2024-08-27,0.9361520634843955,0.9361520634843955,0.0,0,False
2024-08-28,0.9361520634843955,0.9361520634843955,0.0,0,False
2024-08-29,0.9361520634843955,0.9361520634843955,0.0,0,False
2024-08-30,0.9361520634843955,0.9361520634843955,0.0,0,False
2024-08-31,0.9361520634843955,0.9361520634843955,0.0,0,False
2024-09-01,0.9361520634843955,0.9361520634843955,0.0,0,False
2024-09-02,0.9361520634843955,0.9361520634843955,0.0,0,False
2024-09-03,0.9361520634843955,0.9361520634843955,0.0,0,False
2024-09-04,0.9361520634843955,0.9361520634843955,0.0,0,False
2024-09-05,0.9361520634843955,0.9361520634843955,0.0,0,False
2024-09-06,0.9361520634843955,0.9361520634843955,0.0,0,False
2024-09-07,0.9361520634843955,0.9361520634843955,0.0,0,False
2024-09-08,0.9361520634843955,0.9361520634843955,0.0,0,False
2024-09-09,0.9361520634843955,0.9361520634843955,0.0,0,False
2024-09-10,0.9361520634843955,0.9361520634843955,0.0,0,False
2024-09-11,0.9361520634843955,0.9361520634843955,0.0,0,False
2024-09-12,0.9361520634843955,0.9361520634843955,0.0,0,False
2024-09-13,0.9361520634843955,0.9361520634843955,0.0,0,False
2024-09-14,0.9361520634843955,0.9361520634843955,0.0,0,False
2024-09-15,0.9361520634843955,0.9361520634843955,0.0,0,False
2024-09-16,0.9361520634843955,0.9361520634843955,0.0,0,False
2024-09-17,0.9361520634843955,0.9361520634843955,0.0,0,False
2024-09-18,0.9361520634843955,0.9361520634843955,0.0,0,False
2024-09-19,0.9361520634843955,0.9361520634843955,0.0,0,False
2024-09-20,0.9361520634843955,0.9361520634843955,0.0,0,False
2024-09-21,0.9361520634843955,0.9361520634843955,0.0,0,False
2024-09-22,0.9361520634843955,0.9361520634843955,0.0,0,False
2024-09-23,0.9361520634843955,0.9361520634843955,0.0,0,False
2024-09-24,0.9361520634843955,0.9361520634843955,0.0,0,False
2024-09-25,0.9361520634843955,0.9361520634843955,0.0,0,False
2024-09-26,0.9361520634843955,0.9361520634843955,0.0,0,False
2024-09-27,0.9361520634843955,0.9361520634843955,0.0,0,False
2024-09-28,0.9361520634843955,0.9361520634843955,0.0,0,False
2024-09-29,0.9361520634843955,0.9361520634843955,0.0,0,False
2024-09-30,0.9361520634843955,0.9361520634843955,0.0,0,False
2024-10-01,0.9361520634843955,0.9361520634843955,0.0,0,False
2024-10-02,0.9361520634843955,0.9361520634843955,0.0,0,False
2024-10-03,0.9361520634843955,0.9361520634843955,0.0,0,False
2024-10-04,0.9361520634843955,0.9361520634843955,0.0,0,False
2024-10-05,0.9361520634843955,0.9361520634843955,0.0,0,False
2024-10-06,0.9361520634843955,0.9361520634843955,0.0,0,False
2024-10-07,0.9361520634843955,0.9361520634843955,0.0,0,False
2024-10-08,0.9361520634843955,0.9361520634843955,0.0,0,False
2024-10-09,0.9361520634843955,0.9361520634843955,0.0,0,False
2024-10-10,0.9361520634843955,0.9361520634843955,0.0,0,False
2024-10-11,0.9361520634843955,0.9361520634843955,0.0,0,False
2024-10-12,0.9361520634843955,0.9361520634843955,0.0,0,False
2024-10-13,0.9361520634843955,0.9361520634843955,0.0,0,False
2024-10-14,0.9361520634843955,0.9361520634843955,0.0,0,False
2024-10-15,0.9361520634843955,0.9361520634843955,0.0,0,False
2024-10-16,0.9361520634843955,0.9361520634843955,0.0,0,False
2024-10-17,0.9361520634843955,0.9361520634843955,0.0,0,False
2024-10-18,0.9361520634843955,0.9361520634843955,0.0,0,False
2024-10-19,0.9361520634843955,0.9361520634843955,0.0,0,False
2024-10-20,0.9361520634843955,0.9361520634843955,0.0,0,False
2024-10-21,0.9361520634843955,0.9361520634843955,0.0,0,False
2024-10-22,0.9361520634843955,0.9361520634843955,0.0,0,False
2024-10-23,0.9361520634843955,0.9361520634843955,0.0,0,False
2024-10-24,0.9361520634843955,0.9361520634843955,0.0,0,False
2024-10-25,0.9361520634843955,0.9361520634843955,0.0,0,False
2024-10-26,0.9361520634843955,0.9361520634843955,0.0,0,False
2024-10-27,0.9361520634843955,0.9361520634843955,0.0,0,False
2024-10-28,0.9361520634843955,0.9361520634843955,0.0,0,False
2024-10-29,0.9361520634843955,0.9361520634843955,0.0,0,False
2024-10-30,0.9361520634843955,0.9361520634843955,0.0,0,False
2024-10-31,0.9361520634843955,0.9361520634843955,0.0,0,False
2024-11-01,0.9361520634843955,0.9361520634843955,0.0,0,False
2024-11-02,0.9361520634843955,0.9361520634843955,0.0,0,False
2024-11-03,0.9361520634843955,0.9361520634843955,0.0,0,False
2024-11-04,0.9361520634843955,0.9361520634843955,0.0,0,False
2024-11-05,0.9361520634843955,0.9361520634843955,0.0,0,False
2024-11-06,0.9361520634843955,0.9361520634843955,0.0,0,False
2024-11-07,0.9361520634843955,0.9361520634843955,0.0,0,False
2024-11-08,0.9361520634843955,0.9361520634843955,0.0,0,False
2024-11-09,0.9361520634843955,0.9361520634843955,0.0,0,False
2024-11-10,0.9361520634843955,0.9361520634843955,0.0,0,False
2024-11-11,0.9361520634843955,0.9361520634843955,0.0,0,False
2024-11-12,0.9361520634843955,0.9361520634843955,0.0,0,False
2024-11-13,0.9361520634843955,0.9361520634843955,0.0,0,False
2024-11-14,0.9361520634843955,0.9361520634843955,0.0,0,False
2024-11-15,0.9361520634843955,0.9361520634843955,0.0,0,False
2024-11-16,0.9361520634843955,0.9361520634843955,0.0,0,False
2024-11-17,0.9361520634843955,0.9361520634843955,0.0,0,False
2024-11-18,0.9361520634843955,0.9361520634843955,0.0,0,False
2024-11-19,0.9361520634843955,0.9361520634843955,0.0,0,False
2024-11-20,0.9361520634843955,0.9361520634843955,0.0,0,False
2024-11-21,0.9361520634843955,0.9361520634843955,0.0,0,False
2024-11-22,0.9361520634843955,0.9361520634843955,0.0,0,False
2024-11-23,0.9361520634843955,0.9361520634843955,0.0,0,False
2024-11-24,0.9361520634843955,0.9361520634843955,0.0,0,False
2024-11-25,0.9361520634843955,0.9361520634843955,0.0,0,False
2024-11-26,0.9361520634843955,0.9361520634843955,0.0,0,False
2024-11-27,0.9361520634843955,0.9361520634843955,0.0,0,False
2024-11-28,0.9361520634843955,0.9361520634843955,0.0,0,False
2024-11-29,0.9361520634843955,0.9361520634843955,0.0,0,False
2024-11-30,0.9361520634843955,0.9361520634843955,0.0,0,False
2024-12-01,0.9361520634843955,0.9361520634843955,0.0,0,False
2024-12-02,0.9361520634843955,0.9361520634843955,0.0,0,False
2024-12-03,0.9361520634843955,0.9361520634843955,0.0,0,False
2024-12-04,0.9361520634843955,0.9361520634843955,0.0,0,False
2024-12-05,0.9361520634843955,0.9361520634843955,0.0,0,False
2024-12-06,0.9361520634843955,0.9361520634843955,0.0,0,False
2024-12-07,0.9361520634843955,0.9361520634843955,0.0,0,False
2024-12-08,0.9361520634843955,0.9361520634843955,0.0,0,False
2024-12-09,0.9361520634843955,0.9361520634843955,0.0,0,False
2024-12-10,0.9361520634843955,0.9361520634843955,0.0,0,False
2024-12-11,0.9361520634843955,0.9361520634843955,0.0,0,False
2024-12-12,0.9361520634843955,0.9361520634843955,0.0,0,False
2024-12-13,0.9361520634843955,0.9361520634843955,0.0,0,False
2024-12-14,0.9361520634843955,0.9361520634843955,0.0,0,False
2024-12-15,0.9361520634843955,0.9361520634843955,0.0,0,False
2024-12-16,0.9361520634843955,0.9361520634843955,0.0,0,False
2024-12-17,0.9361520634843955,0.9361520634843955,0.0,0,False
2024-12-18,0.9361520634843955,0.9361520634843955,0.0,0,False
2024-12-19,0.9361520634843955,0.9361520634843955,0.0,0,False
2024-12-20,0.9361520634843955,0.9361520634843955,0.0,0,False
2024-12-21,0.9361520634843955,0.9361520634843955,0.0,0,False
2024-12-22,0.9361520634843955,0.9361520634843955,0.0,0,False
2024-12-23,0.9361520634843955,0.9361520634843955,0.0,0,False
2024-12-24,0.9361520634843955,0.9361520634843955,0.0,0,False
2024-12-25,0.9361520634843955,0.9361520634843955,0.0,0,False
2024-12-26,0.9361520634843955,0.9361520634843955,0.0,0,False
2024-12-27,0.9361520634843955,0.9361520634843955,0.0,0,False
2024-12-28,0.9361520634843955,0.9361520634843955,0.0,0,False
2024-12-29,0.9361520634843955,0.9361520634843955,0.0,0,False
2024-12-30,0.9361520634843955,0.9361520634843955,0.0,0,False
2024-12-31,0.9361520634843955,0.9361520634843955,0.0,0,False
