day,start_equity,end_equity,return_pct,entries,active
2024-01-02,1.0,1.0,0.0,0,False
2024-01-03,1.0,0.9927789230118099,-0.7221076988190078,6,True
2024-01-04,0.9927789230118099,0.9952869573600038,0.2526276787369053,1,True
2024-01-05,0.9952869573600038,0.9940619341151123,-0.12308241716950663,1,True
2024-01-06,0.9940619341151123,0.9944078680338682,0.03480003678681953,2,True
2024-01-07,0.9944078680338682,0.9905576832519126,-0.38718366031919027,1,True
2024-01-08,0.9905576832519126,0.9948850056531189,0.436857184025885,3,True
2024-01-09,0.9948850056531189,1.0100628055034777,1.525583335170988,0,True
2024-01-10,1.0100628055034777,1.0100628055034777,0.0,0,False
2024-01-11,1.0100628055034777,1.010734306371624,0.06648110043134814,1,True
2024-01-12,1.010734306371624,1.0034918739958223,-0.7165515536720068,2,True
2024-01-13,1.0034918739958223,1.0081931498529488,0.46849167182654305,4,True
2024-01-14,1.0081931498529488,1.011119624025361,0.29026919820265284,0,True
2024-01-15,1.011119624025361,1.011119624025361,0.0,0,False
2024-01-16,1.011119624025361,1.0106709932729945,-0.04436970084513714,1,True
2024-01-17,1.0106709932729945,1.0123718062201423,0.16828552105170314,0,True
2024-01-18,1.0123718062201423,1.0123718062201423,0.0,0,False
2024-01-19,1.0123718062201423,1.0123718062201423,0.0,0,False
2024-01-20,1.0123718062201423,1.0249908584534375,1.2464839652548632,6,True
2024-01-21,1.0249908584534375,1.0272778442277848,0.22312255328773567,0,True
2024-01-22,1.0272778442277848,1.0272778442277848,0.0,0,False
2024-01-23,1.0272778442277848,1.005370060675715,-2.1326054752536905,8,True
2024-01-24,1.005370060675715,1.0178323442989192,1.2395717866144018,0,True
2024-01-25,1.0178323442989192,1.0162439799781737,-0.15605363001502948,1,True
2024-01-26,1.0162439799781737,1.0162439799781737,0.0,0,False
2024-01-27,1.0162439799781737,1.0162439799781737,0.0,0,False
2024-01-28,1.0162439799781737,1.0162439799781737,0.0,0,False
2024-01-29,1.0162439799781737,1.0162439799781737,0.0,0,False
2024-01-30,1.0162439799781737,1.0162439799781737,0.0,0,False
2024-01-31,1.0162439799781737,1.0117856683529536,-0.4387048497267232,1,True
2024-02-01,1.0117856683529536,1.0117856683529536,0.0,0,False
2024-02-02,1.0117856683529536,1.0113054049294368,-0.04746691305665962,2,True
2024-02-03,1.0113054049294368,1.0192326317769262,0.7838608207619169,1,True
2024-02-04,1.0192326317769262,1.0175012323708823,-0.1698728388459636,1,True
2024-02-05,1.0175012323708823,1.0175012323708823,0.0,0,False
2024-02-06,1.0175012323708823,1.0124304788105114,-0.49835355467389153,1,True
2024-02-07,1.0124304788105114,1.010084376490245,-0.23172972064441355,3,True
2024-02-08,1.010084376490245,1.0185337904318945,0.8365057551933397,0,True
2024-02-09,1.0185337904318945,1.0185337904318945,0.0,0,False
2024-02-10,1.0185337904318945,1.0185337904318945,0.0,0,False
2024-02-11,1.0185337904318945,1.0185337904318945,0.0,0,False
2024-02-12,1.0185337904318945,1.0185337904318945,0.0,0,False
2024-02-13,1.0185337904318945,1.0185337904318945,0.0,0,False
2024-02-14,1.0185337904318945,1.0196830959614804,0.11283921460265578,1,True
2024-02-15,1.0196830959614804,1.0203386656616338,0.06429151397622235,0,True
2024-02-16,1.0203386656616338,1.0252985682334321,0.486103559408102,1,True
2024-02-17,1.0252985682334321,1.0219289777650469,-0.3286448038439138,2,True
2024-02-18,1.0219289777650469,1.0233845312600975,0.14243196217353926,0,True
2024-02-19,1.0233845312600975,1.0233845312600975,0.0,0,False
2024-02-20,1.0233845312600975,1.0246871100857569,0.1272814651649412,7,True
2024-02-21,1.0246871100857569,1.0192054785587668,-0.5349566197364708,6,True
2024-02-22,1.0192054785587668,1.0436966419692197,2.402966224738634,3,True
2024-02-23,1.0436966419692197,1.0441545216579633,0.043870955441582815,1,True
2024-02-24,1.0441545216579633,1.0403183944006928,-0.36739076235375867,3,True
2024-02-25,1.0403183944006928,1.036724312222049,-0.3454790569875743,1,True
2024-02-26,1.036724312222049,1.0418822745381888,0.49752496930302037,0,True
2024-02-27,1.0418822745381888,1.041579056481191,-0.029102909648037745,1,True
2024-02-28,1.041579056481191,1.0414684921804533,-0.0106150656591808,1,True
2024-02-29,1.0414684921804533,1.065157701714322,2.274596851631294,5,True
2024-03-01,1.065157701714322,1.0618044042596948,-0.3148169936930567,1,True
2024-03-02,1.0618044042596948,1.0612610654685328,-0.05117126930178628,1,True
2024-03-03,1.0612610654685328,1.0645642772017312,0.31125345503371094,6,True
2024-03-04,1.0645642772017312,1.0781371570077147,1.2749704359477976,0,True
2024-03-05,1.0781371570077147,1.070197473777652,-0.7364260825680646,5,True
2024-03-06,1.070197473777652,1.055516085531015,-1.3718391798117069,5,True
2024-03-07,1.055516085531015,1.054753245269889,-0.07227177980356769,0,True
2024-03-08,1.054753245269889,1.0553433867002895,0.055950662683157404,2,True
2024-03-09,1.0553433867002895,1.0459135433559705,-0.8935331820103531,3,True
2024-03-10,1.0459135433559705,1.043752913092822,-0.20657828525824096,2,True
2024-03-11,1.043752913092822,1.0399145875359765,-0.36774273956006187,0,True
2024-03-12,1.0399145875359765,1.0360383457366957,-0.3727461702855206,1,True
2024-03-13,1.0360383457366957,1.0400298399737224,0.3852651065910484,2,True
2024-03-14,1.0400298399737224,1.034920205628867,-0.4912968982682675,1,True
2024-03-15,1.034920205628867,1.0191021365599762,-1.5284336882068206,11,True
2024-03-16,1.0191021365599762,1.0277188052825705,0.845515715596501,1,True
2024-03-17,1.0277188052825705,1.0127557087374517,-1.4559523936126473,4,True
2024-03-18,1.0127557087374517,1.0127557087374517,0.0,0,False
2024-03-19,1.0127557087374517,1.0030332044866364,-0.9600048824149221,10,True
2024-03-20,1.0030332044866364,1.0006118340797185,-0.24140481053736007,0,True
2024-03-21,1.0006118340797185,1.0021064469460623,0.1493698970408852,2,True
2024-03-22,1.0021064469460623,1.0021064469460623,0.0,0,False
2024-03-23,1.0021064469460623,1.003639079414105,0.1529410845238388,1,True
2024-03-24,1.003639079414105,1.0000881147449545,-0.3538089281281742,2,True
2024-03-25,1.0000881147449545,1.007817848858798,0.7729053070303582,2,True
2024-03-26,1.007817848858798,1.0210589751949168,1.3138412215175865,2,True
2024-03-27,1.0210589751949168,1.0200168069092679,-0.10206739384960306,2,True
2024-03-28,1.0200168069092679,1.0187778067677866,-0.12146860062389742,0,True
2024-03-29,1.0187778067677866,1.0065156038702638,-1.20361896539799,4,True
2024-03-30,1.0065156038702638,1.005618859494454,-0.0890939367816812,0,True
2024-03-31,1.005618859494454,1.005618859494454,0.0,0,False
2024-04-01,1.005618859494454,1.0033835660733759,-0.22228037988486493,4,True
2024-04-02,1.0033835660733759,0.9909363066197052,-1.2405285351026363,5,True
2024-04-03,0.9909363066197052,0.9890983050393076,-0.1854813037043157,1,True
2024-04-04,0.9890983050393076,0.9885223977320081,-0.05822548723067866,1,True
2024-04-05,0.9885223977320081,0.9800044284808888,-0.8616870260767295,3,True
2024-04-06,0.9800044284808888,0.9782033665915311,-0.18378099496443312,1,True
2024-04-07,0.9782033665915311,0.9928692545583017,1.4992677870116822,1,True
2024-04-08,0.9928692545583017,0.9874140537038536,-0.5494379878723255,0,True
2024-04-09,0.9874140537038536,0.9824883531135064,-0.49884853996867706,1,True
2024-04-10,0.9824883531135064,0.9762871499846991,-0.6311731949957045,4,True
2024-04-11,0.9762871499846991,0.9745992215657426,-0.17289261862997174,1,True
2024-04-12,0.9745992215657426,0.9710572585349974,-0.36342764824446316,2,True
2024-04-13,0.9710572585349974,0.9494698020491269,-2.2230879071373,7,True
2024-04-14,0.9494698020491269,0.9089474341158276,-4.267894339119027,13,True
2024-04-15,0.9089474341158276,0.9151490213255498,0.6822822725446986,0,True
2024-04-16,0.9151490213255498,0.9151490213255498,0.0,0,False
2024-04-17,0.9151490213255498,0.9151490213255498,0.0,0,False
2024-04-18,0.9151490213255498,0.9151490213255498,0.0,0,False
2024-04-19,0.9151490213255498,0.9185929186733769,0.3763209343587315,4,True
2024-04-20,0.9185929186733769,0.9162975009979523,-0.24988410304094266,0,True
2024-04-21,0.9162975009979523,0.9162975009979523,0.0,0,False
2024-04-22,0.9162975009979523,0.9162975009979523,0.0,0,False
2024-04-23,0.9162975009979523,0.9179916606028156,0.18489187223780235,1,True
2024-04-24,0.9179916606028156,0.9150356766799937,-0.3220055311701553,1,True
2024-04-25,0.9150356766799937,0.9150356766799937,0.0,0,False
2024-04-26,0.9150356766799937,0.9150356766799937,0.0,0,False
2024-04-27,0.9150356766799937,0.921630272544931,0.7206927590915679,3,True
2024-04-28,0.921630272544931,0.9244275695709085,0.303516183149366,1,True
2024-04-29,0.9244275695709085,0.9263263809136356,0.20540401489848037,2,True
2024-04-30,0.9263263809136356,0.9240623134940174,-0.24441357455298185,2,True
2024-05-01,0.9240623134940174,0.9206586264662979,-0.3683395565445724,3,True
2024-05-02,0.9206586264662979,0.9218058412118283,0.12460804825493721,1,True
2024-05-03,0.9218058412118283,0.9201011992508338,-0.18492418737047212,1,True
2024-05-04,0.9201011992508338,0.9203741010446796,0.0296599758883076,0,True
2024-05-05,0.9203741010446796,0.9183574147088082,-0.21911593705020715,1,True
2024-05-06,0.9183574147088082,0.9183574147088082,0.0,0,False
2024-05-07,0.9183574147088082,0.9230186720450959,0.5075646215330742,2,True
2024-05-08,0.9230186720450959,0.9248609605743146,0.19959385275887254,2,True
2024-05-09,0.9248609605743146,0.920326239763921,-0.49031378809389903,1,True
2024-05-10,0.920326239763921,0.9230976187123802,0.3011300589636612,0,True
2024-05-11,0.9230976187123802,0.9157604078121431,-0.7948466935134846,3,True
2024-05-12,0.9157604078121431,0.915524219265295,-0.025791521978146825,0,True
2024-05-13,0.915524219265295,0.9172925345312827,0.19314784128885432,3,True
2024-05-14,0.9172925345312827,0.9163950890493116,-0.09783634426172583,3,True
2024-05-15,0.9163950890493116,0.9216730980743887,0.5759534384402576,2,True
2024-05-16,0.9216730980743887,0.9305213127337375,0.9600165913310255,0,True
2024-05-17,0.9305213127337375,0.9305213127337375,0.0,0,False
2024-05-18,0.9305213127337375,0.9355538248959673,0.5408271786322638,2,True
2024-05-19,0.9355538248959673,0.9349649689452405,-0.06294196389954321,0,True
2024-05-20,0.9349649689452405,0.9312535112597827,-0.39696221877112414,1,True
2024-05-21,0.9312535112597827,0.925943521815014,-0.5701980589136735,2,True
2024-05-22,0.925943521815014,0.9281837541640883,0.2419404959692395,1,True
2024-05-23,0.9281837541640883,0.9235500110150089,-0.49922691797730234,1,True
2024-05-24,0.9235500110150089,0.9284485992312053,0.5304085493770483,2,True
2024-05-25,0.9284485992312053,0.9281607383848371,-0.03100450004518418,0,True
2024-05-26,0.9281607383848371,0.9294567893559131,0.13963647862669237,2,True
2024-05-27,0.9294567893559131,0.9324920442509081,0.32656223826159625,2,True
2024-05-28,0.9324920442509081,0.937292127734196,0.5147586526750292,1,True
2024-05-29,0.937292127734196,0.9367412842659788,-0.05876966763274094,0,True
2024-05-30,0.9367412842659788,0.9366544952453122,-0.009264993667346122,3,True
2024-05-31,0.9366544952453122,0.9322153932663476,-0.473931636638536,0,True
2024-06-01,0.9322153932663476,0.9301174237950425,-0.2250520090592123,2,True
2024-06-02,0.9301174237950425,0.9384921814887788,0.9003978938020296,0,True
2024-06-03,0.9384921814887788,0.9393612784368851,0.09260566739379694,1,True
2024-06-04,0.9393612784368851,0.9462493711101033,0.733274069448564,3,True
2024-06-05,0.9462493711101033,0.9452931769930351,-0.10105096460423235,0,True
2024-06-06,0.9452931769930351,0.9462906798364923,0.10552311893652355,1,True
2024-06-07,0.9462906798364923,0.9451526899875697,-0.12025795806412942,0,True
2024-06-08,0.9451526899875697,0.9617421231279234,1.7552119690387613,5,True
2024-06-09,0.9617421231279234,0.9617421231279234,0.0,0,False
2024-06-10,0.9617421231279234,0.9617421231279234,0.0,0,False
2024-06-11,0.9617421231279234,0.9618054663924804,0.006586304481603911,1,True
2024-06-12,0.9618054663924804,0.9593476986870751,-0.25553688259060126,1,True
2024-06-13,0.9593476986870751,0.9545663859559245,-0.4983920571961731,1,True
2024-06-14,0.9545663859559245,0.9484639422419695,-0.6392896087414446,4,True
2024-06-15,0.9484639422419695,0.9581010482414034,1.0160751052542771,4,True
2024-06-16,0.9581010482414034,0.957730462044934,-0.03867923922530325,0,True
2024-06-17,0.957730462044934,0.9505920975229287,-0.7453417015434005,2,True
2024-06-18,0.9505920975229287,0.9557078897183315,0.5381690221003987,5,True
2024-06-19,0.9557078897183315,0.9557078897183315,0.0,0,False
2024-06-20,0.9557078897183315,0.9598788475736474,0.4364260147046828,1,True
2024-06-21,0.9598788475736474,0.9583929621262114,-0.15479926984451886,1,True
2024-06-22,0.9583929621262114,0.9609489806123367,0.2666983781323573,0,True
2024-06-23,0.9609489806123367,0.9603095121360863,-0.06654551793612296,2,True
2024-06-24,0.9603095121360863,0.9603095121360863,0.0,0,False
2024-06-25,0.9603095121360863,0.9603095121360863,0.0,0,False
2024-06-26,0.9603095121360863,0.9603095121360863,0.0,0,False
2024-06-27,0.9603095121360863,0.9555239654960204,-0.4983337746411687,1,True
2024-06-28,0.9555239654960204,0.9552202628160388,-0.03178388935791698,1,True
2024-06-29,0.9552202628160388,0.9443425219081748,-1.1387678142207536,3,True
2024-06-30,0.9443425219081748,0.9419931826713054,-0.24878041413641805,0,True
2024-07-01,0.9419931826713054,0.9358655133108175,-0.6505003935496689,2,True
2024-07-02,0.9358655133108175,0.9398496363333552,0.4257153368589339,0,True
2024-07-03,0.9398496363333552,0.9368267302236568,-0.3216372058717498,1,True
2024-07-04,0.9368267302236568,0.9285758354206055,-0.8807279443319826,4,True
2024-07-05,0.9285758354206055,0.8991293701817499,-3.171142745225286,15,True
2024-07-06,0.8991293701817499,0.905589387178081,0.7184746945843035,0,True
2024-07-07,0.905589387178081,0.905589387178081,0.0,0,False
2024-07-08,0.905589387178081,0.9042921893267934,-0.14324349088605803,2,True
2024-07-09,0.9042921893267934,0.904146130737331,-0.016151703087385894,1,True
2024-07-10,0.904146130737331,0.907285623537903,0.3472328967455418,1,True
2024-07-11,0.907285623537903,0.8973696852424586,-1.0929235555147243,2,True
2024-07-12,0.8973696852424586,0.8973696852424586,0.0,0,False
2024-07-13,0.8973696852424586,0.8973696852424586,0.0,0,False
2024-07-14,0.8973696852424586,0.8979526263883125,0.06496109189340071,1,True
2024-07-15,0.8979526263883125,0.8991487376599302,0.13320427341791952,0,True
2024-07-16,0.8991487376599302,0.8991487376599302,0.0,0,False
2024-07-17,0.8991487376599302,0.8991487376599302,0.0,0,False
2024-07-18,0.8991487376599302,0.8991487376599302,0.0,0,False
2024-07-19,0.8991487376599302,0.8960943967423441,-0.3396925102219561,2,True
2024-07-20,0.8960943967423441,0.8969412790760242,0.09450816083202973,0,True
2024-07-21,0.8969412790760242,0.8966238275106628,-0.03539268096662829,1,True
2024-07-22,0.8966238275106628,0.8964664745958729,-0.017549490651702637,1,True
2024-07-23,0.8964664745958729,0.8934173612044697,-0.340125757940668,3,True
2024-07-24,0.8934173612044697,0.8923864587428608,-0.11538867570460853,1,True
2024-07-25,0.8923864587428608,0.8916208292466619,-0.08579573218507885,0,True
2024-07-26,0.8916208292466619,0.8916208292466619,0.0,0,False
2024-07-27,0.8916208292466619,0.8916208292466619,0.0,0,False
2024-07-28,0.8916208292466619,0.8894665388202833,-0.24161508521495234,1,True
2024-07-29,0.8894665388202833,0.8894665388202833,0.0,0,False
2024-07-30,0.8894665388202833,0.8858947261262826,-0.401567966653138,2,True
2024-07-31,0.8858947261262826,0.879022611753977,-0.7757258475118212,3,True
2024-08-01,0.879022611753977,0.8771551477439754,-0.21244777836548767,0,True
2024-08-02,0.8771551477439754,0.8724918928421846,-0.5316339890137467,4,True
2024-08-03,0.8724918928421846,0.8692851964031671,-0.3675330928946008,6,True
2024-08-04,0.8692851964031671,0.8557042614920779,-1.5623106165022604,3,True
2024-08-05,0.8557042614920779,0.8407848757048807,-1.743521267637782,8,True
2024-08-06,0.8407848757048807,0.8425603936201836,0.21117386463622712,0,True
2024-08-07,0.8425603936201836,0.8425603936201836,0.0,0,False
2024-08-08,0.8425603936201836,0.8425603936201836,0.0,0,False
2024-08-09,0.8425603936201836,0.8425603936201836,0.0,0,False
2024-08-10,0.8425603936201836,0.8425603936201836,0.0,0,False
2024-08-11,0.8425603936201836,0.8415030486848957,-0.12549188678866452,1,True
2024-08-12,0.8415030486848957,0.8423272839251387,0.09794798028730511,1,True
2024-08-13,0.8423272839251387,0.8391722199807942,-0.3745650894320218,0,True
2024-08-14,0.8391722199807942,0.8391722199807942,0.0,0,False
2024-08-15,0.8391722199807942,0.8391722199807942,0.0,0,False
2024-08-16,0.8391722199807942,0.8391722199807942,0.0,0,False
2024-08-17,0.8391722199807942,0.8557767391578031,1.9786783668063856,1,True
2024-08-18,0.8557767391578031,0.8557767391578031,0.0,0,False
2024-08-19,0.8557767391578031,0.8552661363108843,-0.059665427155830564,1,True
2024-08-20,0.8552661363108843,0.8487433206656969,-0.7626650194900719,2,True
2024-08-21,0.8487433206656969,0.8487433206656969,0.0,0,False
2024-08-22,0.8487433206656969,0.8487433206656969,0.0,0,False
2024-08-23,0.8487433206656969,0.8487433206656969,0.0,0,False
2024-08-24,0.8487433206656969,0.8472956274581153,-0.17056902509067218,1,True
2024-08-25,0.8472956274581153,0.8441398644780773,-0.3724512292722748,2,True
2024-08-26,0.8441398644780773,0.8459294882306992,0.2120055962205214,2,True
2024-08-27,0.8459294882306992,0.8399883636941565,-0.7023191198794687,0,True
2024-08-28,0.8399883636941565,0.8404005695552044,0.04907280610828568,4,True
2024-08-29,0.8404005695552044,0.8388973368246168,-0.17887097951198028,3,True
2024-08-30,0.8388973368246168,0.8407332316947898,0.21884619125411842,0,True
2024-08-31,0.8407332316947898,0.8407332316947898,0.0,0,False
2024-09-01,0.8407332316947898,0.8376508990228039,-0.3666243412042136,1,True
2024-09-02,0.8376508990228039,0.8376508990228039,0.0,0,False
2024-09-03,0.8376508990228039,0.8376508990228039,0.0,0,False
2024-09-04,0.8376508990228039,0.8376508990228039,0.0,0,False
2024-09-05,0.8376508990228039,0.8376508990228039,0.0,0,False
2024-09-06,0.8376508990228039,0.8374310601915526,-0.02624468397368629,1,True
2024-09-07,0.8374310601915526,0.8355590832883668,-0.2235380310299906,0,True
2024-09-08,0.8355590832883668,0.8355590832883668,0.0,0,False
2024-09-09,0.8355590832883668,0.8355590832883668,0.0,0,False
2024-09-10,0.8355590832883668,0.8355590832883668,0.0,0,False
2024-09-11,0.8355590832883668,0.8313908358264575,-0.49885729750014374,1,True
2024-09-12,0.8313908358264575,0.8313908358264575,0.0,0,False
2024-09-13,0.8313908358264575,0.8289134416033351,-0.2979819016960428,1,True
2024-09-14,0.8289134416033351,0.8289134416033351,0.0,0,False
2024-09-15,0.8289134416033351,0.8306084987190555,0.20449144996872448,1,True
2024-09-16,0.8306084987190555,0.8308137317112952,0.024708751783331095,0,True
2024-09-17,0.8308137317112952,0.8308137317112952,0.0,0,False
2024-09-18,0.8308137317112952,0.8308137317112952,0.0,0,False
2024-09-19,0.8308137317112952,0.8308137317112952,0.0,0,False
2024-09-20,0.8308137317112952,0.8308137317112952,0.0,0,False
2024-09-21,0.8308137317112952,0.8308137317112952,0.0,0,False
2024-09-22,0.8308137317112952,0.8284436291453413,-0.28527484266203107,1,True
2024-09-23,0.8284436291453413,0.8284436291453413,0.0,0,False
2024-09-24,0.8284436291453413,0.8284436291453413,0.0,0,False
2024-09-25,0.8284436291453413,0.8284436291453413,0.0,0,False
2024-09-26,0.8284436291453413,0.8284436291453413,0.0,0,False
2024-09-27,0.8284436291453413,0.8284436291453413,0.0,0,False
2024-09-28,0.8284436291453413,0.8284436291453413,0.0,0,False
2024-09-29,0.8284436291453413,0.8284436291453413,0.0,0,False
2024-09-30,0.8284436291453413,0.8267193949612511,-0.208129331125273,1,True
2024-10-01,0.8267193949612511,0.8278556354260997,0.1374396768448749,0,True
2024-10-02,0.8278556354260997,0.8125295606637405,-1.851297992852452,7,True
2024-10-03,0.8125295606637405,0.8058528403175969,-0.8217203003284657,1,True
2024-10-04,0.8058528403175969,0.8058528403175969,0.0,0,False
2024-10-05,0.8058528403175969,0.8058528403175969,0.0,0,False
2024-10-06,0.8058528403175969,0.8058528403175969,0.0,0,False
2024-10-07,0.8058528403175969,0.8058528403175969,0.0,0,False
2024-10-08,0.8058528403175969,0.8058528403175969,0.0,0,False
2024-10-09,0.8058528403175969,0.8058528403175969,0.0,0,False
2024-10-10,0.8058528403175969,0.8058528403175969,0.0,0,False
2024-10-11,0.8058528403175969,0.8058528403175969,0.0,0,False
2024-10-12,0.8058528403175969,0.8058528403175969,0.0,0,False
2024-10-13,0.8058528403175969,0.8058528403175969,0.0,0,False
2024-10-14,0.8058528403175969,0.8058528403175969,0.0,0,False
2024-10-15,0.8058528403175969,0.8059220792932215,0.008592012357655499,1,True
2024-10-16,0.8059220792932215,0.8063455436128273,0.052544077211180706,3,True
2024-10-17,0.8063455436128273,0.8060078385799692,-0.041880932502591506,2,True
2024-10-18,0.8060078385799692,0.8098635153774787,0.47836715884830294,1,True
2024-10-19,0.8098635153774787,0.8090711353396823,-0.09784118221785043,1,True
2024-10-20,0.8090711353396823,0.8103822680442379,0.16205407006704142,2,True
2024-10-21,0.8103822680442379,0.8093390753725493,-0.12872846714749864,0,True
2024-10-22,0.8093390753725493,0.8093390753725493,0.0,0,False
2024-10-23,0.8093390753725493,0.8093390753725493,0.0,0,False
2024-10-24,0.8093390753725493,0.808510895053725,-0.10232797896767565,1,True
2024-10-25,0.808510895053725,0.808510895053725,0.0,0,False
2024-10-26,0.808510895053725,0.7950892332525584,-1.6600471166532293,9,True
2024-10-27,0.7950892332525584,0.7933468694697784,-0.21914065867202348,1,True
2024-10-28,0.7933468694697784,0.7933468694697784,0.0,0,False
2024-10-29,0.7933468694697784,0.8043121109187324,1.3821497091533796,2,True
2024-10-30,0.8043121109187324,0.8063640916557138,0.25512244676229034,0,True
2024-10-31,0.8063640916557138,0.8063640916557138,0.0,0,False
2024-11-01,0.8063640916557138,0.8058696001092734,-0.06132360698564154,2,True
2024-11-02,0.8058696001092734,0.8044954217848652,-0.17052117665462552,0,True
2024-11-03,0.8044954217848652,0.8024691348619432,-0.2518705350027406,2,True
2024-11-04,0.8024691348619432,0.8101723138352066,0.9599346116394569,3,True
2024-11-05,0.8101723138352066,0.8109322933207503,0.09380467248332192,1,True
2024-11-06,0.8109322933207503,0.8116217373047573,0.08501868647796673,1,True
2024-11-07,0.8116217373047573,0.8123233674922478,0.0864479295269227,1,True
2024-11-08,0.8123233674922478,0.8100937348577151,-0.2744759936447294,2,True
2024-11-09,0.8100937348577151,0.8083053614972547,-0.22076128767671843,2,True
2024-11-10,0.8083053614972547,0.8092764652310193,0.12014070177213121,1,True
2024-11-11,0.8092764652310193,0.8100807930534606,0.099388510230769,2,True
2024-11-12,0.8100807930534606,0.8019056772488109,-1.0091728966730606,4,True
2024-11-13,0.8019056772488109,0.8002316375102798,-0.20875768634964764,0,True
2024-11-14,0.8002316375102798,0.8018198720069271,0.19847184517580718,4,True
2024-11-15,0.8018198720069271,0.8071578188389966,0.6657289272101519,3,True
2024-11-16,0.8071578188389966,0.8025877786784992,-0.566189170671838,0,True
2024-11-17,0.8025877786784992,0.7995488449341412,-0.3786419161978416,6,True
2024-11-18,0.7995488449341412,0.800625751416607,0.13468926748989585,1,True
2024-11-19,0.800625751416607,0.7979523157758428,-0.33391826780913014,1,True
2024-11-20,0.7979523157758428,0.7994034398085708,0.1818559836269218,1,True
2024-11-21,0.7994034398085708,0.8109597282174634,1.4456140458514843,3,True
2024-11-22,0.8109597282174634,0.8068862189221324,-0.5023072236009618,0,True
2024-11-23,0.8068862189221324,0.8068862189221324,0.0,0,False
2024-11-24,0.8068862189221324,0.8150897351021807,1.0166881014533669,9,True
2024-11-25,0.8150897351021807,0.8191482002803491,0.49791636471283596,0,True
2024-11-26,0.8191482002803491,0.8144742403662135,-0.5705878267859066,2,True
2024-11-27,0.8144742403662135,0.8144742403662135,0.0,0,False
2024-11-28,0.8144742403662135,0.813549225199578,-0.11357205922432057,2,True
2024-11-29,0.813549225199578,0.8207342588172656,0.8831713429417798,2,True
2024-11-30,0.8207342588172656,0.8232043837998356,0.300965258368735,0,True
2024-12-01,0.8232043837998356,0.8237004815176292,0.06026422205183124,1,True
2024-12-02,0.8237004815176292,0.8240335782598117,0.04043906124333585,9,True
2024-12-03,0.8240335782598117,0.8194233290001968,-0.5594734706504179,5,True
2024-12-04,0.8194233290001968,0.8580157162276364,4.709700817833351,1,True
2024-12-05,0.8580157162276364,0.8602918943546933,0.2652839667161899,6,True
2024-12-06,0.8602918943546933,0.8570824447626865,-0.3730651902066673,1,True
2024-12-07,0.8570824447626865,0.8564692345144963,-0.07154623828049544,1,True
2024-12-08,0.8564692345144963,0.8553978116470755,-0.12509764790653577,0,True
2024-12-09,0.8553978116470755,0.8553978116470755,0.0,0,False
2024-12-10,0.8553978116470755,0.8342456216400451,-2.4727898200138765,7,True
2024-12-11,0.8342456216400451,0.8495892031122116,1.8392163020289676,4,True
2024-12-12,0.8495892031122116,0.8559196801406367,0.7451221137504183,0,True
2024-12-13,0.8559196801406367,0.8559196801406367,0.0,0,False
2024-12-14,0.8559196801406367,0.8559196801406367,0.0,0,False
2024-12-15,0.8559196801406367,0.850930173884851,-0.5829409431228227,2,True
2024-12-16,0.850930173884851,0.8493010383441209,-0.19145349298080871,0,True
2024-12-17,0.8493010383441209,0.8493010383441209,0.0,0,False
2024-12-18,0.8493010383441209,0.8450721460303158,-0.4979261914067723,2,True
2024-12-19,0.8450721460303158,0.8286407017775589,-1.9443836043990803,6,True
2024-12-20,0.8286407017775589,0.7971256554944196,-3.8032220980136255,10,True
2024-12-21,0.7971256554944196,0.7973200236157152,0.02438362383092585,1,True
2024-12-22,0.7973200236157152,0.79932129485672,0.2509997468681746,0,True
2024-12-23,0.79932129485672,0.7974314661214004,-0.2364291740355018,1,True
2024-12-24,0.7974314661214004,0.7974314661214004,0.0,0,False
2024-12-25,0.7974314661214004,0.7974314661214004,0.0,0,False
2024-12-26,0.7974314661214004,0.7974314661214004,0.0,0,False
2024-12-27,0.7974314661214004,0.7974314661214004,0.0,0,False
2024-12-28,0.7974314661214004,0.793452802623494,-0.4989348510735403,1,True
2024-12-29,0.793452802623494,0.8181136485231874,3.1080419425268957,3,True
2024-12-30,0.8181136485231874,0.8169486061182321,-0.14240593676176916,0,True
2024-12-31,0.8169486061182321,0.8169486061182321,0.0,0,False
