day,start_equity,end_equity,return_pct,entries,active
2021-09-02,1.0,1.0,0.0,0,False
2021-09-03,1.0,1.0,0.0,0,False
2021-09-04,1.0,1.0,0.0,0,False
2021-09-05,1.0,1.0,0.0,0,False
2021-09-06,1.0,1.0,0.0,0,False
2021-09-07,1.0,1.0,0.0,0,False
2021-09-08,1.0,1.0,0.0,0,False
2021-09-09,1.0,1.0,0.0,0,False
2021-09-10,1.0,1.0,0.0,0,False
2021-09-11,1.0,1.0,0.0,0,False
2021-09-12,1.0,1.0,0.0,0,False
2021-09-13,1.0,1.0,0.0,0,False
2021-09-14,1.0,1.0,0.0,0,False
2021-09-15,1.0,1.0,0.0,0,False
2021-09-16,1.0,1.0,0.0,0,False
2021-09-17,1.0,1.0,0.0,0,False
2021-09-18,1.0,1.0,0.0,0,False
2021-09-19,1.0,1.0,0.0,0,False
2021-09-20,1.0,1.0,0.0,0,False
2021-09-21,1.0,1.0,0.0,0,False
2021-09-22,1.0,1.0,0.0,0,False
2021-09-23,1.0,1.0,0.0,0,False
2021-09-24,1.0,1.0,0.0,0,False
2021-09-25,1.0,1.0,0.0,0,False
2021-09-26,1.0,1.0,0.0,0,False
2021-09-27,1.0,1.0,0.0,0,False
2021-09-28,1.0,1.0,0.0,0,False
2021-09-29,1.0,1.0,0.0,0,False
2021-09-30,1.0,1.0,0.0,0,False
2021-10-01,1.0,1.0,0.0,0,False
2021-10-02,1.0,1.0,0.0,0,False
2021-10-03,1.0,1.0,0.0,0,False
2021-10-04,1.0,1.0,0.0,0,False
2021-10-05,1.0,1.0,0.0,0,False
2021-10-06,1.0,0.9927723718638383,-0.7227628136161734,2,True
2021-10-07,0.9927723718638383,0.9927723718638383,0.0,0,False
2021-10-08,0.9927723718638383,0.9927723718638383,0.0,0,False
2021-10-09,0.9927723718638383,0.9927723718638383,0.0,0,False
2021-10-10,0.9927723718638383,0.9927723718638383,0.0,0,False
2021-10-11,0.9927723718638383,0.9927723718638383,0.0,0,False
2021-10-12,0.9927723718638383,0.9927723718638383,0.0,0,False
2021-10-13,0.9927723718638383,1.0005148220882278,0.7798817174831107,1,True
2021-10-14,1.0005148220882278,1.006428786225054,0.5910921064100627,0,True
2021-10-15,1.006428786225054,1.0069525320585722,0.05204002912939654,2,True
2021-10-16,1.0069525320585722,1.001985555341874,-0.4932682086358109,2,True
2021-10-17,1.001985555341874,1.001985555341874,0.0,0,False
2021-10-18,1.001985555341874,1.001985555341874,0.0,0,False
2021-10-19,1.001985555341874,1.001985555341874,0.0,0,False
2021-10-20,1.001985555341874,1.001985555341874,0.0,0,False
2021-10-21,1.001985555341874,1.001985555341874,0.0,0,False
2021-10-22,1.001985555341874,1.001985555341874,0.0,0,False
2021-10-23,1.001985555341874,1.001985555341874,0.0,0,False
2021-10-24,1.001985555341874,1.001985555341874,0.0,0,False
2021-10-25,1.001985555341874,1.0036144087333827,0.1625625621871407,1,True
2021-10-26,1.0036144087333827,1.0036144087333827,0.0,0,False
2021-10-27,1.0036144087333827,1.0247183319312276,2.1027919701231967,4,True
2021-10-28,1.0247183319312276,1.0179572029971413,-0.6598036478320801,0,True
2021-10-29,1.0179572029971413,1.0179572029971413,0.0,0,False
2021-10-30,1.0179572029971413,1.0161570595420812,-0.17683881500715204,1,True
2021-10-31,1.0161570595420812,1.0151176762581464,-0.10228569237152874,4,True
2021-11-01,1.0151176762581464,1.0041529068909816,-1.0801476147654476,2,True
2021-11-02,1.0041529068909816,1.0041529068909816,0.0,0,False
2021-11-03,1.0041529068909816,1.0041529068909816,0.0,0,False
2021-11-04,1.0041529068909816,0.9999183810998513,-0.42170129290777236,1,True
2021-11-05,0.9999183810998513,0.9999183810998513,0.0,0,False
2021-11-06,0.9999183810998513,0.9999183810998513,0.0,0,False
2021-11-07,0.9999183810998513,0.9999183810998513,0.0,0,False
2021-11-08,0.9999183810998513,0.9999183810998513,0.0,0,False
2021-11-09,0.9999183810998513,0.9999183810998513,0.0,0,False
2021-11-10,0.9999183810998513,0.9999183810998513,0.0,0,False
2021-11-11,0.9999183810998513,1.0167964923658654,1.6879488951337507,6,True
2021-11-12,1.0167964923658654,1.013217847859992,-0.35195287677937115,1,True
2021-11-13,1.013217847859992,1.013217847859992,0.0,0,False
2021-11-14,1.013217847859992,1.013217847859992,0.0,0,False
2021-11-15,1.013217847859992,1.013217847859992,0.0,0,False
2021-11-16,1.013217847859992,1.060582087633911,4.674635358423318,4,True
2021-11-17,1.060582087633911,1.0669967794255677,0.6048274684675725,0,True
2021-11-18,1.0669967794255677,1.0631262850566474,-0.3627465840153721,1,True
2021-11-19,1.0631262850566474,1.0631262850566474,0.0,0,False
2021-11-20,1.0631262850566474,1.0631262850566474,0.0,0,False
2021-11-21,1.0631262850566474,1.0631262850566474,0.0,0,False
2021-11-22,1.0631262850566474,1.0631262850566474,0.0,0,False
2021-11-23,1.0631262850566474,1.0631262850566474,0.0,0,False
2021-11-24,1.0631262850566474,1.0631262850566474,0.0,0,False
2021-11-25,1.0631262850566474,1.057817032372564,-0.49940000155301867,1,True
2021-11-26,1.057817032372564,1.056293405660324,-0.14403499524134888,6,True
2021-11-27,1.056293405660324,1.0554487284770242,-0.07996615133384344,0,True
2021-11-28,1.0554487284770242,1.0501798659999841,-0.4992059144969363,1,True
2021-11-29,1.0501798659999841,1.0501798659999841,0.0,0,False
2021-11-30,1.0501798659999841,1.0501798659999841,0.0,0,False
2021-12-01,1.0501798659999841,1.054822060568014,0.4420380468453944,1,True
2021-12-02,1.054822060568014,1.0558544472658455,0.09787306659811978,2,True
2021-12-03,1.0558544472658455,1.0523195826561018,-0.33478711188813515,1,True
2021-12-04,1.0523195826561018,1.0262111084452399,-2.481040421671421,5,True
2021-12-05,1.0262111084452399,1.0262111084452399,0.0,0,False
2021-12-06,1.0262111084452399,1.0262111084452399,0.0,0,False
2021-12-07,1.0262111084452399,1.0262111084452399,0.0,0,False
2021-12-08,1.0262111084452399,1.0262111084452399,0.0,0,False
2021-12-09,1.0262111084452399,1.0262111084452399,0.0,0,False
2021-12-10,1.0262111084452399,1.0262111084452399,0.0,0,False
2021-12-11,1.0262111084452399,1.0262111084452399,0.0,0,False
2021-12-12,1.0262111084452399,1.0262111084452399,0.0,0,False
2021-12-13,1.0262111084452399,1.0262111084452399,0.0,0,False
2021-12-14,1.0262111084452399,1.0262111084452399,0.0,0,False
2021-12-15,1.0262111084452399,1.0262111084452399,0.0,0,False
2021-12-16,1.0262111084452399,1.0262111084452399,0.0,0,False
2021-12-17,1.0262111084452399,1.0233963565707465,-0.2742858512570501,1,True
2021-12-18,1.0233963565707465,1.0233963565707465,0.0,0,False
2021-12-19,1.0233963565707465,1.0233963565707465,0.0,0,False
2021-12-20,1.0233963565707465,1.0233963565707465,0.0,0,False
2021-12-21,1.0233963565707465,1.0233963565707465,0.0,0,False
2021-12-22,1.0233963565707465,1.0233963565707465,0.0,0,False
2021-12-23,1.0233963565707465,1.0233963565707465,0.0,0,False
2021-12-24,1.0233963565707465,1.0233963565707465,0.0,0,False
2021-12-25,1.0233963565707465,1.0233963565707465,0.0,0,False
2021-12-26,1.0233963565707465,1.0233963565707465,0.0,0,False
2021-12-27,1.0233963565707465,1.0233963565707465,0.0,0,False
2021-12-28,1.0233963565707465,1.0233963565707465,0.0,0,False
2021-12-29,1.0233963565707465,1.0233963565707465,0.0,0,False
2021-12-30,1.0233963565707465,1.0233963565707465,0.0,0,False
2021-12-31,1.0233963565707465,1.0233963565707465,0.0,0,False
2022-01-01,1.0233963565707465,1.0233963565707465,0.0,0,False
2022-01-02,1.0233963565707465,1.0233963565707465,0.0,0,False
2022-01-03,1.0233963565707465,1.0233963565707465,0.0,0,False
2022-01-04,1.0233963565707465,1.0233963565707465,0.0,0,False
2022-01-05,1.0233963565707465,1.0233963565707465,0.0,0,False
2022-01-06,1.0233963565707465,1.0182929441943604,-0.49867408102631794,1,True
2022-01-07,1.0182929441943604,1.0182929441943604,0.0,0,False
2022-01-08,1.0182929441943604,1.0182929441943604,0.0,0,False
2022-01-09,1.0182929441943604,1.0182929441943604,0.0,0,False
2022-01-10,1.0182929441943604,1.0182929441943604,0.0,0,False
2022-01-11,1.0182929441943604,1.0182929441943604,0.0,0,False
2022-01-12,1.0182929441943604,1.0182929441943604,0.0,0,False
2022-01-13,1.0182929441943604,1.0182929441943604,0.0,0,False
2022-01-14,1.0182929441943604,1.0182929441943604,0.0,0,False
2022-01-15,1.0182929441943604,1.0182929441943604,0.0,0,False
2022-01-16,1.0182929441943604,1.0182929441943604,0.0,0,False
2022-01-17,1.0182929441943604,1.0182929441943604,0.0,0,False
2022-01-18,1.0182929441943604,1.0182929441943604,0.0,0,False
2022-01-19,1.0182929441943604,1.0182929441943604,0.0,0,False
2022-01-20,1.0182929441943604,1.0182929441943604,0.0,0,False
2022-01-21,1.0182929441943604,1.0182929441943604,0.0,0,False
2022-01-22,1.0182929441943604,1.0384832358545308,1.982758672274243,3,True
2022-01-23,1.0384832358545308,1.037003007492025,-0.1425375308334087,0,True
2022-01-24,1.037003007492025,1.037003007492025,0.0,0,False
2022-01-25,1.037003007492025,1.037003007492025,0.0,0,False
2022-01-26,1.037003007492025,1.037003007492025,0.0,0,False
2022-01-27,1.037003007492025,1.037003007492025,0.0,0,False
2022-01-28,1.037003007492025,1.037003007492025,0.0,0,False
2022-01-29,1.037003007492025,1.037003007492025,0.0,0,False
2022-01-30,1.037003007492025,1.037003007492025,0.0,0,False
2022-01-31,1.037003007492025,1.038381439162366,0.13292455859650332,1,True
2022-02-01,1.038381439162366,1.038381439162366,0.0,0,False
2022-02-02,1.038381439162366,1.038381439162366,0.0,0,False
2022-02-03,1.038381439162366,1.038381439162366,0.0,0,False
2022-02-04,1.038381439162366,1.038381439162366,0.0,0,False
2022-02-05,1.038381439162366,1.038381439162366,0.0,0,False
2022-02-06,1.038381439162366,1.038381439162366,0.0,0,False
2022-02-07,1.038381439162366,1.038381439162366,0.0,0,False
2022-02-08,1.038381439162366,1.038381439162366,0.0,0,False
2022-02-09,1.038381439162366,1.038381439162366,0.0,0,False
2022-02-10,1.038381439162366,1.0395319753576056,0.11080092072597303,2,True
2022-02-11,1.0395319753576056,1.0391753357857547,-0.034307705804637045,0,True
2022-02-12,1.0391753357857547,1.0391753357857547,0.0,0,False
2022-02-13,1.0391753357857547,1.0391753357857547,0.0,0,False
2022-02-14,1.0391753357857547,1.0391753357857547,0.0,0,False
2022-02-15,1.0391753357857547,1.0391753357857547,0.0,0,False
2022-02-16,1.0391753357857547,1.0391753357857547,0.0,0,False
2022-02-17,1.0391753357857547,1.0391753357857547,0.0,0,False
2022-02-18,1.0391753357857547,1.0391753357857547,0.0,0,False
2022-02-19,1.0391753357857547,1.0391753357857547,0.0,0,False
2022-02-20,1.0391753357857547,1.0391753357857547,0.0,0,False
2022-02-21,1.0391753357857547,1.0391753357857547,0.0,0,False
2022-02-22,1.0391753357857547,1.0391753357857547,0.0,0,False
2022-02-23,1.0391753357857547,1.0391753357857547,0.0,0,False
2022-02-24,1.0391753357857547,1.0391753357857547,0.0,0,False
2022-02-25,1.0391753357857547,1.0391753357857547,0.0,0,False
2022-02-26,1.0391753357857547,1.0391753357857547,0.0,0,False
2022-02-27,1.0391753357857547,1.0391753357857547,0.0,0,False
2022-02-28,1.0391753357857547,1.0391753357857547,0.0,0,False
2022-03-01,1.0391753357857547,1.0391753357857547,0.0,0,False
2022-03-02,1.0391753357857547,1.0391753357857547,0.0,0,False
2022-03-03,1.0391753357857547,1.0391753357857547,0.0,0,False
2022-03-04,1.0391753357857547,1.0391753357857547,0.0,0,False
2022-03-05,1.0391753357857547,1.0391753357857547,0.0,0,False
2022-03-06,1.0391753357857547,1.0391753357857547,0.0,0,False
2022-03-07,1.0391753357857547,1.0391753357857547,0.0,0,False
2022-03-08,1.0391753357857547,1.0391753357857547,0.0,0,False
2022-03-09,1.0391753357857547,1.0391753357857547,0.0,0,False
2022-03-10,1.0391753357857547,1.0391753357857547,0.0,0,False
2022-03-11,1.0391753357857547,1.0391753357857547,0.0,0,False
2022-03-12,1.0391753357857547,1.0391753357857547,0.0,0,False
2022-03-13,1.0391753357857547,1.0391753357857547,0.0,0,False
2022-03-14,1.0391753357857547,1.0391753357857547,0.0,0,False
2022-03-15,1.0391753357857547,1.0391753357857547,0.0,0,False
2022-03-16,1.0391753357857547,1.0391753357857547,0.0,0,False
2022-03-17,1.0391753357857547,1.0391753357857547,0.0,0,False
2022-03-18,1.0391753357857547,1.0391753357857547,0.0,0,False
2022-03-19,1.0391753357857547,1.0391753357857547,0.0,0,False
2022-03-20,1.0391753357857547,1.0391753357857547,0.0,0,False
2022-03-21,1.0391753357857547,1.0391753357857547,0.0,0,False
2022-03-22,1.0391753357857547,1.0391753357857547,0.0,0,False
2022-03-23,1.0391753357857547,1.0391753357857547,0.0,0,False
2022-03-24,1.0391753357857547,1.0391753357857547,0.0,0,False
2022-03-25,1.0391753357857547,1.0391753357857547,0.0,0,False
2022-03-26,1.0391753357857547,1.0417285681747828,0.2456979396164627,1,True
2022-03-27,1.0417285681747828,1.0417285681747828,0.0,0,False
2022-03-28,1.0417285681747828,1.0393542498046695,-0.22792101922224361,1,True
2022-03-29,1.0393542498046695,1.0393542498046695,0.0,0,False
2022-03-30,1.0393542498046695,1.0367414605773604,-0.2513858222834231,1,True
2022-03-31,1.0367414605773604,1.0367414605773604,0.0,0,False
2022-04-01,1.0367414605773604,1.036523712067613,-0.021003164050770184,1,True
2022-04-02,1.036523712067613,1.036523712067613,0.0,0,False
2022-04-03,1.036523712067613,1.0359039346480912,-0.05979384864099879,1,True
2022-04-04,1.0359039346480912,1.0307330050048742,-0.49917076963064133,1,True
2022-04-05,1.0307330050048742,1.0307330050048742,0.0,0,False
2022-04-06,1.0307330050048742,1.0346305442396548,0.3781327672496726,1,True
2022-04-07,1.0346305442396548,1.0294672906673528,-0.4990432189585614,1,True
2022-04-08,1.0294672906673528,1.0294672906673528,0.0,0,False
2022-04-09,1.0294672906673528,1.0294672906673528,0.0,0,False
2022-04-10,1.0294672906673528,1.0294672906673528,0.0,0,False
2022-04-11,1.0294672906673528,1.0294672906673528,0.0,0,False
2022-04-12,1.0294672906673528,1.0294672906673528,0.0,0,False
2022-04-13,1.0294672906673528,1.0294672906673528,0.0,0,False
2022-04-14,1.0294672906673528,1.0294672906673528,0.0,0,False
2022-04-15,1.0294672906673528,1.0294672906673528,0.0,0,False
2022-04-16,1.0294672906673528,1.0294672906673528,0.0,0,False
2022-04-17,1.0294672906673528,1.0294672906673528,0.0,0,False
2022-04-18,1.0294672906673528,1.0335050109641721,0.3922145301189728,1,True
2022-04-19,1.0335050109641721,1.0308945215395267,-0.2525860442814998,0,True
2022-04-20,1.0308945215395267,1.0308945215395267,0.0,0,False
2022-04-21,1.0308945215395267,1.0308945215395267,0.0,0,False
2022-04-22,1.0308945215395267,1.0308945215395267,0.0,0,False
2022-04-23,1.0308945215395267,1.0308945215395267,0.0,0,False
2022-04-24,1.0308945215395267,1.0308945215395267,0.0,0,False
2022-04-25,1.0308945215395267,1.0308945215395267,0.0,0,False
2022-04-26,1.0308945215395267,1.0308945215395267,0.0,0,False
2022-04-27,1.0308945215395267,1.025748091017143,-0.49921989251606735,1,True
2022-04-28,1.025748091017143,1.025748091017143,0.0,0,False
2022-04-29,1.025748091017143,1.0206252237937972,-0.49942741967630155,1,True
2022-04-30,1.0206252237937972,1.0206252237937972,0.0,0,False
2022-05-01,1.0206252237937972,1.035352548495101,1.4429708729478907,5,True
2022-05-02,1.035352548495101,1.035352548495101,0.0,0,False
2022-05-03,1.035352548495101,1.035352548495101,0.0,0,False
2022-05-04,1.035352548495101,1.0301824122468448,-0.49935997702145185,1,True
2022-05-05,1.0301824122468448,1.0301824122468448,0.0,0,False
2022-05-06,1.0301824122468448,1.0203215357560727,-0.9571971306776117,2,True
2022-05-07,1.0203215357560727,1.0203215357560727,0.0,0,False
2022-05-08,1.0203215357560727,1.0203215357560727,0.0,0,False
2022-05-09,1.0203215357560727,1.0203215357560727,0.0,0,False
2022-05-10,1.0203215357560727,1.0096528503512006,-1.0456199375392439,7,True
2022-05-11,1.0096528503512006,0.98458360740338,-2.482956685468707,5,True
2022-05-12,0.98458360740338,1.0068989699907736,2.266477160456226,8,True
2022-05-13,1.0068989699907736,1.0072646203806954,0.03631450630297017,0,True
2022-05-14,1.0072646203806954,1.0048948054571893,-0.23527232820015342,2,True
2022-05-15,1.0048948054571893,0.999879730235982,-0.4990646975158497,1,True
2022-05-16,0.999879730235982,0.9948903733886454,-0.49899569882860817,1,True
2022-05-17,0.9948903733886454,0.9948903733886454,0.0,0,False
2022-05-18,0.9948903733886454,0.9948903733886454,0.0,0,False
2022-05-19,0.9948903733886454,0.9899242693477839,-0.4991609300577182,1,True
2022-05-20,0.9899242693477839,0.9849858806790405,-0.49886529926144174,1,True
2022-05-21,0.9849858806790405,0.9849858806790405,0.0,0,False
2022-05-22,0.9849858806790405,0.9849858806790405,0.0,0,False
2022-05-23,0.9849858806790405,0.9800696853064973,-0.4991132836497103,1,True
2022-05-24,0.9800696853064973,0.9772424719816306,-0.2884706431851902,2,True
2022-05-25,0.9772424719816306,0.9716150497842289,-0.5758470756997092,1,True
2022-05-26,0.9716150497842289,0.9714359978696232,-0.018428277191195885,1,True
2022-05-27,0.9714359978696232,0.9690102464114991,-0.24970779994192283,1,True
2022-05-28,0.9690102464114991,0.9690102464114991,0.0,0,False
2022-05-29,0.9690102464114991,0.9690102464114991,0.0,0,False
2022-05-30,0.9690102464114991,0.9690102464114991,0.0,0,False
2022-05-31,0.9690102464114991,0.9680837848518553,-0.09560905708425604,3,True
2022-06-01,0.9680837848518553,0.9680837848518553,0.0,0,False
2022-06-02,0.9680837848518553,0.965667125861906,-0.24963324742798276,1,True
2022-06-03,0.965667125861906,0.965667125861906,0.0,0,False
2022-06-04,0.965667125861906,0.965667125861906,0.0,0,False
2022-06-05,0.965667125861906,0.965667125861906,0.0,0,False
2022-06-06,0.965667125861906,0.965667125861906,0.0,0,False
2022-06-07,0.965667125861906,0.9661918750851378,0.05434059099438393,1,True
2022-06-08,0.9661918750851378,0.9647887856778207,-0.14521850612679854,1,True
2022-06-09,0.9647887856778207,0.9647887856778207,0.0,0,False
2022-06-10,0.9647887856778207,0.965451638393941,0.0687044383144153,2,True
2022-06-11,0.965451638393941,0.9631966639760036,-0.23356679177515272,1,True
2022-06-12,0.9631966639760036,0.9646343726554878,0.14926429183730328,4,True
2022-06-13,0.9646343726554878,0.9614922291846276,-0.32573413926878514,3,True
2022-06-14,0.9614922291846276,0.9629899093232497,0.15576622391344497,1,True
2022-06-15,0.9629899093232497,0.9629899093232497,0.0,0,False
2022-06-16,0.9629899093232497,0.9792241717816298,1.6858185429781791,4,True
2022-06-17,0.9792241717816298,0.9780096425198166,-0.12402974689681434,1,True
2022-06-18,0.9780096425198166,0.9682701956390152,-0.9958436458466835,4,True
2022-06-19,0.9682701956390152,0.9682701956390152,0.0,0,False
2022-06-20,0.9682701956390152,0.9682701956390152,0.0,0,False
2022-06-21,0.9682701956390152,0.9682701956390152,0.0,0,False
2022-06-22,0.9682701956390152,0.9682701956390152,0.0,0,False
2022-06-23,0.9682701956390152,0.9682701956390152,0.0,0,False
2022-06-24,0.9682701956390152,0.9682701956390152,0.0,0,False
2022-06-25,0.9682701956390152,0.9682701956390152,0.0,0,False
2022-06-26,0.9682701956390152,0.9682701956390152,0.0,0,False
2022-06-27,0.9682701956390152,0.9682701956390152,0.0,0,False
2022-06-28,0.9682701956390152,0.9693119378982151,0.10758797119769792,1,True
2022-06-29,0.9693119378982151,0.9667316470257835,-0.2661981939504954,0,True
2022-06-30,0.9667316470257835,0.9667316470257835,0.0,0,False
2022-07-01,0.9667316470257835,0.9667316470257835,0.0,0,False
2022-07-02,0.9667316470257835,0.9667316470257835,0.0,0,False
2022-07-03,0.9667316470257835,0.9651716630425009,-0.1613668061950846,1,True
2022-07-04,0.9651716630425009,0.9651716630425009,0.0,0,False
2022-07-05,0.9651716630425009,0.9651716630425009,0.0,0,False
2022-07-06,0.9651716630425009,0.9651716630425009,0.0,0,False
2022-07-07,0.9651716630425009,0.9651716630425009,0.0,0,False
2022-07-08,0.9651716630425009,0.9651716630425009,0.0,0,False
2022-07-09,0.9651716630425009,0.9651716630425009,0.0,0,False
2022-07-10,0.9651716630425009,0.9651716630425009,0.0,0,False
2022-07-11,0.9651716630425009,0.9651716630425009,0.0,0,False
2022-07-12,0.9651716630425009,0.9651716630425009,0.0,0,False
2022-07-13,0.9651716630425009,0.9727282229392169,0.7829239280498168,4,True
2022-07-14,0.9727282229392169,0.984437350191986,1.2037408781446102,0,True
2022-07-15,0.984437350191986,0.984437350191986,0.0,0,False
2022-07-16,0.984437350191986,0.984437350191986,0.0,0,False
2022-07-17,0.984437350191986,0.984437350191986,0.0,0,False
2022-07-18,0.984437350191986,0.984437350191986,0.0,0,False
2022-07-19,0.984437350191986,0.9826400838502835,-0.1825678740604464,2,True
2022-07-20,0.9826400838502835,0.9826400838502835,0.0,0,False
2022-07-21,0.9826400838502835,0.9835444641795023,0.09203576610421482,3,True
2022-07-22,0.9835444641795023,0.9835444641795023,0.0,0,False
2022-07-23,0.9835444641795023,0.9835444641795023,0.0,0,False
2022-07-24,0.9835444641795023,0.9876099720121411,0.4133527238171508,1,True
2022-07-25,0.9876099720121411,0.9875304654065932,-0.008050405301796015,1,True
2022-07-26,0.9875304654065932,0.9875304654065932,0.0,0,False
2022-07-27,0.9875304654065932,0.9875304654065932,0.0,0,False
2022-07-28,0.9875304654065932,0.9875304654065932,0.0,0,False
2022-07-29,0.9875304654065932,0.9850643798216381,-0.24972248161880817,1,True
2022-07-30,0.9850643798216381,0.9850643798216381,0.0,0,False
2022-07-31,0.9850643798216381,0.9831954869804516,-0.18972291349372838,1,True
2022-08-01,0.9831954869804516,0.9831954869804516,0.0,0,False
2022-08-02,0.9831954869804516,0.9831954869804516,0.0,0,False
2022-08-03,0.9831954869804516,0.9820658437623945,-0.11489507763368101,1,True
2022-08-04,0.9820658437623945,0.9820658437623945,0.0,0,False
2022-08-05,0.9820658437623945,0.9820658437623945,0.0,0,False
2022-08-06,0.9820658437623945,0.9820658437623945,0.0,0,False
2022-08-07,0.9820658437623945,0.9820658437623945,0.0,0,False
2022-08-08,0.9820658437623945,0.9820658437623945,0.0,0,False
2022-08-09,0.9820658437623945,0.9840139828522257,0.19837153508646121,1,True
2022-08-10,0.9840139828522257,0.9840139828522257,0.0,0,False
2022-08-11,0.9840139828522257,0.9840139828522257,0.0,0,False
2022-08-12,0.9840139828522257,0.982639468392092,-0.1396844439292999,1,True
2022-08-13,0.982639468392092,0.982639468392092,0.0,0,False
2022-08-14,0.982639468392092,0.982639468392092,0.0,0,False
2022-08-15,0.982639468392092,0.982639468392092,0.0,0,False
2022-08-16,0.982639468392092,0.9816642238789767,-0.0992474396241394,1,True
2022-08-17,0.9816642238789767,0.9816642238789767,0.0,0,False
2022-08-18,0.9816642238789767,0.9816642238789767,0.0,0,False
2022-08-19,0.9816642238789767,0.9718079241104334,-1.0040398263264416,8,True
2022-08-20,0.9718079241104334,0.9729045204259231,0.11284084933691485,0,True
2022-08-21,0.9729045204259231,0.9729045204259231,0.0,0,False
2022-08-22,0.9729045204259231,0.9729045204259231,0.0,0,False
2022-08-23,0.9729045204259231,0.9729045204259231,0.0,0,False
2022-08-24,0.9729045204259231,0.9729045204259231,0.0,0,False
2022-08-25,0.9729045204259231,0.9729045204259231,0.0,0,False
2022-08-26,0.9729045204259231,0.9729045204259231,0.0,0,False
2022-08-27,0.9729045204259231,0.9704758480383587,-0.24963111349314282,1,True
2022-08-28,0.9704758480383587,0.9709262560704793,0.046411050108141616,1,True
2022-08-29,0.9709262560704793,0.9710523881330214,0.012990900364839852,0,True
2022-08-30,0.9710523881330214,0.9710523881330214,0.0,0,False
2022-08-31,0.9710523881330214,0.9710523881330214,0.0,0,False
2022-09-01,0.9710523881330214,0.9710523881330214,0.0,0,False
2022-09-02,0.9710523881330214,0.9710523881330214,0.0,0,False
2022-09-03,0.9710523881330214,0.9710523881330214,0.0,0,False
2022-09-04,0.9710523881330214,0.9710523881330214,0.0,0,False
2022-09-05,0.9710523881330214,0.9710523881330214,0.0,0,False
2022-09-06,0.9710523881330214,0.9710523881330214,0.0,0,False
2022-09-07,0.9710523881330214,0.963765836463117,-0.7503767828545116,4,True
2022-09-08,0.963765836463117,0.963765836463117,0.0,0,False
2022-09-09,0.963765836463117,0.963765836463117,0.0,0,False
2022-09-10,0.963765836463117,0.963765836463117,0.0,0,False
2022-09-11,0.963765836463117,0.963765836463117,0.0,0,False
2022-09-12,0.963765836463117,0.963765836463117,0.0,0,False
2022-09-13,0.963765836463117,0.9588462328743251,-0.510456316530794,4,True
2022-09-14,0.9588462328743251,0.9543285828936655,-0.4711547926842363,1,True
2022-09-15,0.9543285828936655,0.9534341240842031,-0.09372650316625819,1,True
2022-09-16,0.9534341240842031,0.9534341240842031,0.0,0,False
2022-09-17,0.9534341240842031,0.9534341240842031,0.0,0,False
2022-09-18,0.9534341240842031,0.9534341240842031,0.0,0,False
2022-09-19,0.9534341240842031,0.9543548671183213,0.09657122719437528,5,True
2022-09-20,0.9543548671183213,0.9543548671183213,0.0,0,False
2022-09-21,0.9543548671183213,0.9543548671183213,0.0,0,False
2022-09-22,0.9543548671183213,0.9543548671183213,0.0,0,False
2022-09-23,0.9543548671183213,0.9543548671183213,0.0,0,False
2022-09-24,0.9543548671183213,0.9543548671183213,0.0,0,False
2022-09-25,0.9543548671183213,0.9543548671183213,0.0,0,False
2022-09-26,0.9543548671183213,0.9543548671183213,0.0,0,False
2022-09-27,0.9543548671183213,0.9543548671183213,0.0,0,False
2022-09-28,0.9543548671183213,0.9543548671183213,0.0,0,False
2022-09-29,0.9543548671183213,0.9543548671183213,0.0,0,False
2022-09-30,0.9543548671183213,0.9543548671183213,0.0,0,False
2022-10-01,0.9543548671183213,0.9543548671183213,0.0,0,False
2022-10-02,0.9543548671183213,0.9543548671183213,0.0,0,False
2022-10-03,0.9543548671183213,0.9543548671183213,0.0,0,False
2022-10-04,0.9543548671183213,0.9543548671183213,0.0,0,False
2022-10-05,0.9543548671183213,0.9543548671183213,0.0,0,False
2022-10-06,0.9543548671183213,0.9543548671183213,0.0,0,False
2022-10-07,0.9543548671183213,0.9543548671183213,0.0,0,False
2022-10-08,0.9543548671183213,0.9543548671183213,0.0,0,False
2022-10-09,0.9543548671183213,0.9543548671183213,0.0,0,False
2022-10-10,0.9543548671183213,0.9519722264460883,-0.24965982302027623,1,True
2022-10-11,0.9519722264460883,0.9638622515920218,1.2489886590832056,4,True
2022-10-12,0.9638622515920218,0.9638622515920218,0.0,0,False
2022-10-13,0.9638622515920218,0.9638622515920218,0.0,0,False
2022-10-14,0.9638622515920218,0.9638622515920218,0.0,0,False
2022-10-15,0.9638622515920218,0.9638622515920218,0.0,0,False
2022-10-16,0.9638622515920218,0.9638622515920218,0.0,0,False
2022-10-17,0.9638622515920218,0.9638622515920218,0.0,0,False
2022-10-18,0.9638622515920218,0.9638622515920218,0.0,0,False
2022-10-19,0.9638622515920218,0.9638622515920218,0.0,0,False
2022-10-20,0.9638622515920218,0.966531687020756,0.27695196324215576,1,True
2022-10-21,0.966531687020756,0.966531687020756,0.0,0,False
2022-10-22,0.966531687020756,0.966531687020756,0.0,0,False
2022-10-23,0.966531687020756,0.966531687020756,0.0,0,False
2022-10-24,0.966531687020756,0.966531687020756,0.0,0,False
2022-10-25,0.966531687020756,0.966531687020756,0.0,0,False
2022-10-26,0.966531687020756,0.966531687020756,0.0,0,False
2022-10-27,0.966531687020756,0.966531687020756,0.0,0,False
2022-10-28,0.966531687020756,0.966531687020756,0.0,0,False
2022-10-29,0.966531687020756,0.966531687020756,0.0,0,False
2022-10-30,0.966531687020756,0.966531687020756,0.0,0,False
2022-10-31,0.966531687020756,0.966531687020756,0.0,0,False
2022-11-01,0.966531687020756,0.966531687020756,0.0,0,False
2022-11-02,0.966531687020756,0.9711890620660494,0.4818647032307055,1,True
2022-11-03,0.9711890620660494,0.975242717135295,0.41739093113570824,3,True
2022-11-04,0.975242717135295,0.9681611626028405,-0.7261325214769188,5,True
2022-11-05,0.9681611626028405,0.9686198767729327,0.04737993918895178,1,True
2022-11-06,0.9686198767729327,0.9686198767729327,0.0,0,False
2022-11-07,0.9686198767729327,0.967820265957547,-0.08255155965306571,2,True
2022-11-08,0.967820265957547,0.9644288301071833,-0.3504200076868913,5,True
2022-11-09,0.9644288301071833,0.9445718408185094,-2.0589377534957154,12,True
2022-11-10,0.9445718408185094,0.9591571667456026,1.5441203407518866,5,True
2022-11-11,0.9591571667456026,0.9651784431010504,0.6277674362667574,5,True
2022-11-12,0.9651784431010504,0.9565928401065363,-0.8895353036407538,2,True
2022-11-13,0.9565928401065363,0.9560432241478938,-0.05745557938541257,1,True
2022-11-14,0.9560432241478938,0.955210335368606,-0.08711831831976768,2,True
2022-11-15,0.955210335368606,0.955210335368606,0.0,0,False
2022-11-16,0.955210335368606,0.955210335368606,0.0,0,False
2022-11-17,0.955210335368606,0.955210335368606,0.0,0,False
2022-11-18,0.955210335368606,0.955210335368606,0.0,0,False
2022-11-19,0.955210335368606,0.9564098156100792,0.12557236841561625,2,True
2022-11-20,0.9564098156100792,0.9552695292453833,-0.11922570702272983,1,True
2022-11-21,0.9552695292453833,0.9527441174268028,-0.26436641610201317,1,True
2022-11-22,0.9527441174268028,0.9527441174268028,0.0,0,False
2022-11-23,0.9527441174268028,0.9527441174268028,0.0,0,False
2022-11-24,0.9527441174268028,0.9527441174268028,0.0,0,False
2022-11-25,0.9527441174268028,0.9510314560202267,-0.17976090067096662,1,True
2022-11-26,0.9510314560202267,0.9510314560202267,0.0,0,False
2022-11-27,0.9510314560202267,0.9510314560202267,0.0,0,False
2022-11-28,0.9510314560202267,0.9480155330717737,-0.3171212612749663,2,True
2022-11-29,0.9480155330717737,0.9480155330717737,0.0,0,False
2022-11-30,0.9480155330717737,0.9480155330717737,0.0,0,False
2022-12-01,0.9480155330717737,0.9478658130416344,-0.01579299335466855,1,True
2022-12-02,0.9478658130416344,0.9474157281212496,-0.04748403351951813,1,True
2022-12-03,0.9474157281212496,0.9474157281212496,0.0,0,False
2022-12-04,0.9474157281212496,0.9443821920362417,-0.32019059795677096,3,True
2022-12-05,0.9443821920362417,0.9453675332062497,0.10433711883992558,1,True
2022-12-06,0.9453675332062497,0.9448900765033225,-0.05050487626837574,0,True
2022-12-07,0.9448900765033225,0.9448900765033225,0.0,0,False
2022-12-08,0.9448900765033225,0.9425339044697474,-0.24935937969571276,1,True
2022-12-09,0.9425339044697474,0.9425339044697474,0.0,0,False
2022-12-10,0.9425339044697474,0.9425339044697474,0.0,0,False
2022-12-11,0.9425339044697474,0.9425339044697474,0.0,0,False
2022-12-12,0.9425339044697474,0.9425339044697474,0.0,0,False
2022-12-13,0.9425339044697474,0.9425339044697474,0.0,0,False
2022-12-14,0.9425339044697474,0.9425339044697474,0.0,0,False
2022-12-15,0.9425339044697474,0.9425339044697474,0.0,0,False
2022-12-16,0.9425339044697474,0.9425339044697474,0.0,0,False
2022-12-17,0.9425339044697474,0.9446729213451039,0.22694322880192352,4,True
2022-12-18,0.9446729213451039,0.9446729213451039,0.0,0,False
2022-12-19,0.9446729213451039,0.9446729213451039,0.0,0,False
2022-12-20,0.9446729213451039,0.9446729213451039,0.0,0,False
2022-12-21,0.9446729213451039,0.9446729213451039,0.0,0,False
2022-12-22,0.9446729213451039,0.9446729213451039,0.0,0,False
2022-12-23,0.9446729213451039,0.9446729213451039,0.0,0,False
2022-12-24,0.9446729213451039,0.9446729213451039,0.0,0,False
2022-12-25,0.9446729213451039,0.9446729213451039,0.0,0,False
2022-12-26,0.9446729213451039,0.9446729213451039,0.0,0,False
2022-12-27,0.9446729213451039,0.9446729213451039,0.0,0,False
2022-12-28,0.9446729213451039,0.9462239620690602,0.164188121508535,1,True
2022-12-29,0.9462239620690602,0.9455621857154747,-0.06993865935697174,0,True
2022-12-30,0.9455621857154747,0.9455621857154747,0.0,0,False
2022-12-31,0.9455621857154747,0.9455621857154747,0.0,0,False
2023-01-01,0.9455621857154747,0.9455621857154747,0.0,0,False
2023-01-02,0.9455621857154747,0.9457168083280205,0.016352453057200123,1,True
2023-01-03,0.9457168083280205,0.945776531732148,0.006315146733304466,0,True
2023-01-04,0.945776531732148,0.945776531732148,0.0,0,False
2023-01-05,0.945776531732148,0.945776531732148,0.0,0,False
2023-01-06,0.945776531732148,0.945776531732148,0.0,0,False
2023-01-07,0.945776531732148,0.945776531732148,0.0,0,False
2023-01-08,0.945776531732148,0.945776531732148,0.0,0,False
2023-01-09,0.945776531732148,0.945776531732148,0.0,0,False
2023-01-10,0.945776531732148,0.9448789815250683,-0.0949008753088787,2,True
2023-01-11,0.9448789815250683,0.9452633722549642,0.040681477460258186,0,True
2023-01-12,0.9452633722549642,0.9452633722549642,0.0,0,False
2023-01-13,0.9452633722549642,0.9452633722549642,0.0,0,False
2023-01-14,0.9452633722549642,0.942497973668006,-0.2925532362860084,3,True
2023-01-15,0.942497973668006,0.9427770719386784,0.0296126122782292,1,True
2023-01-16,0.9427770719386784,0.9427770719386784,0.0,0,False
2023-01-17,0.9427770719386784,0.9427770719386784,0.0,0,False
2023-01-18,0.9427770719386784,0.9427770719386784,0.0,0,False
2023-01-19,0.9427770719386784,0.9404240751461492,-0.24958146125579894,1,True
2023-01-20,0.9404240751461492,0.9404240751461492,0.0,0,False
2023-01-21,0.9404240751461492,0.941193545156711,0.08182159845728787,1,True
2023-01-22,0.941193545156711,0.9402272908931408,-0.10266265302630861,0,True
2023-01-23,0.9402272908931408,0.9402272908931408,0.0,0,False
2023-01-24,0.9402272908931408,0.9419895754505403,0.18743175979558657,1,True
2023-01-25,0.9419895754505403,0.9414370826707218,-0.05865168726036929,5,True
2023-01-26,0.9414370826707218,0.9427352219649343,0.13788911846661644,1,True
2023-01-27,0.9427352219649343,0.9427352219649343,0.0,0,False
2023-01-28,0.9427352219649343,0.9427352219649343,0.0,0,False
2023-01-29,0.9427352219649343,0.9427352219649343,0.0,0,False
2023-01-30,0.9427352219649343,0.942620351481901,-0.012184808667048408,2,True
2023-01-31,0.942620351481901,0.9423102903793478,-0.032893529411481826,2,True
2023-02-01,0.9423102903793478,0.9423102903793478,0.0,0,False
2023-02-02,0.9423102903793478,0.9423102903793478,0.0,0,False
2023-02-03,0.9423102903793478,0.9423102903793478,0.0,0,False
2023-02-04,0.9423102903793478,0.9423102903793478,0.0,0,False
2023-02-05,0.9423102903793478,0.9438304969114382,0.1613275953378901,5,True
2023-02-06,0.9438304969114382,0.947413542547771,0.3796280844980071,1,True
2023-02-07,0.947413542547771,0.947413542547771,0.0,0,False
2023-02-08,0.947413542547771,0.947413542547771,0.0,0,False
2023-02-09,0.947413542547771,0.947413542547771,0.0,0,False
2023-02-10,0.947413542547771,0.9485835165651374,0.12349137571119329,1,True
2023-02-11,0.9485835165651374,0.9472520212620796,-0.14036669199979368,0,True
2023-02-12,0.9472520212620796,0.9448867604229251,-0.24969710130606781,1,True
2023-02-13,0.9448867604229251,0.9448867604229251,0.0,0,False
2023-02-14,0.9448867604229251,0.9448867604229251,0.0,0,False
2023-02-15,0.9448867604229251,0.9448867604229251,0.0,0,False
2023-02-16,0.9448867604229251,0.9448867604229251,0.0,0,False
2023-02-17,0.9448867604229251,0.9448867604229251,0.0,0,False
2023-02-18,0.9448867604229251,0.9448867604229251,0.0,0,False
2023-02-19,0.9448867604229251,0.9448867604229251,0.0,0,False
2023-02-20,0.9448867604229251,0.9448867604229251,0.0,0,False
2023-02-21,0.9448867604229251,0.938776785066437,-0.6466357252961519,3,True
2023-02-22,0.938776785066437,0.937068374224703,-0.18198264687735444,2,True
2023-02-23,0.937068374224703,0.9442900229423722,0.7706640108993135,1,True
2023-02-24,0.9442900229423722,0.9442900229423722,0.0,0,False
2023-02-25,0.9442900229423722,0.9442900229423722,0.0,0,False
2023-02-26,0.9442900229423722,0.9450753988192183,0.08317104467534531,1,True
2023-02-27,0.9450753988192183,0.9427162878795562,-0.2496214527020424,1,True
2023-02-28,0.9427162878795562,0.9427162878795562,0.0,0,False
2023-03-01,0.9427162878795562,0.9427162878795562,0.0,0,False
2023-03-02,0.9427162878795562,0.9427162878795562,0.0,0,False
2023-03-03,0.9427162878795562,0.9411974077330083,-0.16111741847213423,6,True
2023-03-04,0.9411974077330083,0.9411974077330083,0.0,0,False
2023-03-05,0.9411974077330083,0.9411974077330083,0.0,0,False
2023-03-06,0.9411974077330083,0.9411974077330083,0.0,0,False
2023-03-07,0.9411974077330083,0.9411974077330083,0.0,0,False
2023-03-08,0.9411974077330083,0.9411974077330083,0.0,0,False
2023-03-09,0.9411974077330083,0.9411974077330083,0.0,0,False
2023-03-10,0.9411974077330083,0.9406662417092555,-0.056435134583743274,1,True
2023-03-11,0.9406662417092555,0.9474396417620177,0.7200641154565535,3,True
2023-03-12,0.9474396417620177,0.9483613351346639,0.09728254255143565,0,True
2023-03-13,0.9483613351346639,0.9483613351346639,0.0,0,False
2023-03-14,0.9483613351346639,0.9483613351346639,0.0,0,False
2023-03-15,0.9483613351346639,0.9483613351346639,0.0,0,False
2023-03-16,0.9483613351346639,0.951024707011388,0.2808393571154921,5,True
2023-03-17,0.951024707011388,0.9481709107608789,-0.3000759317260182,2,True
2023-03-18,0.9481709107608789,0.9481709107608789,0.0,0,False
2023-03-19,0.9481709107608789,0.9481709107608789,0.0,0,False
2023-03-20,0.9481709107608789,0.9481709107608789,0.0,0,False
2023-03-21,0.9481709107608789,0.9434442966597179,-0.49849811331672544,2,True
2023-03-22,0.9434442966597179,0.9434442966597179,0.0,0,False
2023-03-23,0.9434442966597179,0.9437544526074436,0.03287485533844947,3,True
2023-03-24,0.9437544526074436,0.9437544526074436,0.0,0,False
2023-03-25,0.9437544526074436,0.9415051567043489,-0.23833486526927405,1,True
2023-03-26,0.9415051567043489,0.9415051567043489,0.0,0,False
2023-03-27,0.9415051567043489,0.9415051567043489,0.0,0,False
2023-03-28,0.9415051567043489,0.9415051567043489,0.0,0,False
2023-03-29,0.9415051567043489,0.9415051567043489,0.0,0,False
2023-03-30,0.9415051567043489,0.9415051567043489,0.0,0,False
2023-03-31,0.9415051567043489,0.9415051567043489,0.0,0,False
2023-04-01,0.9415051567043489,0.9415051567043489,0.0,0,False
2023-04-02,0.9415051567043489,0.9415051567043489,0.0,0,False
2023-04-03,0.9415051567043489,0.9415051567043489,0.0,0,False
2023-04-04,0.9415051567043489,0.9391547818663558,-0.24964014495898468,1,True
2023-04-05,0.9391547818663558,0.9391547818663558,0.0,0,False
2023-04-06,0.9391547818663558,0.9368114941665582,-0.24951027722405206,1,True
2023-04-07,0.9368114941665582,0.9358886036183028,-0.09851400778086994,1,True
2023-04-08,0.9358886036183028,0.9358886036183028,0.0,0,False
2023-04-09,0.9358886036183028,0.9358886036183028,0.0,0,False
2023-04-10,0.9358886036183028,0.9358886036183028,0.0,0,False
2023-04-11,0.9358886036183028,0.9358886036183028,0.0,0,False
2023-04-12,0.9358886036183028,0.9358886036183028,0.0,0,False
2023-04-13,0.9358886036183028,0.9358886036183028,0.0,0,False
2023-04-14,0.9358886036183028,0.9358886036183028,0.0,0,False
2023-04-15,0.9358886036183028,0.9358886036183028,0.0,0,False
2023-04-16,0.9358886036183028,0.9358886036183028,0.0,0,False
2023-04-17,0.9358886036183028,0.9335524612866931,-0.24961756373331756,1,True
2023-04-18,0.9335524612866931,0.9335524612866931,0.0,0,False
2023-04-19,0.9335524612866931,0.9278122387302997,-0.6148794839533456,3,True
2023-04-20,0.9278122387302997,0.9278122387302997,0.0,0,False
2023-04-21,0.9278122387302997,0.9278122387302997,0.0,0,False
2023-04-22,0.9278122387302997,0.9278122387302997,0.0,0,False
2023-04-23,0.9278122387302997,0.9278122387302997,0.0,0,False
2023-04-24,0.9278122387302997,0.9278122387302997,0.0,0,False
2023-04-25,0.9278122387302997,0.9278122387302997,0.0,0,False
2023-04-26,0.9278122387302997,0.9278122387302997,0.0,0,False
2023-04-27,0.9278122387302997,0.9278122387302997,0.0,0,False
2023-04-28,0.9278122387302997,0.9278122387302997,0.0,0,False
2023-04-29,0.9278122387302997,0.9278122387302997,0.0,0,False
2023-04-30,0.9278122387302997,0.9278122387302997,0.0,0,False
2023-05-01,0.9278122387302997,0.9278122387302997,0.0,0,False
2023-05-02,0.9278122387302997,0.9278122387302997,0.0,0,False
2023-05-03,0.9278122387302997,0.9278122387302997,0.0,0,False
2023-05-04,0.9278122387302997,0.9278122387302997,0.0,0,False
2023-05-05,0.9278122387302997,0.9278122387302997,0.0,0,False
2023-05-06,0.9278122387302997,0.9278122387302997,0.0,0,False
2023-05-07,0.9278122387302997,0.9278122387302997,0.0,0,False
2023-05-08,0.9278122387302997,0.9218205694530894,-0.645784677879413,5,True
2023-05-09,0.9218205694530894,0.9207808612125906,-0.11278857024373812,2,True
2023-05-10,0.9207808612125906,0.9214673954472891,0.07456000266929941,1,True
2023-05-11,0.9214673954472891,0.9214673954472891,0.0,0,False
2023-05-12,0.9214673954472891,0.9214673954472891,0.0,0,False
2023-05-13,0.9214673954472891,0.9214673954472891,0.0,0,False
2023-05-14,0.9214673954472891,0.9214673954472891,0.0,0,False
2023-05-15,0.9214673954472891,0.9214673954472891,0.0,0,False
2023-05-16,0.9214673954472891,0.9214673954472891,0.0,0,False
2023-05-17,0.9214673954472891,0.9214673954472891,0.0,0,False
2023-05-18,0.9214673954472891,0.9214673954472891,0.0,0,False
2023-05-19,0.9214673954472891,0.9214673954472891,0.0,0,False
2023-05-20,0.9214673954472891,0.9214673954472891,0.0,0,False
2023-05-21,0.9214673954472891,0.9214673954472891,0.0,0,False
2023-05-22,0.9214673954472891,0.9214673954472891,0.0,0,False
2023-05-23,0.9214673954472891,0.9214673954472891,0.0,0,False
2023-05-24,0.9214673954472891,0.9214673954472891,0.0,0,False
2023-05-25,0.9214673954472891,0.9214673954472891,0.0,0,False
2023-05-26,0.9214673954472891,0.922627801824237,0.12593026977201216,1,True
2023-05-27,0.922627801824237,0.9225234029068881,-0.01131538819256761,1,True
2023-05-28,0.9225234029068881,0.9225234029068881,0.0,0,False
2023-05-29,0.9225234029068881,0.9225234029068881,0.0,0,False
2023-05-30,0.9225234029068881,0.9278143788156693,0.5735329740263806,1,True
2023-05-31,0.9278143788156693,0.9320755159523131,0.4592661241231255,0,True
2023-06-01,0.9320755159523131,0.9320755159523131,0.0,0,False
2023-06-02,0.9320755159523131,0.9395892142161373,0.8061254839579535,3,True
2023-06-03,0.9395892142161373,0.9370529346206649,-0.2699349414720942,1,True
2023-06-04,0.9370529346206649,0.9370529346206649,0.0,0,False
2023-06-05,0.9370529346206649,0.9370529346206649,0.0,0,False
2023-06-06,0.9370529346206649,0.9277278653326994,-0.9951486136416055,4,True
2023-06-07,0.9277278653326994,0.9277278653326994,0.0,0,False
2023-06-08,0.9277278653326994,0.9259482959990571,-0.1918201878094994,1,True
2023-06-09,0.9259482959990571,0.9259482959990571,0.0,0,False
2023-06-10,0.9259482959990571,0.9375882740121294,1.2570872545872858,5,True
2023-06-11,0.9375882740121294,0.9370418942446366,-0.05827502141795282,0,True
2023-06-12,0.9370418942446366,0.9370418942446366,0.0,0,False
2023-06-13,0.9370418942446366,0.9347020936479288,-0.24970074562076228,1,True
2023-06-14,0.9347020936479288,0.9347020936479288,0.0,0,False
2023-06-15,0.9347020936479288,0.9347020936479288,0.0,0,False
2023-06-16,0.9347020936479288,0.9347020936479288,0.0,0,False
2023-06-17,0.9347020936479288,0.9347020936479288,0.0,0,False
2023-06-18,0.9347020936479288,0.9347020936479288,0.0,0,False
2023-06-19,0.9347020936479288,0.9381201969729323,0.3656890626684506,1,True
2023-06-20,0.9381201969729323,0.9386698424539828,0.058590091421550916,0,True
2023-06-21,0.9386698424539828,0.9386698424539828,0.0,0,False
2023-06-22,0.9386698424539828,0.9550146380626376,1.7412720500239232,2,True
2023-06-23,0.9550146380626376,0.9550146380626376,0.0,0,False
2023-06-24,0.9550146380626376,0.9550146380626376,0.0,0,False
2023-06-25,0.9550146380626376,0.9533536032042976,-0.17392768572737083,1,True
2023-06-26,0.9533536032042976,0.9533536032042976,0.0,0,False
2023-06-27,0.9533536032042976,0.9533536032042976,0.0,0,False
2023-06-28,0.9533536032042976,0.9533536032042976,0.0,0,False
2023-06-29,0.9533536032042976,0.9533536032042976,0.0,0,False
2023-06-30,0.9533536032042976,0.9438545413085352,-0.9963839087443915,4,True
2023-07-01,0.9438545413085352,0.941498970582522,-0.24956925277358488,1,True
2023-07-02,0.941498970582522,0.941498970582522,0.0,0,False
2023-07-03,0.941498970582522,0.941498970582522,0.0,0,False
2023-07-04,0.941498970582522,0.941498970582522,0.0,0,False
2023-07-05,0.941498970582522,0.939147868310228,-0.24971904863998473,1,True
2023-07-06,0.939147868310228,0.939147868310228,0.0,0,False
2023-07-07,0.939147868310228,0.939147868310228,0.0,0,False
2023-07-08,0.939147868310228,0.939147868310228,0.0,0,False
2023-07-09,0.939147868310228,0.939147868310228,0.0,0,False
2023-07-10,0.939147868310228,0.939147868310228,0.0,0,False
2023-07-11,0.939147868310228,0.939147868310228,0.0,0,False
2023-07-12,0.939147868310228,0.939147868310228,0.0,0,False
2023-07-13,0.939147868310228,0.939147868310228,0.0,0,False
2023-07-14,0.939147868310228,0.939147868310228,0.0,0,False
2023-07-15,0.939147868310228,0.939147868310228,0.0,0,False
2023-07-16,0.939147868310228,0.939147868310228,0.0,0,False
2023-07-17,0.939147868310228,0.939147868310228,0.0,0,False
2023-07-18,0.939147868310228,0.939147868310228,0.0,0,False
2023-07-19,0.939147868310228,0.939147868310228,0.0,0,False
2023-07-20,0.939147868310228,0.939147868310228,0.0,0,False
2023-07-21,0.939147868310228,0.939147868310228,0.0,0,False
2023-07-22,0.939147868310228,0.939147868310228,0.0,0,False
2023-07-23,0.939147868310228,0.939147868310228,0.0,0,False
2023-07-24,0.939147868310228,0.937038046941857,-0.22465273462922708,2,True
2023-07-25,0.937038046941857,0.9368274686430399,-0.02247275865738807,0,True
2023-07-26,0.9368274686430399,0.9368274686430399,0.0,0,False
2023-07-27,0.9368274686430399,0.9368274686430399,0.0,0,False
2023-07-28,0.9368274686430399,0.9368274686430399,0.0,0,False
2023-07-29,0.9368274686430399,0.9368274686430399,0.0,0,False
2023-07-30,0.9368274686430399,0.9368274686430399,0.0,0,False
2023-07-31,0.9368274686430399,0.9368274686430399,0.0,0,False
2023-08-01,0.9368274686430399,0.9368274686430399,0.0,0,False
2023-08-02,0.9368274686430399,0.9368274686430399,0.0,0,False
2023-08-03,0.9368274686430399,0.9368274686430399,0.0,0,False
2023-08-04,0.9368274686430399,0.9368274686430399,0.0,0,False
2023-08-05,0.9368274686430399,0.9368274686430399,0.0,0,False
2023-08-06,0.9368274686430399,0.9368274686430399,0.0,0,False
2023-08-07,0.9368274686430399,0.9368274686430399,0.0,0,False
2023-08-08,0.9368274686430399,0.9368274686430399,0.0,0,False
2023-08-09,0.9368274686430399,0.9368274686430399,0.0,0,False
2023-08-10,0.9368274686430399,0.9368274686430399,0.0,0,False
2023-08-11,0.9368274686430399,0.9368274686430399,0.0,0,False
2023-08-12,0.9368274686430399,0.9368274686430399,0.0,0,False
2023-08-13,0.9368274686430399,0.9389719073285354,0.22890433481863592,1,True
2023-08-14,0.9389719073285354,0.9391349227560206,0.017361054810360876,1,True
2023-08-15,0.9391349227560206,0.9393217387937937,0.019892353403783147,0,True
2023-08-16,0.9393217387937937,0.9441957502423386,0.5188862609316169,4,True
2023-08-17,0.9441957502423386,0.9451884627420781,0.10513842065955625,1,True
2023-08-18,0.9451884627420781,0.9743102651251939,3.0810577499677416,4,True
2023-08-19,0.9743102651251939,0.9764567755915601,0.22031077195829862,2,True
2023-08-20,0.9764567755915601,0.9759323654332974,-0.05370541445062216,0,True
2023-08-21,0.9759323654332974,0.9759323654332974,0.0,0,False
2023-08-22,0.9759323654332974,0.9759323654332974,0.0,0,False
2023-08-23,0.9759323654332974,0.9759323654332974,0.0,0,False
2023-08-24,0.9759323654332974,0.9759323654332974,0.0,0,False
2023-08-25,0.9759323654332974,0.97282892024526,-0.31799797792949613,5,True
2023-08-26,0.97282892024526,0.9738155415860129,0.10141776423588933,0,True
2023-08-27,0.9738155415860129,0.9738155415860129,0.0,0,False
2023-08-28,0.9738155415860129,0.9738155415860129,0.0,0,False
2023-08-29,0.9738155415860129,0.9746728778167469,0.08803887328987514,1,True
2023-08-30,0.9746728778167469,0.9746728778167469,0.0,0,False
2023-08-31,0.9746728778167469,0.9746728778167469,0.0,0,False
2023-09-01,0.9746728778167469,0.9746728778167469,0.0,0,False
2023-09-02,0.9746728778167469,0.9885593220279368,1.4247286989554242,3,True
2023-09-03,0.9885593220279368,0.9884404205884254,-0.012027749560594714,0,True
2023-09-04,0.9884404205884254,0.9880226930388164,-0.042261277554833665,1,True
2023-09-05,0.9880226930388164,0.9908690840106611,0.28808963517732433,2,True
2023-09-06,0.9908690840106611,1.0032005400460373,1.2445091116843887,1,True
2023-09-07,1.0032005400460373,1.0032005400460373,0.0,0,False
2023-09-08,1.0032005400460373,1.0015089836306872,-0.16861597934073602,3,True
2023-09-09,1.0015089836306872,0.9980185572601509,-0.3485167310115167,1,True
2023-09-10,0.9980185572601509,0.9967307474185899,-0.12903666291500526,3,True
2023-09-11,0.9967307474185899,0.9969942137602646,0.02643305048601885,1,True
2023-09-12,0.9969942137602646,0.9969942137602646,0.0,0,False
2023-09-13,0.9969942137602646,0.9958068685110868,-0.11909249148995826,1,True
2023-09-14,0.9958068685110868,0.9958068685110868,0.0,0,False
2023-09-15,0.9958068685110868,0.9958068685110868,0.0,0,False
2023-09-16,0.9958068685110868,0.9982416941001165,0.24450781231004637,1,True
2023-09-17,0.9982416941001165,1.002328900688173,0.4094405805941559,1,True
2023-09-18,1.002328900688173,0.9962643347294634,-0.6050475003310685,3,True
2023-09-19,0.9962643347294634,0.9962643347294634,0.0,0,False
2023-09-20,0.9962643347294634,0.9979303151378957,0.16722272898432866,1,True
2023-09-21,0.9979303151378957,0.9995338893202471,0.16068999588711996,0,True
2023-09-22,0.9995338893202471,0.9995338893202471,0.0,0,False
2023-09-23,0.9995338893202471,0.9995338893202471,0.0,0,False
2023-09-24,0.9995338893202471,0.9995338893202471,0.0,0,False
2023-09-25,0.9995338893202471,0.9995338893202471,0.0,0,False
2023-09-26,0.9995338893202471,1.0000926733570439,0.055904461346156786,1,True
2023-09-27,1.0000926733570439,0.9955557764723855,-0.45364764741544494,1,True
2023-09-28,0.9955557764723855,0.9955557764723855,0.0,0,False
2023-09-29,0.9955557764723855,0.9955557764723855,0.0,0,False
2023-09-30,0.9955557764723855,0.9955557764723855,0.0,0,False
2023-10-01,0.9955557764723855,0.9955557764723855,0.0,0,False
2023-10-02,0.9955557764723855,0.9955557764723855,0.0,0,False
2023-10-03,0.9955557764723855,0.9956897576382336,0.013457926618931637,1,True
2023-10-04,0.9956897576382336,0.9949651117459615,-0.07277828125811237,0,True
2023-10-05,0.9949651117459615,0.9949651117459615,0.0,0,False
2023-10-06,0.9949651117459615,0.9949651117459615,0.0,0,False
2023-10-07,0.9949651117459615,0.9949651117459615,0.0,0,False
2023-10-08,0.9949651117459615,0.9949651117459615,0.0,0,False
2023-10-09,0.9949651117459615,0.9929917104814419,-0.1983387398435177,1,True
2023-10-10,0.9929917104814419,0.9929917104814419,0.0,0,False
2023-10-11,0.9929917104814419,0.9929917104814419,0.0,0,False
2023-10-12,0.9929917104814419,0.9929917104814419,0.0,0,False
2023-10-13,0.9929917104814419,0.9929917104814419,0.0,0,False
2023-10-14,0.9929917104814419,0.9929917104814419,0.0,0,False
2023-10-15,0.9929917104814419,0.9929312364476027,-0.0060900844589983905,1,True
2023-10-16,0.9929312364476027,0.9927272282697838,-0.020546052972292284,1,True
2023-10-17,0.9927272282697838,0.9901128460146763,-0.26335353565994923,1,True
2023-10-18,0.9901128460146763,0.9901128460146763,0.0,0,False
2023-10-19,0.9901128460146763,0.9851790741208474,-0.4983039977400461,2,True
2023-10-20,0.9851790741208474,0.9851790741208474,0.0,0,False
2023-10-21,0.9851790741208474,0.9852795797732113,0.010201764836881289,1,True
2023-10-22,0.9852795797732113,0.9852795797732113,0.0,0,False
2023-10-23,0.9852795797732113,0.9852795797732113,0.0,0,False
2023-10-24,0.9852795797732113,0.982819935609791,-0.24963921042456816,1,True
2023-10-25,0.982819935609791,0.9828668697426236,0.004775455923522465,1,True
2023-10-26,0.9828668697426236,0.9878198822549944,0.5039352393338747,5,True
2023-10-27,0.9878198822549944,0.987886344065428,0.006728130464628279,2,True
2023-10-28,0.987886344065428,0.9888496498865205,0.09751180658377212,1,True
2023-10-29,0.9888496498865205,0.9888496498865205,0.0,0,False
2023-10-30,0.9888496498865205,0.9888496498865205,0.0,0,False
2023-10-31,0.9888496498865205,0.9888496498865205,0.0,0,False
2023-11-01,0.9888496498865205,0.9888496498865205,0.0,0,False
2023-11-02,0.9888496498865205,0.9888496498865205,0.0,0,False
2023-11-03,0.9888496498865205,0.9863813490418202,-0.24961336083635377,1,True
2023-11-04,0.9863813490418202,0.9863813490418202,0.0,0,False
2023-11-05,0.9863813490418202,0.9937732973286195,0.749400654623078,1,True
2023-11-06,0.9937732973286195,0.994744118243906,0.09769038048175194,1,True
2023-11-07,0.994744118243906,0.991576538681563,-0.3184315950452543,1,True
2023-11-08,0.991576538681563,0.991576538681563,0.0,0,False
2023-11-09,0.991576538681563,0.9850813584644906,-0.6550356894999387,4,True
2023-11-10,0.9850813584644906,0.9867309488847261,0.16745727711331426,4,True
2023-11-11,0.9867309488847261,0.9867309488847261,0.0,0,False
2023-11-12,0.9867309488847261,0.9867309488847261,0.0,0,False
2023-11-13,0.9867309488847261,0.9854777225492954,-0.12700790796591477,1,True
2023-11-14,0.9854777225492954,0.9894134047412521,0.3993679513906834,2,True
2023-11-15,0.9894134047412521,0.9894134047412521,0.0,0,False
2023-11-16,0.9894134047412521,0.9894134047412521,0.0,0,False
2023-11-17,0.9894134047412521,0.9885411504979402,-0.08815872507205169,1,True
2023-11-18,0.9885411504979402,0.9863755748169786,-0.21906783343018654,2,True
2023-11-19,0.9863755748169786,0.9866078223706196,0.023545549947767697,0,True
2023-11-20,0.9866078223706196,0.9877162886613399,0.11235125706350324,1,True
2023-11-21,0.9877162886613399,0.9860009444285628,-0.1736677072625703,0,True
2023-11-22,0.9860009444285628,0.9845851002205284,-0.1435946097247398,1,True
2023-11-23,0.9845851002205284,0.9845851002205284,0.0,0,False
2023-11-24,0.9845851002205284,0.9845851002205284,0.0,0,False
2023-11-25,0.9845851002205284,0.9884919283436964,0.3967994358530236,1,True
2023-11-26,0.9884919283436964,0.9884919283436964,0.0,0,False
2023-11-27,0.9884919283436964,0.9853776833519345,-0.3150501185153809,2,True
2023-11-28,0.9853776833519345,0.9829171087699441,-0.2497087790359065,1,True
2023-11-29,0.9829171087699441,0.9795938326534578,-0.338103395172884,2,True
2023-11-30,0.9795938326534578,0.979389114414037,-0.020898277693959244,1,True
2023-12-01,0.979389114414037,0.979389114414037,0.0,0,False
2023-12-02,0.979389114414037,0.9840374255993217,0.47461331935119144,1,True
2023-12-03,0.9840374255993217,0.984479618813311,0.04493662562885525,1,True
2023-12-04,0.984479618813311,0.9831930189120435,-0.13068832271189157,5,True
2023-12-05,0.9831930189120435,0.9818413720350555,-0.1374752313115124,1,True
2023-12-06,0.9818413720350555,0.9818413720350555,0.0,0,False
2023-12-07,0.9818413720350555,0.9793907975521429,-0.24958965396144617,1,True
2023-12-08,0.9793907975521429,0.9793907975521429,0.0,0,False
2023-12-09,0.9793907975521429,0.9793907975521429,0.0,0,False
2023-12-10,0.9793907975521429,0.9793907975521429,0.0,0,False
2023-12-11,0.9793907975521429,0.9870467421208717,0.7817047687056045,4,True
2023-12-12,0.9870467421208717,0.9870467421208717,0.0,0,False
2023-12-13,0.9870467421208717,0.9865977105526236,-0.04549243202842668,1,True
2023-12-14,0.9865977105526236,0.9865977105526236,0.0,0,False
2023-12-15,0.9865977105526236,0.9865977105526236,0.0,0,False
2023-12-16,0.9865977105526236,0.9852082395333339,-0.1408346081110734,1,True
2023-12-17,0.9852082395333339,0.9827489734861149,-0.2496189078142419,1,True
2023-12-18,0.9827489734861149,0.9851931467672523,0.24870779284227318,1,True
2023-12-19,0.9851931467672523,0.9843249034592926,-0.08812924763116348,0,True
2023-12-20,0.9843249034592926,0.9843249034592926,0.0,0,False
2023-12-21,0.9843249034592926,0.9818675638163379,-0.24964720838807075,1,True
2023-12-22,0.9818675638163379,0.9818675638163379,0.0,0,False
2023-12-23,0.9818675638163379,0.9818675638163379,0.0,0,False
2023-12-24,0.9818675638163379,0.9807805876622877,-0.11070496613874159,1,True
2023-12-25,0.9807805876622877,0.9794184627791024,-0.13888171323128695,0,True
2023-12-26,0.9794184627791024,0.9794184627791024,0.0,0,False
2023-12-27,0.9794184627791024,0.9774772991185128,-0.19819553483620966,2,True
2023-12-28,0.9774772991185128,0.9784512514913903,0.09963938536023953,1,True
2023-12-29,0.9784512514913903,0.9787850393028552,0.03411389284402322,1,True
2023-12-30,0.9787850393028552,0.9789117495411358,0.012945665615293755,2,True
2023-12-31,0.9789117495411358,0.9764674864624897,-0.24969187261179027,1,True
