day,start_equity,end_equity,return_pct,entries,active
2024-01-02,1.0,1.0,0.0,0,False
2024-01-03,1.0,1.0092932468531264,0.929324685312638,4,True
2024-01-04,1.0092932468531264,1.0110458065700842,0.17364227120533204,1,True
2024-01-05,1.0110458065700842,1.0110458065700842,0.0,0,False
2024-01-06,1.0110458065700842,1.0110458065700842,0.0,0,False
2024-01-07,1.0110458065700842,1.0110458065700842,0.0,0,False
2024-01-08,1.0110458065700842,1.0080903197317614,-0.29231977612855786,1,True
2024-01-09,1.0080903197317614,1.0081193771343773,0.0028824205576594153,0,True
2024-01-10,1.0081193771343773,1.0071027496715028,-0.10084395617553366,1,True
2024-01-11,1.0071027496715028,1.0071027496715028,0.0,0,False
2024-01-12,1.0071027496715028,1.0071027496715028,0.0,0,False
2024-01-13,1.0071027496715028,1.0071027496715028,0.0,0,False
2024-01-14,1.0071027496715028,1.0071027496715028,0.0,0,False
2024-01-15,1.0071027496715028,1.0071027496715028,0.0,0,False
2024-01-16,1.0071027496715028,1.0071027496715028,0.0,0,False
2024-01-17,1.0071027496715028,1.0071027496715028,0.0,0,False
2024-01-18,1.0071027496715028,1.0071027496715028,0.0,0,False
2024-01-19,1.0071027496715028,1.0071027496715028,0.0,0,False
2024-01-20,1.0071027496715028,1.0071027496715028,0.0,0,False
2024-01-21,1.0071027496715028,1.0071027496715028,0.0,0,False
2024-01-22,1.0071027496715028,1.0071027496715028,0.0,0,False
2024-01-23,1.0071027496715028,0.9970767511019515,-0.9955288646388505,2,True
2024-01-24,0.9970767511019515,0.9970767511019515,0.0,0,False
2024-01-25,0.9970767511019515,0.9970767511019515,0.0,0,False
2024-01-26,0.9970767511019515,0.9970767511019515,0.0,0,False
2024-01-27,0.9970767511019515,0.9970767511019515,0.0,0,False
2024-01-28,0.9970767511019515,0.9936882604698625,-0.339842507444299,2,True
2024-01-29,0.9936882604698625,0.9936145346625538,-0.007419410114983815,0,True
2024-01-30,0.9936145346625538,0.9936145346625538,0.0,0,False
2024-01-31,0.9936145346625538,0.9936145346625538,0.0,0,False
2024-02-01,0.9936145346625538,0.9936145346625538,0.0,0,False
2024-02-02,0.9936145346625538,0.9936145346625538,0.0,0,False
2024-02-03,0.9936145346625538,0.9936145346625538,0.0,0,False
2024-02-04,0.9936145346625538,0.9936145346625538,0.0,0,False
2024-02-05,0.9936145346625538,0.9936145346625538,0.0,0,False
2024-02-06,0.9936145346625538,0.986869806351539,-0.6788073317894217,2,True
2024-02-07,0.986869806351539,0.9837182754855467,-0.31934616356776857,0,True
2024-02-08,0.9837182754855467,0.9837182754855467,0.0,0,False
2024-02-09,0.9837182754855467,0.9837182754855467,0.0,0,False
2024-02-10,0.9837182754855467,0.9837182754855467,0.0,0,False
2024-02-11,0.9837182754855467,0.9837182754855467,0.0,0,False
2024-02-12,0.9837182754855467,0.9837182754855467,0.0,0,False
2024-02-13,0.9837182754855467,0.9837182754855467,0.0,0,False
2024-02-14,0.9837182754855467,0.9837182754855467,0.0,0,False
2024-02-15,0.9837182754855467,0.999026376189022,1.5561468242439203,1,True
2024-02-16,0.999026376189022,0.9953288136705324,-0.37011660618958553,0,True
2024-02-17,0.9953288136705324,0.9953288136705324,0.0,0,False
2024-02-18,0.9953288136705324,0.9953288136705324,0.0,0,False
2024-02-19,0.9953288136705324,0.9953288136705324,0.0,0,False
2024-02-20,0.9953288136705324,0.9953288136705324,0.0,0,False
2024-02-21,0.9953288136705324,1.0093840590710754,1.4121208195220225,5,True
2024-02-22,1.0093840590710754,1.0230970919392988,1.3585545308535174,1,True
2024-02-23,1.0230970919392988,1.0233936856984562,0.028989795933753726,0,True
2024-02-24,1.0233936856984562,1.0233936856984562,0.0,0,False
2024-02-25,1.0233936856984562,1.0233936856984562,0.0,0,False
2024-02-26,1.0233936856984562,1.0221329192579653,-0.12319466673574864,1,True
2024-02-27,1.0221329192579653,1.0209287331991712,-0.11781110226528613,1,True
2024-02-28,1.0209287331991712,1.0209287331991712,0.0,0,False
2024-02-29,1.0209287331991712,1.0284918802710135,0.7408104822500539,2,True
2024-03-01,1.0284918802710135,1.0284918802710135,0.0,0,False
2024-03-02,1.0284918802710135,1.0284918802710135,0.0,0,False
2024-03-03,1.0284918802710135,1.0435235676306427,1.4615270813483017,4,True
2024-03-04,1.0435235676306427,1.0464023114717822,0.2758676402178306,0,True
2024-03-05,1.0464023114717822,1.045970205542214,-0.041294435689887,1,True
2024-03-06,1.045970205542214,1.0531297241765303,0.6844859056577945,1,True
2024-03-07,1.0531297241765303,1.050764510666408,-0.22458899941995014,2,True
2024-03-08,1.050764510666408,1.0516915926426424,0.08822928133025432,0,True
2024-03-09,1.0516915926426424,1.0516915926426424,0.0,0,False
2024-03-10,1.0516915926426424,1.0516915926426424,0.0,0,False
2024-03-11,1.0516915926426424,1.0516915926426424,0.0,0,False
2024-03-12,1.0516915926426424,1.0613686288597302,0.9201401137734377,1,True
2024-03-13,1.0613686288597302,1.0613686288597302,0.0,0,False
2024-03-14,1.0613686288597302,1.0613686288597302,0.0,0,False
2024-03-15,1.0613686288597302,1.0613686288597302,0.0,0,False
2024-03-16,1.0613686288597302,1.0613686288597302,0.0,0,False
2024-03-17,1.0613686288597302,1.0585875146966304,-0.2620309369881779,1,True
2024-03-18,1.0585875146966304,1.0578371719001887,-0.07088150823852946,1,True
2024-03-19,1.0578371719001887,1.048816222808583,-0.8527729343639212,1,True
2024-03-20,1.048816222808583,1.048816222808583,0.0,0,False
2024-03-21,1.048816222808583,1.0383677057372307,-0.9962200091997775,2,True
2024-03-22,1.0383677057372307,1.0383677057372307,0.0,0,False
2024-03-23,1.0383677057372307,1.0396204149325547,0.12064215676224066,1,True
2024-03-24,1.0396204149325547,1.0396204149325547,0.0,0,False
2024-03-25,1.0396204149325547,1.0396204149325547,0.0,0,False
2024-03-26,1.0396204149325547,1.0431213480987869,0.33675109837654205,1,True
2024-03-27,1.0431213480987869,1.0414581997328012,-0.15943958668058755,2,True
2024-03-28,1.0414581997328012,1.0414581997328012,0.0,0,False
2024-03-29,1.0414581997328012,1.0362576047096717,-0.49935705767776284,1,True
2024-03-30,1.0362576047096717,1.0362576047096717,0.0,0,False
2024-03-31,1.0362576047096717,1.0362576047096717,0.0,0,False
2024-04-01,1.0362576047096717,1.0362576047096717,0.0,0,False
2024-04-02,1.0362576047096717,1.0362576047096717,0.0,0,False
2024-04-03,1.0362576047096717,1.0362576047096717,0.0,0,False
2024-04-04,1.0362576047096717,1.0362576047096717,0.0,0,False
2024-04-05,1.0362576047096717,1.035196124115847,-0.10243404622560792,2,True
2024-04-06,1.035196124115847,1.0334065038087763,-0.17287741572633575,0,True
2024-04-07,1.0334065038087763,1.036307853437331,0.28075589014209257,1,True
2024-04-08,1.036307853437331,1.0356263352143997,-0.06576407007538032,0,True
2024-04-09,1.0356263352143997,1.0331926237750553,-0.23499899110238642,1,True
2024-04-10,1.0331926237750553,1.0253054133367143,-0.7633823797079442,1,True
2024-04-11,1.0253054133367143,1.0253054133367143,0.0,0,False
2024-04-12,1.0253054133367143,1.0283946056284552,0.30129483874345997,1,True
2024-04-13,1.0283946056284552,1.003060980462778,-2.463414824137067,8,True
2024-04-14,1.003060980462778,0.9828225055636698,-2.0176714370616633,5,True
2024-04-15,0.9828225055636698,0.9845599409257032,0.17678017670514912,1,True
2024-04-16,0.9845599409257032,0.9779104440524735,-0.6753775566958109,0,True
2024-04-17,0.9779104440524735,0.9752224323662256,-0.2748729909365477,1,True
2024-04-18,0.9752224323662256,0.9754321277266043,0.021502311003018804,0,True
2024-04-19,0.9754321277266043,0.9754321277266043,0.0,0,False
2024-04-20,0.9754321277266043,0.9754321277266043,0.0,0,False
2024-04-21,0.9754321277266043,0.9754321277266043,0.0,0,False
2024-04-22,0.9754321277266043,0.9754321277266043,0.0,0,False
2024-04-23,0.9754321277266043,0.9754321277266043,0.0,0,False
2024-04-24,0.9754321277266043,0.9754321277266043,0.0,0,False
2024-04-25,0.9754321277266043,0.9822308339051194,0.696994284406105,1,True
2024-04-26,0.9822308339051194,0.9705552643155165,-1.1886787898098827,0,True
2024-04-27,0.9705552643155165,0.9657062252109484,-0.4996149403185157,1,True
2024-04-28,0.9657062252109484,0.9657062252109484,0.0,0,False
2024-04-29,0.9657062252109484,0.9757515047971985,1.0402003553467765,1,True
2024-04-30,0.9757515047971985,0.976101040048807,0.035822158601872545,0,True
2024-05-01,0.976101040048807,0.976101040048807,0.0,0,False
2024-05-02,0.976101040048807,0.976101040048807,0.0,0,False
2024-05-03,0.976101040048807,0.976101040048807,0.0,0,False
2024-05-04,0.976101040048807,0.976101040048807,0.0,0,False
2024-05-05,0.976101040048807,0.976101040048807,0.0,0,False
2024-05-06,0.976101040048807,0.976101040048807,0.0,0,False
2024-05-07,0.976101040048807,0.9733765513290474,-0.2791195386517953,1,True
2024-05-08,0.9733765513290474,0.9733832211333476,0.0006852234411436342,0,True
2024-05-09,0.9733832211333476,0.9706752887951905,-0.27819796760049087,1,True
2024-05-10,0.9706752887951905,0.9706752887951905,0.0,0,False
2024-05-11,0.9706752887951905,0.9708569079948695,0.01871060299725169,1,True
2024-05-12,0.9708569079948695,0.9658272919035089,-0.5180594637523184,0,True
2024-05-13,0.9658272919035089,0.9624577854250354,-0.34887256828627367,1,True
2024-05-14,0.9624577854250354,0.9624577854250354,0.0,0,False
2024-05-15,0.9624577854250354,0.9624577854250354,0.0,0,False
2024-05-16,0.9624577854250354,0.9624577854250354,0.0,0,False
2024-05-17,0.9624577854250354,0.9624577854250354,0.0,0,False
2024-05-18,0.9624577854250354,0.9624577854250354,0.0,0,False
2024-05-19,0.9624577854250354,0.9624577854250354,0.0,0,False
2024-05-20,0.9624577854250354,0.9624577854250354,0.0,0,False
2024-05-21,0.9624577854250354,0.9624577854250354,0.0,0,False
2024-05-22,0.9624577854250354,0.9624577854250354,0.0,0,False
2024-05-23,0.9624577854250354,0.9709302732918245,0.8802970888793338,1,True
2024-05-24,0.9709302732918245,0.9735901379543092,0.27395012140951636,1,True
2024-05-25,0.9735901379543092,0.9735901379543092,0.0,0,False
2024-05-26,0.9735901379543092,0.9735901379543092,0.0,0,False
2024-05-27,0.9735901379543092,0.9735901379543092,0.0,0,False
2024-05-28,0.9735901379543092,0.9735901379543092,0.0,0,False
2024-05-29,0.9735901379543092,0.9735901379543092,0.0,0,False
2024-05-30,0.9735901379543092,0.9735901379543092,0.0,0,False
2024-05-31,0.9735901379543092,0.9735901379543092,0.0,0,False
2024-06-01,0.9735901379543092,0.9735901379543092,0.0,0,False
2024-06-02,0.9735901379543092,0.9735901379543092,0.0,0,False
2024-06-03,0.9735901379543092,0.9650299664800165,-0.8792376936232249,3,True
2024-06-04,0.9650299664800165,0.9659140082625965,0.0916077026918316,1,True
2024-06-05,0.9659140082625965,0.9659140082625965,0.0,0,False
2024-06-06,0.9659140082625965,0.9610905250168098,-0.49936984084771874,1,True
2024-06-07,0.9610905250168098,0.9610905250168098,0.0,0,False
2024-06-08,0.9610905250168098,0.9900026971691868,3.008267317157376,5,True
2024-06-09,0.9900026971691868,0.9900026971691868,0.0,0,False
2024-06-10,0.9900026971691868,0.9900026971691868,0.0,0,False
2024-06-11,0.9900026971691868,0.9900026971691868,0.0,0,False
2024-06-12,0.9900026971691868,0.9900026971691868,0.0,0,False
2024-06-13,0.9900026971691868,0.98280259436473,-0.727281130146884,2,True
2024-06-14,0.98280259436473,0.9778961386034914,-0.4992310550838597,1,True
2024-06-15,0.9778961386034914,0.9869009687126995,0.9208370657918463,1,True
2024-06-16,0.9869009687126995,0.9869009687126995,0.0,0,False
2024-06-17,0.9869009687126995,0.9869009687126995,0.0,0,False
2024-06-18,0.9869009687126995,0.9936497340161745,0.6838340945473087,4,True
2024-06-19,0.9936497340161745,0.9936497340161745,0.0,0,False
2024-06-20,0.9936497340161745,0.9936497340161745,0.0,0,False
2024-06-21,0.9936497340161745,0.9936497340161745,0.0,0,False
2024-06-22,0.9936497340161745,0.9936497340161745,0.0,0,False
2024-06-23,0.9936497340161745,1.0003471871218241,0.6740255521006988,1,True
2024-06-24,1.0003471871218241,1.0006287837575958,0.02814989029777948,1,True
2024-06-25,1.0006287837575958,1.0110869719133078,1.045161634911107,0,True
2024-06-26,1.0110869719133078,1.0110869719133078,0.0,0,False
2024-06-27,1.0110869719133078,1.0113347477215806,0.024505884771119923,1,True
2024-06-28,1.0113347477215806,1.0060324737090276,-0.524284765701799,0,True
2024-06-29,1.0060324737090276,0.9960145643386816,-0.9957838968569388,2,True
2024-06-30,0.9960145643386816,0.9960145643386816,0.0,0,False
2024-07-01,0.9960145643386816,0.9960145643386816,0.0,0,False
2024-07-02,0.9960145643386816,0.9960145643386816,0.0,0,False
2024-07-03,0.9960145643386816,0.9960145643386816,0.0,0,False
2024-07-04,0.9960145643386816,0.9960145643386816,0.0,0,False
2024-07-05,0.9960145643386816,1.0145023740281767,1.8561786495331356,5,True
2024-07-06,1.0145023740281767,1.0145023740281767,0.0,0,False
2024-07-07,1.0145023740281767,1.0120319277107725,-0.24351311348784765,1,True
2024-07-08,1.0120319277107725,1.0094298621580358,-0.25711299036016433,0,True
2024-07-09,1.0094298621580358,1.0094298621580358,0.0,0,False
2024-07-10,1.0094298621580358,1.0094298621580358,0.0,0,False
2024-07-11,1.0094298621580358,1.0094298621580358,0.0,0,False
2024-07-12,1.0094298621580358,1.0094298621580358,0.0,0,False
2024-07-13,1.0094298621580358,1.0094298621580358,0.0,0,False
2024-07-14,1.0094298621580358,1.0094298621580358,0.0,0,False
2024-07-15,1.0094298621580358,1.0094298621580358,0.0,0,False
2024-07-16,1.0094298621580358,1.0043853693143714,-0.49973683489805687,1,True
2024-07-17,1.0043853693143714,0.9993705129899051,-0.4992960349362363,1,True
2024-07-18,0.9993705129899051,0.9993705129899051,0.0,0,False
2024-07-19,0.9993705129899051,0.9993705129899051,0.0,0,False
2024-07-20,0.9993705129899051,1.0004844283959184,0.11146170429632285,1,True
2024-07-21,1.0004844283959184,1.0004844283959184,0.0,0,False
2024-07-22,1.0004844283959184,1.0004844283959184,0.0,0,False
2024-07-23,1.0004844283959184,0.9954834546616753,-0.49985522935735993,1,True
2024-07-24,0.9954834546616753,0.9954834546616753,0.0,0,False
2024-07-25,0.9954834546616753,0.9954834546616753,0.0,0,False
2024-07-26,0.9954834546616753,0.9954834546616753,0.0,0,False
2024-07-27,0.9954834546616753,0.9954834546616753,0.0,0,False
2024-07-28,0.9954834546616753,0.9954834546616753,0.0,0,False
2024-07-29,0.9954834546616753,0.9954834546616753,0.0,0,False
2024-07-30,0.9954834546616753,0.9954834546616753,0.0,0,False
2024-07-31,0.9954834546616753,0.9905133152863588,-0.49926890819151915,1,True
2024-08-01,0.9905133152863588,0.9905133152863588,0.0,0,False
2024-08-02,0.9905133152863588,0.9905133152863588,0.0,0,False
2024-08-03,0.9905133152863588,0.9855689648265953,-0.4991705193113982,1,True
2024-08-04,0.9855689648265953,0.9855689648265953,0.0,0,False
2024-08-05,0.9855689648265953,0.9658981709516393,-1.9958820312911296,4,True
2024-08-06,0.9658981709516393,0.9658981709516393,0.0,0,False
2024-08-07,0.9658981709516393,0.9658981709516393,0.0,0,False
2024-08-08,0.9658981709516393,0.9658981709516393,0.0,0,False
2024-08-09,0.9658981709516393,0.9658981709516393,0.0,0,False
2024-08-10,0.9658981709516393,0.9658981709516393,0.0,0,False
2024-08-11,0.9658981709516393,0.9658981709516393,0.0,0,False
2024-08-12,0.9658981709516393,0.9658981709516393,0.0,0,False
2024-08-13,0.9658981709516393,0.9658981709516393,0.0,0,False
2024-08-14,0.9658981709516393,0.9658981709516393,0.0,0,False
2024-08-15,0.9658981709516393,0.9658981709516393,0.0,0,False
2024-08-16,0.9658981709516393,0.9658981709516393,0.0,0,False
2024-08-17,0.9658981709516393,0.9658981709516393,0.0,0,False
2024-08-18,0.9658981709516393,0.9658981709516393,0.0,0,False
2024-08-19,0.9658981709516393,0.9658981709516393,0.0,0,False
2024-08-20,0.9658981709516393,0.9658981709516393,0.0,0,False
2024-08-21,0.9658981709516393,0.9658981709516393,0.0,0,False
2024-08-22,0.9658981709516393,0.9658981709516393,0.0,0,False
2024-08-23,0.9658981709516393,0.9658981709516393,0.0,0,False
2024-08-24,0.9658981709516393,0.9658981709516393,0.0,0,False
2024-08-25,0.9658981709516393,0.9658981709516393,0.0,0,False
2024-08-26,0.9658981709516393,0.9658981709516393,0.0,0,False
2024-08-27,0.9658981709516393,0.9658981709516393,0.0,0,False
2024-08-28,0.9658981709516393,0.9658981709516393,0.0,0,False
2024-08-29,0.9658981709516393,0.9610779328167575,-0.49904206052412414,1,True
2024-08-30,0.9610779328167575,0.9610779328167575,0.0,0,False
2024-08-31,0.9610779328167575,0.9610779328167575,0.0,0,False
2024-09-01,0.9610779328167575,0.9562882944631012,-0.4983610787544279,1,True
2024-09-02,0.9562882944631012,0.9562882944631012,0.0,0,False
2024-09-03,0.9562882944631012,0.9562882944631012,0.0,0,False
2024-09-04,0.9562882944631012,0.9562882944631012,0.0,0,False
2024-09-05,0.9562882944631012,0.9562882944631012,0.0,0,False
2024-09-06,0.9562882944631012,0.9562882944631012,0.0,0,False
2024-09-07,0.9562882944631012,0.9562882944631012,0.0,0,False
2024-09-08,0.9562882944631012,0.9562882944631012,0.0,0,False
2024-09-09,0.9562882944631012,0.9562882944631012,0.0,0,False
2024-09-10,0.9562882944631012,0.9562882944631012,0.0,0,False
2024-09-11,0.9562882944631012,0.9562882944631012,0.0,0,False
2024-09-12,0.9562882944631012,0.9562882944631012,0.0,0,False
2024-09-13,0.9562882944631012,0.9562882944631012,0.0,0,False
2024-09-14,0.9562882944631012,0.9562882944631012,0.0,0,False
2024-09-15,0.9562882944631012,0.9562882944631012,0.0,0,False
2024-09-16,0.9562882944631012,0.9562882944631012,0.0,0,False
2024-09-17,0.9562882944631012,0.9562882944631012,0.0,0,False
2024-09-18,0.9562882944631012,0.9562882944631012,0.0,0,False
2024-09-19,0.9562882944631012,0.9559949690736573,-0.03067332217095986,1,True
2024-09-20,0.9559949690736573,0.9572044121276647,0.1265114454712446,1,True
2024-09-21,0.9572044121276647,0.9530644333034958,-0.4325072859794554,1,True
2024-09-22,0.9530644333034958,0.9581212566542106,0.5305856743795356,1,True
2024-09-23,0.9581212566542106,0.9580185251418205,-0.010722182779743239,0,True
2024-09-24,0.9580185251418205,0.9580185251418205,0.0,0,False
2024-09-25,0.9580185251418205,0.9580185251418205,0.0,0,False
2024-09-26,0.9580185251418205,0.9580185251418205,0.0,0,False
2024-09-27,0.9580185251418205,0.9580185251418205,0.0,0,False
2024-09-28,0.9580185251418205,0.9580185251418205,0.0,0,False
2024-09-29,0.9580185251418205,0.9580185251418205,0.0,0,False
2024-09-30,0.9580185251418205,0.9580185251418205,0.0,0,False
2024-10-01,0.9580185251418205,0.9580185251418205,0.0,0,False
2024-10-02,0.9580185251418205,0.9580185251418205,0.0,0,False
2024-10-03,0.9580185251418205,0.9608176168748687,0.29217511557344533,1,True
2024-10-04,0.9608176168748687,0.9621102317277462,0.13453280104105403,0,True
2024-10-05,0.9621102317277462,0.9621102317277462,0.0,0,False
2024-10-06,0.9621102317277462,0.9621102317277462,0.0,0,False
2024-10-07,0.9621102317277462,0.9621102317277462,0.0,0,False
2024-10-08,0.9621102317277462,0.9621102317277462,0.0,0,False
2024-10-09,0.9621102317277462,0.9621102317277462,0.0,0,False
2024-10-10,0.9621102317277462,0.9621102317277462,0.0,0,False
2024-10-11,0.9621102317277462,0.9615865257386057,-0.05443305474468474,1,True
2024-10-12,0.9615865257386057,0.9619224124343859,0.034930470299832095,0,True
2024-10-13,0.9619224124343859,0.9619224124343859,0.0,0,False
2024-10-14,0.9619224124343859,0.9619224124343859,0.0,0,False
2024-10-15,0.9619224124343859,0.9619224124343859,0.0,0,False
2024-10-16,0.9619224124343859,0.9619224124343859,0.0,0,False
2024-10-17,0.9619224124343859,0.9619224124343859,0.0,0,False
2024-10-18,0.9619224124343859,0.9621019702900271,0.018666563261238167,1,True
2024-10-19,0.9621019702900271,0.9602302990483153,-0.1945397992634379,1,True
2024-10-20,0.9602302990483153,0.9602302990483153,0.0,0,False
2024-10-21,0.9602302990483153,0.96486962441578,0.4831471546005828,1,True
2024-10-22,0.96486962441578,0.96486962441578,0.0,0,False
2024-10-23,0.96486962441578,0.9624605982507808,-0.24967374907857165,1,True
2024-10-24,0.9624605982507808,0.9600577568384424,-0.2496560811637849,1,True
2024-10-25,0.9600577568384424,0.9613266201464489,0.13216530973980678,1,True
2024-10-26,0.9613266201464489,0.9659565301680904,0.48161674966789025,2,True
2024-10-27,0.9659565301680904,0.9659565301680904,0.0,0,False
2024-10-28,0.9659565301680904,0.9659565301680904,0.0,0,False
2024-10-29,0.9659565301680904,0.9659565301680904,0.0,0,False
2024-10-30,0.9659565301680904,0.9659565301680904,0.0,0,False
2024-10-31,0.9659565301680904,0.9659565301680904,0.0,0,False
2024-11-01,0.9659565301680904,0.9659565301680904,0.0,0,False
2024-11-02,0.9659565301680904,0.9659565301680904,0.0,0,False
2024-11-03,0.9659565301680904,0.9659565301680904,0.0,0,False
2024-11-04,0.9659565301680904,0.9659565301680904,0.0,0,False
2024-11-05,0.9659565301680904,0.9659565301680904,0.0,0,False
2024-11-06,0.9659565301680904,0.9659565301680904,0.0,0,False
2024-11-07,0.9659565301680904,0.9659565301680904,0.0,0,False
2024-11-08,0.9659565301680904,0.9659565301680904,0.0,0,False
2024-11-09,0.9659565301680904,0.9651455004074143,-0.08396131040543375,1,True
2024-11-10,0.9651455004074143,0.9663632260721815,0.1261701644211355,0,True
2024-11-11,0.9663632260721815,0.9658489564938426,-0.0532170062419679,1,True
2024-11-12,0.9658489564938426,0.9664303396375931,0.06019400236874084,0,True
2024-11-13,0.9664303396375931,0.9664303396375931,0.0,0,False
2024-11-14,0.9664303396375931,0.9664303396375931,0.0,0,False
2024-11-15,0.9664303396375931,0.9664303396375931,0.0,0,False
2024-11-16,0.9664303396375931,0.9664303396375931,0.0,0,False
2024-11-17,0.9664303396375931,0.9664303396375931,0.0,0,False
2024-11-18,0.9664303396375931,0.9664303396375931,0.0,0,False
2024-11-19,0.9664303396375931,0.9664303396375931,0.0,0,False
2024-11-20,0.9664303396375931,0.9664303396375931,0.0,0,False
2024-11-21,0.9664303396375931,0.9664303396375931,0.0,0,False
2024-11-22,0.9664303396375931,0.9664303396375931,0.0,0,False
2024-11-23,0.9664303396375931,0.9680851862123493,0.17123288734672837,1,True
2024-11-24,0.9680851862123493,0.9737022431570875,0.5802234167754383,4,True
2024-11-25,0.9737022431570875,0.9736849257169848,-0.0017785149643456677,1,True
2024-11-26,0.9736849257169848,0.9736849257169848,0.0,0,False
2024-11-27,0.9736849257169848,0.9736849257169848,0.0,0,False
2024-11-28,0.9736849257169848,0.9736849257169848,0.0,0,False
2024-11-29,0.9736849257169848,0.9736849257169848,0.0,0,False
2024-11-30,0.9736849257169848,0.9736849257169848,0.0,0,False
2024-12-01,0.9736849257169848,0.9736849257169848,0.0,0,False
2024-12-02,0.9736849257169848,0.9736849257169848,0.0,0,False
2024-12-03,0.9736849257169848,0.9736849257169848,0.0,0,False
2024-12-04,0.9736849257169848,0.9736849257169848,0.0,0,False
2024-12-05,0.9736849257169848,0.975583897042894,0.19502934427282348,1,True
2024-12-06,0.975583897042894,0.975583897042894,0.0,0,False
2024-12-07,0.975583897042894,0.975583897042894,0.0,0,False
2024-12-08,0.975583897042894,0.975583897042894,0.0,0,False
2024-12-09,0.975583897042894,0.9731453422338147,-0.2499584932132426,1,True
2024-12-10,0.9731453422338147,0.9731453422338147,0.0,0,False
2024-12-11,0.9731453422338147,0.9731453422338147,0.0,0,False
2024-12-12,0.9731453422338147,0.9731453422338147,0.0,0,False
2024-12-13,0.9731453422338147,0.9731453422338147,0.0,0,False
2024-12-14,0.9731453422338147,0.9731453422338147,0.0,0,False
2024-12-15,0.9731453422338147,0.9700687676365302,-0.31614749244160967,2,True
2024-12-16,0.9700687676365302,0.9682920717389097,-0.18315154109632692,0,True
2024-12-17,0.9682920717389097,0.9682920717389097,0.0,0,False
2024-12-18,0.9682920717389097,0.9682920717389097,0.0,0,False
2024-12-19,0.9682920717389097,0.9682920717389097,0.0,0,False
2024-12-20,0.9682920717389097,0.9659492733894877,-0.24195161953715072,2,True
2024-12-21,0.9659492733894877,0.9659492733894877,0.0,0,False
2024-12-22,0.9659492733894877,0.9659492733894877,0.0,0,False
2024-12-23,0.9659492733894877,0.9659492733894877,0.0,0,False
2024-12-24,0.9659492733894877,0.9659492733894877,0.0,0,False
2024-12-25,0.9659492733894877,0.9692029432914363,0.33683651839517825,1,True
2024-12-26,0.9692029432914363,0.9691188065719843,-0.008681021867951166,0,True
2024-12-27,0.9691188065719843,0.9691188065719843,0.0,0,False
2024-12-28,0.9691188065719843,0.9691188065719843,0.0,0,False
2024-12-29,0.9691188065719843,0.9691188065719843,0.0,0,False
2024-12-30,0.9691188065719843,0.9691188065719843,0.0,0,False
2024-12-31,0.9691188065719843,0.9691188065719843,0.0,0,False
