day,start_equity,end_equity,return_pct,entries,active
2024-01-02,1.0093726014227875,1.016972769101664,0.7529595778767328,0,True
2024-01-03,1.016972769101664,1.0359204865961942,1.8631489524805644,4,True
2024-01-04,1.0359204865961942,1.0363817877487456,0.04453055601469913,2,True
2024-01-05,1.0363817877487456,1.0363817877487456,0.0,0,False
2024-01-06,1.0363817877487456,1.0513382636043547,1.4431434469818205,3,True
2024-01-07,1.0513382636043547,1.0790936978484789,2.6400099002360067,2,True
2024-01-08,1.0790936978484789,1.0647136594780517,-1.3326033132339044,5,True
2024-01-09,1.0647136594780517,1.065015602221605,0.028359056058446797,1,True
2024-01-10,1.065015602221605,1.0475666337564538,-1.638376792673557,4,True
2024-01-11,1.0475666337564538,1.0475666337564538,0.0,0,False
2024-01-12,1.0475666337564538,1.066681206975852,1.8246641887452508,1,True
2024-01-13,1.066681206975852,1.0639460875394569,-0.2564139518450359,0,True
2024-01-14,1.0639460875394569,1.058628214673135,-0.4998254073775743,1,True
2024-01-15,1.058628214673135,1.063863507495741,0.49453554610032757,1,True
2024-01-16,1.063863507495741,1.063863507495741,0.0,0,False
2024-01-17,1.063863507495741,1.063863507495741,0.0,0,False
2024-01-18,1.063863507495741,1.0585467931274195,-0.4997553098551766,1,True
2024-01-19,1.0585467931274195,1.0585467931274195,0.0,0,False
2024-01-20,1.0585467931274195,1.0585467931274195,0.0,0,False
2024-01-21,1.0585467931274195,1.0585467931274195,0.0,0,False
2024-01-22,1.0585467931274195,1.0585467931274195,0.0,0,False
2024-01-23,1.0585467931274195,1.052084840340618,-0.6104550907674144,3,True
2024-01-24,1.052084840340618,1.0505777466552302,-0.14324830352083762,0,True
2024-01-25,1.0505777466552302,1.0453291404874805,-0.4995923609137809,1,True
2024-01-26,1.0453291404874805,1.0453291404874805,0.0,0,False
2024-01-27,1.0453291404874805,1.0453291404874805,0.0,0,False
2024-01-28,1.0453291404874805,1.0402039401575491,-0.49029536549045627,2,True
2024-01-29,1.0402039401575491,1.040092421141675,-0.010720879970627095,0,True
2024-01-30,1.040092421141675,1.040092421141675,0.0,0,False
2024-01-31,1.040092421141675,1.040092421141675,0.0,0,False
2024-02-01,1.040092421141675,1.040092421141675,0.0,0,False
2024-02-02,1.040092421141675,1.0409471259615108,0.08217585307443986,1,True
2024-02-03,1.0409471259615108,1.03959522469117,-0.12987223237608259,0,True
2024-02-04,1.03959522469117,1.03959522469117,0.0,0,False
2024-02-05,1.03959522469117,1.03959522469117,0.0,0,False
2024-02-06,1.03959522469117,1.0316921680955298,-0.7602051652351394,2,True
2024-02-07,1.0316921680955298,1.0241060731137877,-0.7353060550751134,1,True
2024-02-08,1.0241060731137877,1.0241060731137877,0.0,0,False
2024-02-09,1.0241060731137877,1.0241060731137877,0.0,0,False
2024-02-10,1.0241060731137877,1.0241060731137877,0.0,0,False
2024-02-11,1.0241060731137877,1.0241060731137877,0.0,0,False
2024-02-12,1.0241060731137877,1.0241060731137877,0.0,0,False
2024-02-13,1.0241060731137877,1.0241060731137877,0.0,0,False
2024-02-14,1.0241060731137877,1.0241060731137877,0.0,0,False
2024-02-15,1.0241060731137877,1.0500985356486139,2.5380635089680137,2,True
2024-02-16,1.0500985356486139,1.0443788773515625,-0.5446782471245415,1,True
2024-02-17,1.0443788773515625,1.0443788773515625,0.0,0,False
2024-02-18,1.0443788773515625,1.0443788773515625,0.0,0,False
2024-02-19,1.0443788773515625,1.0443788773515625,0.0,0,False
2024-02-20,1.0443788773515625,1.0391635012502087,-0.4993758696632655,1,True
2024-02-21,1.0391635012502087,1.0602946823070263,2.033479912583025,5,True
2024-02-22,1.0602946823070263,1.0741907995168294,1.3105901068528825,1,True
2024-02-23,1.0741907995168294,1.0658739759885933,-0.7742408082415997,2,True
2024-02-24,1.0658739759885933,1.0639139554307846,-0.18388858363774796,0,True
2024-02-25,1.0639139554307846,1.0639139554307846,0.0,0,False
2024-02-26,1.0639139554307846,1.0667020127009537,0.2620566499703658,2,True
2024-02-27,1.0667020127009537,1.0728373918176284,0.5751727327428124,2,True
2024-02-28,1.0728373918176284,1.0608211761818809,-1.120040718881854,1,True
2024-02-29,1.0608211761818809,1.0811293139478555,1.9143789944944256,6,True
2024-03-01,1.0811293139478555,1.0802987991656852,-0.07681919003172943,2,True
2024-03-02,1.0802987991656852,1.0711682522425223,-0.8451871769379338,2,True
2024-03-03,1.0711682522425223,1.093653670350054,2.099149042221682,4,True
2024-03-04,1.093653670350054,1.0979676846647857,0.39445890702776154,0,True
2024-03-05,1.0979676846647857,1.0928186210024375,-0.4689631338212097,2,True
2024-03-06,1.0928186210024375,1.1249482674785283,2.940071285262169,9,True
2024-03-07,1.1249482674785283,1.111557060584082,-1.190384240909259,5,True
2024-03-08,1.111557060584082,1.1142509213100915,0.24235019699248017,1,True
2024-03-09,1.1142509213100915,1.1121559914945187,-0.1880123924968058,2,True
2024-03-10,1.1121559914945187,1.1152794579321936,0.280847872201595,1,True
2024-03-11,1.1152794579321936,1.1148062911511654,-0.04242584920425285,1,True
2024-03-12,1.1148062911511654,1.1345563660250764,1.7716149460833108,2,True
2024-03-13,1.1345563660250764,1.1255371499106297,-0.7949553133305809,0,True
2024-03-14,1.1255371499106297,1.1255371499106297,0.0,0,False
2024-03-15,1.1255371499106297,1.119913409177293,-0.49964949924425905,1,True
2024-03-16,1.119913409177293,1.1143231513918403,-0.49916875176621023,1,True
2024-03-17,1.1143231513918403,1.1087601777430143,-0.49922445224956924,1,True
2024-03-18,1.1087601777430143,1.1064288632505168,-0.21026318759418405,1,True
2024-03-19,1.1064288632505168,1.0922369076161906,-1.2826812554972977,2,True
2024-03-20,1.0922369076161906,1.0915040353036634,-0.06709829226763109,1,True
2024-03-21,1.0915040353036634,1.1029075616978854,1.0447534800958946,3,True
2024-03-22,1.1029075616978854,1.1075918139472216,0.42471848158562864,2,True
2024-03-23,1.1075918139472216,1.1029968843721445,-0.4148576684312788,1,True
2024-03-24,1.1029968843721445,1.098760612136848,-0.3840692839044424,2,True
2024-03-25,1.098760612136848,1.099912991291367,0.10487991121903573,0,True
2024-03-26,1.099912991291367,1.1052613580643533,0.4862536232713266,1,True
2024-03-27,1.1052613580643533,1.099684325159778,-0.5045895130489586,3,True
2024-03-28,1.099684325159778,1.099684325159778,0.0,0,False
2024-03-29,1.099684325159778,1.0887378430130845,-0.9954204034965275,2,True
2024-03-30,1.0887378430130845,1.0887378430130845,0.0,0,False
2024-03-31,1.0887378430130845,1.0887378430130845,0.0,0,False
2024-04-01,1.0887378430130845,1.0816063887454388,-0.6550203350982442,2,True
2024-04-02,1.0816063887454388,1.0828184355405257,0.11205987757643143,2,True
2024-04-03,1.0828184355405257,1.0800141545557913,-0.2589797968608254,1,True
2024-04-04,1.0800141545557913,1.0774074841893504,-0.24135520404480193,0,True
2024-04-05,1.0774074841893504,1.075815994145084,-0.14771477529357258,2,True
2024-04-06,1.075815994145084,1.0713382385054295,-0.41621947098980927,0,True
2024-04-07,1.0713382385054295,1.0726832973006866,0.1255494060525164,2,True
2024-04-08,1.0726832973006866,1.0709076624305063,-0.16553207033692674,0,True
2024-04-09,1.0709076624305063,1.0655617439740555,-0.4991950888013852,1,True
2024-04-10,1.0655617439740555,1.0602478482114586,-0.4986943077346706,1,True
2024-04-11,1.0602478482114586,1.0602478482114586,0.0,0,False
2024-04-12,1.0602478482114586,1.0549585777860258,-0.4988711304017568,1,True
2024-04-13,1.0549585777860258,1.060522885355518,0.5274432273132179,9,True
2024-04-14,1.060522885355518,1.0681068253082184,0.7151132764247725,8,True
2024-04-15,1.0681068253082184,1.0721276777343984,0.37644665598122184,1,True
2024-04-16,1.0721276777343984,1.0697420702407334,-0.22251151082175458,0,True
2024-04-17,1.0697420702407334,1.0644019098014883,-0.49920075014375787,1,True
2024-04-18,1.0644019098014883,1.0644019098014883,0.0,0,False
2024-04-19,1.0644019098014883,1.0644019098014883,0.0,0,False
2024-04-20,1.0644019098014883,1.0644019098014883,0.0,0,False
2024-04-21,1.0644019098014883,1.0644019098014883,0.0,0,False
2024-04-22,1.0644019098014883,1.0644019098014883,0.0,0,False
2024-04-23,1.0644019098014883,1.059085907984981,-0.4994355766891334,1,True
2024-04-24,1.059085907984981,1.059085907984981,0.0,0,False
2024-04-25,1.059085907984981,1.0644196219156885,0.5036148522507888,2,True
2024-04-26,1.0644196219156885,1.0485306433180617,-1.4927363485681244,0,True
2024-04-27,1.0485306433180617,1.0432968611771072,-0.4991539517044785,1,True
2024-04-28,1.0432968611771072,1.0432968611771072,0.0,0,False
2024-04-29,1.0432968611771072,1.0589212137117063,1.4975941283836391,1,True
2024-04-30,1.0589212137117063,1.0594648782207436,0.0513413559004805,0,True
2024-05-01,1.0594648782207436,1.0594648782207436,0.0,0,False
2024-05-02,1.0594648782207436,1.0594648782207436,0.0,0,False
2024-05-03,1.0594648782207436,1.0594648782207436,0.0,0,False
2024-05-04,1.0594648782207436,1.0594648782207436,0.0,0,False
2024-05-05,1.0594648782207436,1.0594648782207436,0.0,0,False
2024-05-06,1.0594648782207436,1.0594648782207436,0.0,0,False
2024-05-07,1.0594648782207436,1.0541752314610282,-0.49927532931519636,1,True
2024-05-08,1.0541752314610282,1.0541752314610282,0.0,0,False
2024-05-09,1.0541752314610282,1.038462755468805,-1.490499446704563,5,True
2024-05-10,1.038462755468805,1.0339604341705653,-0.4335563576574608,1,True
2024-05-11,1.0339604341705653,1.0342394935997832,0.02698937212639585,1,True
2024-05-12,1.0342394935997832,1.028798897727099,-0.5260479711278077,0,True
2024-05-13,1.028798897727099,1.0236560066987026,-0.4998927428633948,1,True
2024-05-14,1.0236560066987026,1.0236560066987026,0.0,0,False
2024-05-15,1.0236560066987026,1.0236560066987026,0.0,0,False
2024-05-16,1.0236560066987026,1.0236560066987026,0.0,0,False
2024-05-17,1.0236560066987026,1.0236560066987026,0.0,0,False
2024-05-18,1.0236560066987026,1.0236560066987026,0.0,0,False
2024-05-19,1.0236560066987026,1.0236560066987026,0.0,0,False
2024-05-20,1.0236560066987026,1.0236560066987026,0.0,0,False
2024-05-21,1.0236560066987026,1.0247064958241807,0.1026213023324063,2,True
2024-05-22,1.0247064958241807,1.0247064958241807,0.0,0,False
2024-05-23,1.0247064958241807,1.0377372445307198,1.2716566899537707,1,True
2024-05-24,1.0377372445307198,1.036621384174153,-0.10752821703643445,2,True
2024-05-25,1.036621384174153,1.036621384174153,0.0,0,False
2024-05-26,1.036621384174153,1.036621384174153,0.0,0,False
2024-05-27,1.036621384174153,1.036621384174153,0.0,0,False
2024-05-28,1.036621384174153,1.036621384174153,0.0,0,False
2024-05-29,1.036621384174153,1.036621384174153,0.0,0,False
2024-05-30,1.036621384174153,1.036621384174153,0.0,0,False
2024-05-31,1.036621384174153,1.026267793732545,-0.998782255476649,2,True
2024-06-01,1.026267793732545,1.026267793732545,0.0,0,False
2024-06-02,1.026267793732545,1.0211425751324226,-0.4994036285092873,1,True
2024-06-03,1.0211425751324226,1.0126876933896942,-0.8279824922226897,3,True
2024-06-04,1.0126876933896942,1.0062632620208056,-0.6343941385704599,2,True
2024-06-05,1.0062632620208056,1.0062632620208056,0.0,0,False
2024-06-06,1.0062632620208056,0.9962431226234771,-0.9957771266741688,2,True
2024-06-07,0.9962431226234771,0.9962431226234771,0.0,0,False
2024-06-08,0.9962431226234771,1.0387912151791376,4.270854331582807,5,True
2024-06-09,1.0387912151791376,1.0336046661066713,-0.49928695936958256,1,True
2024-06-10,1.0336046661066713,1.0336046661066713,0.0,0,False
2024-06-11,1.0336046661066713,1.0284425774059098,-0.4994258317549738,1,True
2024-06-12,1.0284425774059098,1.0233087582278568,-0.4991838427189865,1,True
2024-06-13,1.0233087582278568,1.014821722500635,-0.8293719426304302,2,True
2024-06-14,1.014821722500635,1.0097588590333395,-0.4988919092922206,1,True
2024-06-15,1.0097588590333395,1.0228695050738257,1.298393762352057,1,True
2024-06-16,1.0228695050738257,1.0228695050738257,0.0,0,False
2024-06-17,1.0228695050738257,1.0228695050738257,0.0,0,False
2024-06-18,1.0228695050738257,1.0330858836124315,0.9987958862717639,5,True
2024-06-19,1.0330858836124315,1.0287205435442326,-0.42255345247138587,1,True
2024-06-20,1.0287205435442326,1.0279214905194158,-0.07767445005655293,0,True
2024-06-21,1.0279214905194158,1.0279214905194158,0.0,0,False
2024-06-22,1.0279214905194158,1.0227892866313215,-0.4992797538945326,1,True
2024-06-23,1.0227892866313215,1.0324090361088931,0.9405406962420759,1,True
2024-06-24,1.0324090361088931,1.0328310920901633,0.04088069423151541,1,True
2024-06-25,1.0328310920901633,1.0516018843263633,1.817411615505593,1,True
2024-06-26,1.0516018843263633,1.0543001502277223,0.25658625584219497,0,True
2024-06-27,1.0543001502277223,1.054673589442372,0.03542057871934734,1,True
2024-06-28,1.054673589442372,1.0490305317362874,-0.5350525283436935,0,True
2024-06-29,1.0490305317362874,1.038592612843353,-0.9950062059355225,2,True
2024-06-30,1.038592612843353,1.038592612843353,0.0,0,False
2024-07-01,1.038592612843353,1.038592612843353,0.0,0,False
2024-07-02,1.038592612843353,1.038592612843353,0.0,0,False
2024-07-03,1.038592612843353,1.038592612843353,0.0,0,False
2024-07-04,1.038592612843353,1.038592612843353,0.0,0,False
2024-07-05,1.038592612843353,1.051973572871083,1.2883742732482162,6,True
2024-07-06,1.051973572871083,1.0532215571285772,0.11863266242402304,2,True
2024-07-07,1.0532215571285772,1.0487849909297082,-0.42123769389648125,2,True
2024-07-08,1.0487849909297082,1.0485766994701833,-0.019860263192772454,0,True
2024-07-09,1.0485766994701833,1.0485766994701833,0.0,0,False
2024-07-10,1.0485766994701833,1.0485766994701833,0.0,0,False
2024-07-11,1.0485766994701833,1.0485766994701833,0.0,0,False
2024-07-12,1.0485766994701833,1.0485766994701833,0.0,0,False
2024-07-13,1.0485766994701833,1.0485766994701833,0.0,0,False
2024-07-14,1.0485766994701833,1.043341796560563,-0.4992389123528507,1,True
2024-07-15,1.043341796560563,1.043341796560563,0.0,0,False
2024-07-16,1.043341796560563,1.0381311006136968,-0.4994236753519732,1,True
2024-07-17,1.0381311006136968,1.0329513637485062,-0.4989482409426538,1,True
2024-07-18,1.0329513637485062,1.0329513637485062,0.0,0,False
2024-07-19,1.0329513637485062,1.0329513637485062,0.0,0,False
2024-07-20,1.0329513637485062,1.0294084721309305,-0.342987263671235,2,True
2024-07-21,1.0294084721309305,1.0294084721309305,0.0,0,False
2024-07-22,1.0294084721309305,1.0294084721309305,0.0,0,False
2024-07-23,1.0294084721309305,1.0242665137655305,-0.4995061245956056,1,True
2024-07-24,1.0242665137655305,1.0242665137655305,0.0,0,False
2024-07-25,1.0242665137655305,1.0242665137655305,0.0,0,False
2024-07-26,1.0242665137655305,1.0242665137655305,0.0,0,False
2024-07-27,1.0242665137655305,1.0242665137655305,0.0,0,False
2024-07-28,1.0242665137655305,1.0191507006394176,-0.49946113217208543,1,True
2024-07-29,1.0191507006394176,1.0191507006394176,0.0,0,False
2024-07-30,1.0191507006394176,1.0191507006394176,0.0,0,False
2024-07-31,1.0191507006394176,1.0140656961899472,-0.4989452930052485,1,True
2024-08-01,1.0140656961899472,1.0140656961899472,0.0,0,False
2024-08-02,1.0140656961899472,1.0140656961899472,0.0,0,False
2024-08-03,1.0140656961899472,1.009007503448779,-0.49880325901692224,1,True
2024-08-04,1.009007503448779,1.009007503448779,0.0,0,False
2024-08-05,1.009007503448779,1.016509032544217,0.7434562250327792,8,True
2024-08-06,1.016509032544217,1.0164465581079736,-0.0061459794495899445,0,True
2024-08-07,1.0164465581079736,1.0164465581079736,0.0,0,False
2024-08-08,1.0164465581079736,1.0164465581079736,0.0,0,False
2024-08-09,1.0164465581079736,1.0164465581079736,0.0,0,False
2024-08-10,1.0164465581079736,1.0164465581079736,0.0,0,False
2024-08-11,1.0164465581079736,1.0164465581079736,0.0,0,False
2024-08-12,1.0164465581079736,1.026487958132719,0.9878925699189356,2,True
2024-08-13,1.026487958132719,1.0226126716638282,-0.3775286829414415,0,True
2024-08-14,1.0226126716638282,1.0226126716638282,0.0,0,False
2024-08-15,1.0226126716638282,1.0226126716638282,0.0,0,False
2024-08-16,1.0226126716638282,1.0226126716638282,0.0,0,False
2024-08-17,1.0226126716638282,1.0226126716638282,0.0,0,False
2024-08-18,1.0226126716638282,1.0206193001828932,-0.19492927636929336,1,True
2024-08-19,1.0206193001828932,1.0108214881368123,-0.9599869456049959,2,True
2024-08-20,1.0108214881368123,1.0132924623081072,0.24445208182599654,1,True
2024-08-21,1.0132924623081072,1.0132924623081072,0.0,0,False
2024-08-22,1.0132924623081072,1.0132924623081072,0.0,0,False
2024-08-23,1.0132924623081072,1.0132924623081072,0.0,0,False
2024-08-24,1.0132924623081072,1.0132924623081072,0.0,0,False
2024-08-25,1.0132924623081072,1.0132924623081072,0.0,0,False
2024-08-26,1.0132924623081072,1.0132924623081072,0.0,0,False
2024-08-27,1.0132924623081072,1.0132924623081072,0.0,0,False
2024-08-28,1.0132924623081072,1.0132924623081072,0.0,0,False
2024-08-29,1.0132924623081072,1.0082398925857152,-0.4986289655094289,1,True
2024-08-30,1.0082398925857152,1.0082398925857152,0.0,0,False
2024-08-31,1.0082398925857152,1.0082398925857152,0.0,0,False
2024-09-01,1.0082398925857152,1.0032215903276231,-0.4977289923752348,1,True
2024-09-02,1.0032215903276231,1.0032215903276231,0.0,0,False
2024-09-03,1.0032215903276231,1.0032215903276231,0.0,0,False
2024-09-04,1.0032215903276231,1.0032215903276231,0.0,0,False
2024-09-05,1.0032215903276231,0.9961063969672378,-0.709234473119913,2,True
2024-09-06,0.9961063969672378,0.9968133297978218,0.0709696105492652,0,True
2024-09-07,0.9968133297978218,0.9968133297978218,0.0,0,False
2024-09-08,0.9968133297978218,0.9968133297978218,0.0,0,False
2024-09-09,0.9968133297978218,0.9968133297978218,0.0,0,False
2024-09-10,0.9968133297978218,0.9968133297978218,0.0,0,False
2024-09-11,0.9968133297978218,0.9968133297978218,0.0,0,False
2024-09-12,0.9968133297978218,0.9968133297978218,0.0,0,False
2024-09-13,0.9968133297978218,1.0047157781810243,0.792771138484416,1,True
2024-09-14,1.0047157781810243,1.0013809266716396,-0.3319198903616538,0,True
2024-09-15,1.0013809266716396,1.0013809266716396,0.0,0,False
2024-09-16,1.0013809266716396,1.0013809266716396,0.0,0,False
2024-09-17,1.0013809266716396,1.0013809266716396,0.0,0,False
2024-09-18,1.0013809266716396,0.9913767571798122,-0.9990373518575901,2,True
2024-09-19,0.9913767571798122,0.9904960206713241,-0.08883973747715324,1,True
2024-09-20,0.9904960206713241,0.9941336189727814,0.36725016815228884,1,True
2024-09-21,0.9941336189727814,0.9783456510989809,-1.5881132649063767,4,True
2024-09-22,0.9783456510989809,0.9895975303749358,1.1500924303507354,1,True
2024-09-23,0.9895975303749358,1.0006533755979463,1.1172062261333382,1,True
2024-09-24,1.0006533755979463,0.9976246618123757,-0.3026736190002599,0,True
2024-09-25,0.9976246618123757,0.9976246618123757,0.0,0,False
2024-09-26,0.9976246618123757,0.9976246618123757,0.0,0,False
2024-09-27,0.9976246618123757,0.9976246618123757,0.0,0,False
2024-09-28,0.9976246618123757,0.9976246618123757,0.0,0,False
2024-09-29,0.9976246618123757,0.9976246618123757,0.0,0,False
2024-09-30,0.9976246618123757,0.9976246618123757,0.0,0,False
2024-10-01,0.9976246618123757,0.9976246618123757,0.0,0,False
2024-10-02,0.9976246618123757,0.9976246618123757,0.0,0,False
2024-10-03,0.9976246618123757,1.0060698307050757,0.8465276787923193,1,True
2024-10-04,1.0060698307050757,1.009969792473701,0.38764324797335714,0,True
2024-10-05,1.009969792473701,1.009969792473701,0.0,0,False
2024-10-06,1.009969792473701,1.009969792473701,0.0,0,False
2024-10-07,1.009969792473701,1.009969792473701,0.0,0,False
2024-10-08,1.009969792473701,1.009969792473701,0.0,0,False
2024-10-09,1.009969792473701,1.009969792473701,0.0,0,False
2024-10-10,1.009969792473701,1.009969792473701,0.0,0,False
2024-10-11,1.009969792473701,1.008374759815067,-0.15792874901013887,1,True
2024-10-12,1.008374759815067,1.0093977579485223,0.1014501923513933,0,True
2024-10-13,1.0093977579485223,1.0093977579485223,0.0,0,False
2024-10-14,1.0093977579485223,1.0093977579485223,0.0,0,False
2024-10-15,1.0093977579485223,0.9993412857770368,-0.9962843777188479,2,True
2024-10-16,0.9993412857770368,0.9993412857770368,0.0,0,False
2024-10-17,0.9993412857770368,0.9993412857770368,0.0,0,False
2024-10-18,0.9993412857770368,1.0052480542606346,0.5910661920671911,3,True
2024-10-19,1.0052480542606346,1.0018377095143227,-0.33925405096358885,1,True
2024-10-20,1.0018377095143227,1.0018377095143227,0.0,0,False
2024-10-21,1.0018377095143227,1.0159277287370685,1.4064173357555498,1,True
2024-10-22,1.0159277287370685,1.0315490052858027,1.5376365962718186,2,True
2024-10-23,1.0315490052858027,1.0098574773561244,-2.102811191569942,2,True
2024-10-24,1.0098574773561244,1.0048182548288755,-0.49900333861386814,1,True
2024-10-25,1.0048182548288755,1.0086612689028196,0.3824586242811234,1,True
2024-10-26,1.0086612689028196,1.022799759680265,1.4017085034725874,2,True
2024-10-27,1.022799759680265,1.022799759680265,0.0,0,False
2024-10-28,1.022799759680265,1.022799759680265,0.0,0,False
2024-10-29,1.022799759680265,1.022799759680265,0.0,0,False
2024-10-30,1.022799759680265,1.022799759680265,0.0,0,False
2024-10-31,1.022799759680265,1.022799759680265,0.0,0,False
2024-11-01,1.022799759680265,1.022799759680265,0.0,0,False
2024-11-02,1.022799759680265,1.022799759680265,0.0,0,False
2024-11-03,1.022799759680265,1.022799759680265,0.0,0,False
2024-11-04,1.022799759680265,1.022799759680265,0.0,0,False
2024-11-05,1.022799759680265,1.022799759680265,0.0,0,False
2024-11-06,1.022799759680265,1.022799759680265,0.0,0,False
2024-11-07,1.022799759680265,1.022799759680265,0.0,0,False
2024-11-08,1.022799759680265,1.022799759680265,0.0,0,False
2024-11-09,1.022799759680265,1.0203224523598944,-0.24220843786127988,1,True
2024-11-10,1.0203224523598944,1.015385643064538,-0.4838479525700934,3,True
2024-11-11,1.015385643064538,1.0144721773158887,-0.08996244480002913,3,True
2024-11-12,1.0144721773158887,1.016249378033885,0.17518476679159178,0,True
2024-11-13,1.016249378033885,1.016249378033885,0.0,0,False
2024-11-14,1.016249378033885,1.0183706212315686,0.20873254572491007,1,True
2024-11-15,1.0183706212315686,1.0183706212315686,0.0,0,False
2024-11-16,1.0183706212315686,1.0168110322815043,-0.15314551672536147,1,True
2024-11-17,1.0168110322815043,1.0320124148651983,1.495005669793481,2,True
2024-11-18,1.0320124148651983,1.0320124148651983,0.0,0,False
2024-11-19,1.0320124148651983,1.0268592657443851,-0.4993301482217438,1,True
2024-11-20,1.0268592657443851,1.0268592657443851,0.0,0,False
2024-11-21,1.0268592657443851,1.0268592657443851,0.0,0,False
2024-11-22,1.0268592657443851,1.0268592657443851,0.0,0,False
2024-11-23,1.0268592657443851,1.0319563534130503,0.4963764596281006,1,True
2024-11-24,1.0319563534130503,1.0503575252990585,1.7831347057604585,8,True
2024-11-25,1.0503575252990585,1.05303837181167,0.25523180898316955,1,True
2024-11-26,1.05303837181167,1.0425446209857363,-0.9965212196284989,2,True
2024-11-27,1.0425446209857363,1.0448723527147261,0.22327406253259685,2,True
2024-11-28,1.0448723527147261,1.0448723527147261,0.0,0,False
2024-11-29,1.0448723527147261,1.0448723527147261,0.0,0,False
2024-11-30,1.0448723527147261,1.054128776508758,0.885890393212363,1,True
2024-12-01,1.054128776508758,1.054128776508758,0.0,0,False
2024-12-02,1.054128776508758,1.0587788740003659,0.4411318232871775,1,True
2024-12-03,1.0587788740003659,1.0634884804958353,0.4448149288883485,1,True
2024-12-04,1.0634884804958353,1.0600869075990234,-0.31985046939352335,3,True
2024-12-05,1.0600869075990234,1.0660758382339326,0.5649471370676062,1,True
2024-12-06,1.0660758382339326,1.0679953567411054,0.18005459258438883,1,True
2024-12-07,1.0679953567411054,1.0694263985840893,0.13399326447922633,1,True
2024-12-08,1.0694263985840893,1.0694263985840893,0.0,0,False
2024-12-09,1.0694263985840893,1.0640831307268173,-0.49963867212802215,1,True
2024-12-10,1.0640831307268173,1.055079374005798,-0.8461516267877722,5,True
2024-12-11,1.055079374005798,1.0547851243365796,-0.027888865659586592,0,True
2024-12-12,1.0547851243365796,1.0547851243365796,0.0,0,False
2024-12-13,1.0547851243365796,1.0547851243365796,0.0,0,False
2024-12-14,1.0547851243365796,1.0547851243365796,0.0,0,False
2024-12-15,1.0547851243365796,1.0475007844937019,-0.6905994097574419,2,True
2024-12-16,1.0475007844937019,1.0442844830175773,-0.3070452570285376,0,True
2024-12-17,1.0442844830175773,1.0442844830175773,0.0,0,False
2024-12-18,1.0442844830175773,1.0390712676291882,-0.49921410048389125,1,True
2024-12-19,1.0390712676291882,1.0412602665248059,0.21066879277802375,1,True
2024-12-20,1.0412602665248059,1.0362860736496053,-0.4777088913420102,2,True
2024-12-21,1.0362860736496053,1.0362860736496053,0.0,0,False
2024-12-22,1.0362860736496053,1.0362860736496053,0.0,0,False
2024-12-23,1.0362860736496053,1.0362860736496053,0.0,0,False
2024-12-24,1.0362860736496053,1.0362860736496053,0.0,0,False
2024-12-25,1.0362860736496053,1.0464028314029168,0.9762514435499581,1,True
2024-12-26,1.0464028314029168,1.0457737884378264,-0.060114799598454116,1,True
2024-12-27,1.0457737884378264,1.0458542296815732,0.0076920309761252526,0,True
2024-12-28,1.0458542296815732,1.0458542296815732,0.0,0,False
2024-12-29,1.0458542296815732,1.0458542296815732,0.0,0,False
2024-12-30,1.0458542296815732,1.0488048443290934,0.2821248472092197,1,True
2024-12-31,1.0488048443290934,1.0488048443290934,0.0,0,False
