day,start_equity,end_equity,return_pct,entries,active
2024-01-02,1.0,0.9990134675237569,-0.09865324762431404,1,True
2024-01-03,0.9990134675237569,0.9904518335542647,-0.8570088640260098,8,True
2024-01-04,0.9904518335542647,1.0109190142931945,2.0664488716713114,5,True
2024-01-05,1.0109190142931945,0.9935651663624732,-1.716640767990174,4,True
2024-01-06,0.9935651663624732,0.9835792893168576,-1.0050550667124125,7,True
2024-01-07,0.9835792893168576,0.9820541096200074,-0.15506423461899566,3,True
2024-01-08,0.9820541096200074,0.9714635295557628,-1.0784110529655555,7,True
2024-01-09,0.9714635295557628,0.977594703328858,0.6311275293987562,0,True
2024-01-10,0.977594703328858,0.970325068259231,-0.7436246375796429,4,True
2024-01-11,0.970325068259231,0.9822958498118477,1.2336877551862413,3,True
2024-01-12,0.9822958498118477,0.976269114613674,-0.6135356470586717,5,True
2024-01-13,0.976269114613674,0.9682051165967891,-0.8260015497956186,6,True
2024-01-14,0.9682051165967891,0.9734383196603502,0.5405056195071145,0,True
2024-01-15,0.9734383196603502,0.9680516518077189,-0.5533650919465338,2,True
2024-01-16,0.9680516518077189,0.9692473262960449,0.12351350117456583,1,True
2024-01-17,0.9692473262960449,0.9747045552685313,0.5630378154708016,0,True
2024-01-18,0.9747045552685313,0.9739341694553761,-0.07903787963142728,1,True
2024-01-19,0.9739341694553761,0.9649941416544888,-0.9179293715392056,1,True
2024-01-20,0.9649941416544888,0.9882141252243827,2.406230521781505,7,True
2024-01-21,0.9882141252243827,1.0015436534606803,1.3488502032159344,1,True
2024-01-22,1.0015436534606803,0.9799023392090639,-2.1607959050849335,4,True
2024-01-23,0.9799023392090639,0.9546925713430958,-2.5726816701260646,8,True
2024-01-24,0.9546925713430958,0.9641273844079529,0.9882566752964062,1,True
2024-01-25,0.9641273844079529,0.9542893919241426,-1.0204038017083694,2,True
2024-01-26,0.9542893919241426,0.9542893919241426,0.0,0,False
2024-01-27,0.9542893919241426,0.9542893919241426,0.0,0,False
2024-01-28,0.9542893919241426,0.9512476528605202,-0.31874388307820967,2,True
2024-01-29,0.9512476528605202,0.9511748447472779,-0.007653959830900003,0,True
2024-01-30,0.9511748447472779,0.9511748447472779,0.0,0,False
2024-01-31,0.9511748447472779,0.9464302129284021,-0.4988180506535933,1,True
2024-02-01,0.9464302129284021,0.9464302129284021,0.0,0,False
2024-02-02,0.9464302129284021,0.9461770627329192,-0.026747898791146252,2,True
2024-02-03,0.9461770627329192,0.9563932969507438,1.0797380976786952,1,True
2024-02-04,0.9563932969507438,0.9550721043020373,-0.13814323593849265,1,True
2024-02-05,0.9550721043020373,0.9550721043020373,0.0,0,False
2024-02-06,0.9550721043020373,0.9486646691712702,-0.6708849627065083,2,True
2024-02-07,0.9486646691712702,0.9441412431971942,-0.47682032662053064,4,True
2024-02-08,0.9441412431971942,0.9702978823292397,2.7704159012766016,1,True
2024-02-09,0.9702978823292397,0.9702978823292397,0.0,0,False
2024-02-10,0.9702978823292397,0.9645595743337091,-0.5913965288428358,2,True
2024-02-11,0.9645595743337091,0.9626703959887144,-0.19585916673935388,0,True
2024-02-12,0.9626703959887144,0.9648123781944333,0.2225042148012557,1,True
2024-02-13,0.9648123781944333,0.9648852267870053,0.007550544978318641,0,True
2024-02-14,0.9648852267870053,0.9666691574949073,0.1848852753028929,2,True
2024-02-15,0.9666691574949073,0.9703716307784225,0.38301349068692314,1,True
2024-02-16,0.9703716307784225,0.9736868382454257,0.34164307383386383,3,True
2024-02-17,0.9736868382454257,0.9774395651078642,0.38541415114545785,5,True
2024-02-18,0.9774395651078642,0.9812321801142122,0.38801529442176186,1,True
2024-02-19,0.9812321801142122,0.9827129782583164,0.15091210562740986,2,True
2024-02-20,0.9827129782583164,0.9819098257761641,-0.08172808336933679,8,True
2024-02-21,0.9819098257761641,0.9677526484090846,-1.4418001526656288,7,True
2024-02-22,0.9677526484090846,1.0007876491322807,3.4135789530003624,3,True
2024-02-23,1.0007876491322807,1.00251048533406,0.17214802793310557,3,True
2024-02-24,1.00251048533406,0.9992553488541172,-0.32469849717913224,5,True
2024-02-25,0.9992553488541172,0.990744599148395,-0.8517091968015755,4,True
2024-02-26,0.990744599148395,0.9859258509216067,-0.48637643151729915,5,True
2024-02-27,0.9859258509216067,0.9847358648281186,-0.12069732144417422,3,True
2024-02-28,0.9847358648281186,0.995843321638959,1.127963061727133,5,True
2024-02-29,0.995843321638959,0.9994696123644676,0.3641426966182415,8,True
2024-03-01,0.9994696123644676,0.9963747153430584,-0.30965393876133396,5,True
2024-03-02,0.9963747153430584,1.0023762781449896,0.6023399339138091,4,True
2024-03-03,1.0023762781449896,1.006589635590298,0.42033690712488525,9,True
2024-03-04,1.006589635590298,1.0248041146617293,1.8095238046783368,1,True
2024-03-05,1.0248041146617293,1.0248439975907775,0.0038917612134481416,9,True
2024-03-06,1.0248439975907775,1.0141990359181796,-1.038690932241615,16,True
2024-03-07,1.0141990359181796,1.0106311201330243,-0.35179640867289974,5,True
2024-03-08,1.0106311201330243,1.015388690770329,0.47075243800906996,5,True
2024-03-09,1.015388690770329,1.0028347610445705,-1.2363669046022485,5,True
2024-03-10,1.0028347610445705,1.0012284461953234,-0.16017742021366965,8,True
2024-03-11,1.0012284461953234,1.003066614182713,0.1835912667458306,3,True
2024-03-12,1.003066614182713,1.0124595098170166,0.9364179309224507,4,True
2024-03-13,1.0124595098170166,1.0213701320753028,0.8800966529413756,5,True
2024-03-14,1.0213701320753028,1.0245701852926445,0.3133098488830477,5,True
2024-03-15,1.0245701852926445,0.9872015958484519,-3.6472454479552496,14,True
2024-03-16,0.9872015958484519,0.9959382373463701,0.8849906173834299,3,True
2024-03-17,0.9959382373463701,0.9853493599986962,-1.063206226109703,7,True
2024-03-18,0.9853493599986962,0.9913923853362938,0.6132875894500511,4,True
2024-03-19,0.9913923853362938,0.9779862506652705,-1.352253141068438,14,True
2024-03-20,0.9779862506652705,0.9649381016608835,-1.3341853216761512,4,True
2024-03-21,0.9649381016608835,0.9644945924350146,-0.045962453457426555,4,True
2024-03-22,0.9644945924350146,0.9766482055206804,1.2601017342131815,8,True
2024-03-23,0.9766482055206804,0.9956257901843216,1.943134135338287,5,True
2024-03-24,0.9956257901843216,0.9917602563641759,-0.3882516763080379,4,True
2024-03-25,0.9917602563641759,1.0079446626023625,1.6318869539619474,4,True
2024-03-26,1.0079446626023625,1.0230173761996397,1.4953909829098944,5,True
2024-03-27,1.0230173761996397,1.0188377947237017,-0.408554299582331,6,True
2024-03-28,1.0188377947237017,1.0074943213850094,-1.1133738262790516,2,True
2024-03-29,1.0074943213850094,1.0028696579006888,-0.45902625812948017,6,True
2024-03-30,1.0028696579006888,0.9931446582884276,-0.9697172045885494,2,True
2024-03-31,0.9931446582884276,0.9930546233524916,-0.009065641665040314,0,True
2024-04-01,0.9930546233524916,0.9916514077402854,-0.14130296352370397,5,True
2024-04-02,0.9916514077402854,0.9619798630931388,-2.992134576278205,5,True
2024-04-03,0.9619798630931388,0.9396063454714193,-2.3257781664763666,3,True
2024-04-04,0.9396063454714193,0.9390195146710705,-0.06245496352564883,1,True
2024-04-05,0.9390195146710705,0.9337070190286954,-0.5657492266533004,5,True
2024-04-06,0.9337070190286954,0.9318931018732857,-0.1942704851139121,1,True
2024-04-07,0.9318931018732857,0.9463950208328048,1.5561783782246597,3,True
2024-04-08,0.9463950208328048,0.9409997725953713,-0.5700841740149731,1,True
2024-04-09,0.9409997725953713,0.9295175117147357,-1.2202193045133591,3,True
2024-04-10,0.9295175117147357,0.9235227053281156,-0.6449374337833769,5,True
2024-04-11,0.9235227053281156,0.9307557413939543,0.7832006754256104,1,True
2024-04-12,0.9307557413939543,0.9279874246367663,-0.29742677203817847,9,True
2024-04-13,0.9279874246367663,0.9016081630506754,-2.8426313639343004,11,True
2024-04-14,0.9016081630506754,0.8758060276875154,-2.8617903453597937,15,True
2024-04-15,0.8758060276875154,0.8946680732955156,2.1536784415384425,2,True
2024-04-16,0.8946680732955156,0.88694182064806,-0.8635887295045386,1,True
2024-04-17,0.88694182064806,0.8858019393205472,-0.12851816218114598,0,True
2024-04-18,0.8858019393205472,0.8941306214981988,0.9402420346968476,1,True
2024-04-19,0.8941306214981988,0.8984542246417295,0.4835538610998613,5,True
2024-04-20,0.8984542246417295,0.8963415490450609,-0.23514560216031377,0,True
2024-04-21,0.8963415490450609,0.8963415490450609,0.0,0,False
2024-04-22,0.8963415490450609,0.8963415490450609,0.0,0,False
2024-04-23,0.8963415490450609,0.9061196474479151,1.0908897856259703,3,True
2024-04-24,0.9061196474479151,0.9050486842645024,-0.11819224827859243,3,True
2024-04-25,0.9050486842645024,0.905849759044785,0.08851178883637623,2,True
2024-04-26,0.905849759044785,0.9089586596746556,0.34320267779823777,2,True
2024-04-27,0.9089586596746556,0.9119135410559522,0.32508424336419317,6,True
2024-04-28,0.9119135410559522,0.9182637425451605,0.6963600388974367,3,True
2024-04-29,0.9182637425451605,0.9223662469695054,0.446767549916971,2,True
2024-04-30,0.9223662469695054,0.9131926321073074,-0.9945739983806323,2,True
2024-05-01,0.9131926321073074,0.900788897119374,-1.3582824205786825,6,True
2024-05-02,0.900788897119374,0.9128287377368351,1.3365884788282045,3,True
2024-05-03,0.9128287377368351,0.9106329179087046,-0.2405511283063433,1,True
2024-05-04,0.9106329179087046,0.9115620497839411,0.10203143955858085,0,True
2024-05-05,0.9115620497839411,0.907789671321331,-0.4138367172595858,1,True
2024-05-06,0.907789671321331,0.9070107847921282,-0.08580032950464833,0,True
2024-05-07,0.9070107847921282,0.9110263709985988,0.4427275037739431,3,True
2024-05-08,0.9110263709985988,0.9184232554984271,0.8119286922199986,3,True
2024-05-09,0.9184232554984271,0.9120194897182877,-0.6972564927772873,1,True
2024-05-10,0.9120194897182877,0.9087051641413887,-0.36340512612540454,2,True
2024-05-11,0.9087051641413887,0.9053371042178878,-0.37064386298313323,4,True
2024-05-12,0.9053371042178878,0.9000090411053109,-0.5885170383224003,0,True
2024-05-13,0.9000090411053109,0.9087388529952506,0.9699693548876454,5,True
2024-05-14,0.9087388529952506,0.9003581187852353,-0.9222379105275347,4,True
2024-05-15,0.9003581187852353,0.9027660350544248,0.26743983521115844,3,True
2024-05-16,0.9027660350544248,0.8915830579788958,-1.2387458811357166,2,True
2024-05-17,0.8915830579788958,0.8921897271331978,0.06804404243361262,0,True
2024-05-18,0.8921897271331978,0.8981976698004859,0.6733929437400032,2,True
2024-05-19,0.8981976698004859,0.8976898028858069,-0.05654288936106644,0,True
2024-05-20,0.8976898028858069,0.9016754421636375,0.4439884763108415,2,True
2024-05-21,0.9016754421636375,0.8964708596613471,-0.5772124046987015,2,True
2024-05-22,0.8964708596613471,0.9007555695251999,0.47795305532534194,1,True
2024-05-23,0.9007555695251999,0.8934730439000128,-0.8084907683696851,6,True
2024-05-24,0.8934730439000128,0.9085573178371147,1.6882740940072472,2,True
2024-05-25,0.9085573178371147,0.9073499148628882,-0.13289232836743992,0,True
2024-05-26,0.9073499148628882,0.9124757449197509,0.5649231870636484,3,True
2024-05-27,0.9124757449197509,0.9343451697377732,2.396713001938,3,True
2024-05-28,0.9343451697377732,0.9435518356681627,0.9853602532106542,2,True
2024-05-29,0.9435518356681627,0.9452130178006433,0.17605626629979554,1,True
2024-05-30,0.9452130178006433,0.923502830307386,-2.2968565904618377,5,True
2024-05-31,0.923502830307386,0.9230768207189132,-0.046129754505574994,1,True
2024-06-01,0.9230768207189132,0.9193212993020432,-0.40684819860876686,2,True
2024-06-02,0.9193212993020432,0.9283101419388814,0.9777694309554885,0,True
2024-06-03,0.9283101419388814,0.9159225465197398,-1.3344242252129934,5,True
2024-06-04,0.9159225465197398,0.9132105277695466,-0.2960969527934565,6,True
2024-06-05,0.9132105277695466,0.9142364763786266,0.11234524546994695,0,True
2024-06-06,0.9142364763786266,0.9111540741949959,-0.33715589601504004,2,True
2024-06-07,0.9111540741949959,0.9103049008330023,-0.09319755967110988,0,True
2024-06-08,0.9103049008330023,0.9303208920258159,2.198822743291551,8,True
2024-06-09,0.9303208920258159,0.9374448642451417,0.7657542983704246,1,True
2024-06-10,0.9374448642451417,0.9391266701780546,0.17940318380933462,0,True
2024-06-11,0.9391266701780546,0.9366807960840459,-0.2604413410541295,2,True
2024-06-12,0.9366807960840459,0.9494752590630318,1.3659362968126754,3,True
2024-06-13,0.9494752590630318,0.9439732770135948,-0.5794760839652136,4,True
2024-06-14,0.9439732770135948,0.9280050756601119,-1.6915946396280135,5,True
2024-06-15,0.9280050756601119,0.9333941646174917,0.5807176166085393,5,True
2024-06-16,0.9333941646174917,0.9344376170679352,0.11179119068855936,0,True
2024-06-17,0.9344376170679352,0.9179989448941233,-1.759204881476506,4,True
2024-06-18,0.9179989448941233,0.9207205070127379,0.29646680246768753,5,True
2024-06-19,0.9207205070127379,0.9179706666058921,-0.29866179648453395,2,True
2024-06-20,0.9179706666058921,0.9282905026802428,1.1242010719696882,1,True
2024-06-21,0.9282905026802428,0.9265125963308504,-0.19152478068655832,1,True
2024-06-22,0.9265125963308504,0.9308519685986499,0.46835545301642245,2,True
2024-06-23,0.9308519685986499,0.933820779883903,0.318934845217389,2,True
2024-06-24,0.933820779883903,0.9342143888766522,0.042150378448213566,1,True
2024-06-25,0.9342143888766522,0.9426572557453123,0.9037397592229546,0,True
2024-06-26,0.9426572557453123,0.9426572557453123,0.0,0,False
2024-06-27,0.9426572557453123,0.9383455458053919,-0.4573995387657015,2,True
2024-06-28,0.9383455458053919,0.9313932051589943,-0.7409147597573273,2,True
2024-06-29,0.9313932051589943,0.9151317994232716,-1.7459227365682506,5,True
2024-06-30,0.9151317994232716,0.9199575936398815,0.5273332452933266,0,True
2024-07-01,0.9199575936398815,0.9136455299893808,-0.6861255012338807,2,True
2024-07-02,0.9136455299893808,0.9188954445085298,0.5746117445799781,0,True
2024-07-03,0.9188954445085298,0.9143154169863067,-0.4984274924415,1,True
2024-07-04,0.9143154169863067,0.8986041496140073,-1.7183640437876124,5,True
2024-07-05,0.8986041496140073,0.8461775033468117,-5.834231489996478,18,True
2024-07-06,0.8461775033468117,0.8569273904023625,1.2704056788360285,2,True
2024-07-07,0.8569273904023625,0.8635504842673816,0.7728885713303324,1,True
2024-07-08,0.8635504842673816,0.8646387419933408,0.12602132078964878,2,True
2024-07-09,0.8646387419933408,0.8728600298777275,0.9508350117915398,2,True
2024-07-10,0.8728600298777275,0.8771838345796267,0.4953606023757162,1,True
2024-07-11,0.8771838345796267,0.8672987378966301,-1.1269127739607532,2,True
2024-07-12,0.8672987378966301,0.8672987378966301,0.0,0,False
2024-07-13,0.8672987378966301,0.8662700094795608,-0.11861292679431479,2,True
2024-07-14,0.8662700094795608,0.8846800889643257,2.125212610768479,1,True
2024-07-15,0.8846800889643257,0.8872284039385088,0.2880493192930711,0,True
2024-07-16,0.8872284039385088,0.8866751496460965,-0.06235759472491553,3,True
2024-07-17,0.8866751496460965,0.8822481985049486,-0.49927542718603,1,True
2024-07-18,0.8822481985049486,0.8822481985049486,0.0,0,False
2024-07-19,0.8822481985049486,0.8799199112893372,-0.2639038786995451,2,True
2024-07-20,0.8799199112893372,0.8823071274818327,0.271299258246982,1,True
2024-07-21,0.8823071274818327,0.8820471861658108,-0.029461545523701282,1,True
2024-07-22,0.8820471861658108,0.8819246655479768,-0.013890483384071395,1,True
2024-07-23,0.8819246655479768,0.876097567572168,-0.6607251393959124,3,True
2024-07-24,0.876097567572168,0.8716666081769165,-0.5057609516632255,1,True
2024-07-25,0.8716666081769165,0.8658188648135619,-0.6708692645213565,3,True
2024-07-26,0.8658188648135619,0.8647091558767204,-0.12816871772370897,0,True
2024-07-27,0.8647091558767204,0.868207984068936,0.40462485778447466,1,True
2024-07-28,0.868207984068936,0.8568920006093242,-1.303372425415661,2,True
2024-07-29,0.8568920006093242,0.8562290752961053,-0.07736392833024297,0,True
2024-07-30,0.8562290752961053,0.8531326227891871,-0.3616383274355983,2,True
2024-07-31,0.8531326227891871,0.8409817551101914,-1.424264804136821,5,True
2024-08-01,0.8409817551101914,0.8411371102012395,0.018473063191226657,1,True
2024-08-02,0.8411371102012395,0.8278718150023306,-1.5770669297583528,4,True
2024-08-03,0.8278718150023306,0.8230556449513112,-0.5817531124677644,7,True
2024-08-04,0.8230556449513112,0.7938650022676119,-3.546618368120924,4,True
2024-08-05,0.7938650022676119,0.7772930813698522,-2.08749861127816,16,True
2024-08-06,0.7772930813698522,0.786652874821231,1.2041524202021314,0,True
2024-08-07,0.786652874821231,0.7863903508029366,-0.033372282323895774,1,True
2024-08-08,0.7863903508029366,0.7827287670559941,-0.46561910928889505,0,True
2024-08-09,0.7827287670559941,0.7827287670559941,0.0,0,False
2024-08-10,0.7827287670559941,0.7827287670559941,0.0,0,False
2024-08-11,0.7827287670559941,0.7788158902332358,-0.49990200787884964,1,True
2024-08-12,0.7788158902332358,0.7799765089569596,0.14902350327958835,1,True
2024-08-13,0.7799765089569596,0.774927550392069,-0.6473218753270449,0,True
2024-08-14,0.774927550392069,0.774927550392069,0.0,0,False
2024-08-15,0.774927550392069,0.774927550392069,0.0,0,False
2024-08-16,0.774927550392069,0.774927550392069,0.0,0,False
2024-08-17,0.774927550392069,0.7819913192043185,0.9115392540471223,1,True
2024-08-18,0.7819913192043185,0.7894219351546031,0.9502171913935431,1,True
2024-08-19,0.7894219351546031,0.7862111751287271,-0.40672293014599736,3,True
2024-08-20,0.7862111751287271,0.778155820668198,-1.024578982766322,2,True
2024-08-21,0.778155820668198,0.7774348665177351,-0.09264907250116083,0,True
2024-08-22,0.7774348665177351,0.7779373446481572,0.06463282675663873,1,True
2024-08-23,0.7779373446481572,0.7784699886051493,0.068468747599848,0,True
2024-08-24,0.7784699886051493,0.7766052716877355,-0.2395361343029978,2,True
2024-08-25,0.7766052716877355,0.7753637865266794,-0.1598605116802987,2,True
2024-08-26,0.7753637865266794,0.7779092592917667,0.3282939968721088,2,True
2024-08-27,0.7779092592917667,0.7715077557631435,-0.8229113424426115,1,True
2024-08-28,0.7715077557631435,0.7723716819914161,0.11197894276748777,4,True
2024-08-29,0.7723716819914161,0.7663020898779354,-0.7858382505468664,3,True
2024-08-30,0.7663020898779354,0.7685409912046894,0.29216954466491085,0,True
2024-08-31,0.7685409912046894,0.7685409912046894,0.0,0,False
2024-09-01,0.7685409912046894,0.7647117584868962,-0.49824703712821883,1,True
2024-09-02,0.7647117584868962,0.765869095132731,0.15134285997182584,1,True
2024-09-03,0.765869095132731,0.7639274660021755,-0.2535197128197275,0,True
2024-09-04,0.7639274660021755,0.7639274660021755,0.0,0,False
2024-09-05,0.7639274660021755,0.7639274660021755,0.0,0,False
2024-09-06,0.7639274660021755,0.7638131832988336,-0.014959889312526897,1,True
2024-09-07,0.7638131832988336,0.7652518749357918,0.1883564814559202,0,True
2024-09-08,0.7652518749357918,0.7652518749357918,0.0,0,False
2024-09-09,0.7652518749357918,0.7652518749357918,0.0,0,False
2024-09-10,0.7652518749357918,0.7652518749357918,0.0,0,False
2024-09-11,0.7652518749357918,0.75763862350099,-0.9948687071744344,2,True
2024-09-12,0.75763862350099,0.75763862350099,0.0,0,False
2024-09-13,0.75763862350099,0.7575265409068094,-0.014793674808011303,1,True
2024-09-14,0.7575265409068094,0.7593377152613784,0.23909054756034998,0,True
2024-09-15,0.7593377152613784,0.7613535659204276,0.2654748497979309,2,True
2024-09-16,0.7613535659204276,0.7564175292494425,-0.6483238395314728,2,True
2024-09-17,0.7564175292494425,0.7623757643217398,0.7876913003601826,1,True
2024-09-18,0.7623757643217398,0.762464524551719,0.01164258284864772,0,True
2024-09-19,0.762464524551719,0.7620935336176735,-0.04865681249414111,1,True
2024-09-20,0.7620935336176735,0.7646040074960034,0.32941807896107456,2,True
2024-09-21,0.7646040074960034,0.7574713035064053,-0.9328624908672589,2,True
2024-09-22,0.7574713035064053,0.7645796207836368,0.9384272703568453,2,True
2024-09-23,0.7645796207836368,0.7634642244059501,-0.1458836133434449,0,True
2024-09-24,0.7634642244059501,0.7634642244059501,0.0,0,False
2024-09-25,0.7634642244059501,0.7634642244059501,0.0,0,False
2024-09-26,0.7634642244059501,0.7634642244059501,0.0,0,False
2024-09-27,0.7634642244059501,0.7634642244059501,0.0,0,False
2024-09-28,0.7634642244059501,0.7634642244059501,0.0,0,False
2024-09-29,0.7634642244059501,0.7634642244059501,0.0,0,False
2024-09-30,0.7634642244059501,0.7602095741186904,-0.4263003010772537,2,True
2024-10-01,0.7602095741186904,0.7605136070985191,0.039993311078889704,0,True
2024-10-02,0.7605136070985191,0.7432587018593336,-2.2688489828624814,11,True
2024-10-03,0.7432587018593336,0.7467259563406969,0.46649362768167446,3,True
2024-10-04,0.7467259563406969,0.7471961936144407,0.06297320586632349,2,True
2024-10-05,0.7471961936144407,0.7477957374986051,0.08023915128156922,0,True
2024-10-06,0.7477957374986051,0.7477957374986051,0.0,0,False
2024-10-07,0.7477957374986051,0.7477957374986051,0.0,0,False
2024-10-08,0.7477957374986051,0.7419165386521247,-0.7862038457381981,2,True
2024-10-09,0.7419165386521247,0.7423383794217766,0.05685825125536503,0,True
2024-10-10,0.7423383794217766,0.7423383794217766,0.0,0,False
2024-10-11,0.7423383794217766,0.7416099009510112,-0.09813293923086608,1,True
2024-10-12,0.7416099009510112,0.7405118846376092,-0.1480584754860903,1,True
2024-10-13,0.7405118846376092,0.7404621856721681,-0.006711433870554284,0,True
2024-10-14,0.7404621856721681,0.7404621856721681,0.0,0,False
2024-10-15,0.7404621856721681,0.7406932193215134,0.031201275880898827,1,True
2024-10-16,0.7406932193215134,0.7360095405604486,-0.6323371996513116,5,True
2024-10-17,0.7360095405604486,0.7323414258457078,-0.49837869111691857,2,True
2024-10-18,0.7323414258457078,0.741715994584195,1.2800817224918548,2,True
2024-10-19,0.741715994584195,0.7360951880067884,-0.7578111593181447,3,True
2024-10-20,0.7360951880067884,0.7379691312143758,0.25457892377502844,2,True
2024-10-21,0.7379691312143758,0.7409882244569521,0.40910833731055973,2,True
2024-10-22,0.7409882244569521,0.738334586929135,-0.35812141680954257,0,True
2024-10-23,0.738334586929135,0.7346478570539148,-0.4993305122754754,1,True
2024-10-24,0.7346478570539148,0.7293365413000975,-0.7229743751130946,3,True
2024-10-25,0.7293365413000975,0.7267501651950082,-0.3546203924568059,2,True
2024-10-26,0.7267501651950082,0.7113441112935481,-2.1198555761354654,10,True
2024-10-27,0.7113441112935481,0.7189826647969133,1.0738197423852736,1,True
2024-10-28,0.7189826647969133,0.7163042397329366,-0.372529852960124,1,True
2024-10-29,0.7163042397329366,0.7246668583593994,1.167467419930479,2,True
2024-10-30,0.7246668583593994,0.7263207457905937,0.22822727603946102,0,True
2024-10-31,0.7263207457905937,0.7263207457905937,0.0,0,False
2024-11-01,0.7263207457905937,0.72572234564444,-0.0823878637119635,3,True
2024-11-02,0.72572234564444,0.7234949677539461,-0.3069187415630781,1,True
2024-11-03,0.7234949677539461,0.7180616412643019,-0.7509833145780687,2,True
2024-11-04,0.7180616412643019,0.7292213814997335,1.5541479441489647,4,True
2024-11-05,0.7292213814997335,0.7225851610769931,-0.9100419421454897,1,True
2024-11-06,0.7225851610769931,0.7270734070049392,0.6211372956035355,2,True
2024-11-07,0.7270734070049392,0.7238073014595885,-0.4492126261094964,2,True
2024-11-08,0.7238073014595885,0.7210723016952658,-0.37786296971685784,2,True
2024-11-09,0.7210723016952658,0.7189724989600461,-0.2912055740156738,2,True
2024-11-10,0.7189724989600461,0.7297854725355974,1.5039481470003002,3,True
2024-11-11,0.7297854725355974,0.7278993940274192,-0.25844286837132247,6,True
2024-11-12,0.7278993940274192,0.7243716250694399,-0.48465062437549333,6,True
2024-11-13,0.7243716250694399,0.7215032625962148,-0.395979408076641,2,True
2024-11-14,0.7215032625962148,0.7204144517702734,-0.15090864898149592,4,True
2024-11-15,0.7204144517702734,0.7533712164747974,4.574695111062721,4,True
2024-11-16,0.7533712164747974,0.7571633963186145,0.5033613922179825,1,True
2024-11-17,0.7571633963186145,0.7474049902858851,-1.2888111179403916,4,True
2024-11-18,0.7474049902858851,0.7498867805155859,0.33205427605607074,2,True
2024-11-19,0.7498867805155859,0.7403615349153089,-1.2702244989207467,4,True
2024-11-20,0.7403615349153089,0.7453511975951832,0.6739494752985964,1,True
2024-11-21,0.7453511975951832,0.7614990509452435,2.166475803910961,4,True
2024-11-22,0.7614990509452435,0.7661818308113042,0.6149423115167307,4,True
2024-11-23,0.7661818308113042,0.7880791965693662,2.8579855169464263,1,True
2024-11-24,0.7880791965693662,0.7894106337025638,0.16894712346089413,12,True
2024-11-25,0.7894106337025638,0.8034941548658886,1.7840551624278334,2,True
2024-11-26,0.8034941548658886,0.790007953726314,-1.6784442124318288,5,True
2024-11-27,0.790007953726314,0.7984379070936874,1.067071961441779,3,True
2024-11-28,0.7984379070936874,0.7972979982770778,-0.14276737194992561,2,True
2024-11-29,0.7972979982770778,0.8094147024601599,1.5197208834420328,5,True
2024-11-30,0.8094147024601599,0.8081106137341894,-0.16111502818109136,1,True
2024-12-01,0.8081106137341894,0.8111035118801248,0.3703574851102953,3,True
2024-12-02,0.8111035118801248,0.8185466701752422,0.9176582502847586,8,True
2024-12-03,0.8185466701752422,0.8308773391323458,1.5064100076864095,7,True
2024-12-04,0.8308773391323458,0.8432153446575966,1.4849370591975664,3,True
2024-12-05,0.8432153446575966,0.844760179560614,0.18320763643653315,5,True
2024-12-06,0.844760179560614,0.8442466928820174,-0.06078490570704531,2,True
2024-12-07,0.8442466928820174,0.8455909819821427,0.15922941854071837,2,True
2024-12-08,0.8455909819821427,0.8438129738264188,-0.21026810758506542,0,True
2024-12-09,0.8438129738264188,0.837618903937419,-0.7340572000110068,3,True
2024-12-10,0.837618903937419,0.7935314110689481,-5.2634309781247275,16,True
2024-12-11,0.7935314110689481,0.8057712470912419,1.542451357509056,4,True
2024-12-12,0.8057712470912419,0.8088314558024386,0.3797862882603198,0,True
2024-12-13,0.8088314558024386,0.8088314558024386,0.0,0,False
2024-12-14,0.8088314558024386,0.8088314558024386,0.0,0,False
2024-12-15,0.8088314558024386,0.8030369901812002,-0.7163996379801696,3,True
2024-12-16,0.8030369901812002,0.8002443402189185,-0.34776106162326403,0,True
2024-12-17,0.8002443402189185,0.8002443402189185,0.0,0,False
2024-12-18,0.8002443402189185,0.7964274048419158,-0.47697124305291494,2,True
2024-12-19,0.7964274048419158,0.7980758927702729,0.20698533454965862,10,True
2024-12-20,0.7980758927702729,0.7622792202772967,-4.485371982446329,17,True
2024-12-21,0.7622792202772967,0.7736280445866156,1.4888014794881332,2,True
2024-12-22,0.7736280445866156,0.7781884518497423,0.589483188340667,1,True
2024-12-23,0.7781884518497423,0.7846258192099427,0.8272247352037798,3,True
2024-12-24,0.7846258192099427,0.7844127064809855,-0.027161065024827735,0,True
2024-12-25,0.7844127064809855,0.7904289557136333,0.7669749843341789,3,True
2024-12-26,0.7904289557136333,0.7849643335719723,-0.6913489317616484,1,True
2024-12-27,0.7849643335719723,0.7849643335719723,0.0,0,False
2024-12-28,0.7849643335719723,0.7810537517928975,-0.49818591900598896,1,True
2024-12-29,0.7810537517928975,0.782604895741259,0.19859631232816977,4,True
2024-12-30,0.782604895741259,0.7786315979936133,-0.50770162175926,2,True
2024-12-31,0.7786315979936133,0.7757695475964195,-0.36757439648850143,2,True
