day,start_equity,end_equity,return_pct,entries,active
2021-09-02,1.0,1.0,0.0,0,False
2021-09-03,1.0,1.0,0.0,0,False
2021-09-04,1.0,1.0,0.0,0,False
2021-09-05,1.0,1.0,0.0,0,False
2021-09-06,1.0,1.0,0.0,0,False
2021-09-07,1.0,1.0,0.0,0,False
2021-09-08,1.0,1.0,0.0,0,False
2021-09-09,1.0,1.0,0.0,0,False
2021-09-10,1.0,1.0,0.0,0,False
2021-09-11,1.0,1.0,0.0,0,False
2021-09-12,1.0,1.0,0.0,0,False
2021-09-13,1.0,1.0,0.0,0,False
2021-09-14,1.0,1.0,0.0,0,False
2021-09-15,1.0,1.0,0.0,0,False
2021-09-16,1.0,1.0,0.0,0,False
2021-09-17,1.0,1.0,0.0,0,False
2021-09-18,1.0,1.0,0.0,0,False
2021-09-19,1.0,1.0,0.0,0,False
2021-09-20,1.0,1.0,0.0,0,False
2021-09-21,1.0,1.0,0.0,0,False
2021-09-22,1.0,1.0,0.0,0,False
2021-09-23,1.0,1.0,0.0,0,False
2021-09-24,1.0,1.0,0.0,0,False
2021-09-25,1.0,1.0,0.0,0,False
2021-09-26,1.0,1.0,0.0,0,False
2021-09-27,1.0,1.0,0.0,0,False
2021-09-28,1.0,1.0,0.0,0,False
2021-09-29,1.0,1.0,0.0,0,False
2021-09-30,1.0,1.0,0.0,0,False
2021-10-01,1.0,1.0,0.0,0,False
2021-10-02,1.0,1.0,0.0,0,False
2021-10-03,1.0,1.0,0.0,0,False
2021-10-04,1.0,1.0,0.0,0,False
2021-10-05,1.0,0.9995269898820623,-0.04730101179376556,1,True
2021-10-06,0.9995269898820623,1.0056430676177626,0.6118972071401441,3,True
2021-10-07,1.0056430676177626,1.0021691745917531,-0.34543996154009493,2,True
2021-10-08,1.0021691745917531,1.0017165434430628,-0.04516514378669623,1,True
2021-10-09,1.0017165434430628,1.0030236554219536,0.1304872109227695,2,True
2021-10-10,1.0030236554219536,1.0103723326108696,0.7326524303980175,1,True
2021-10-11,1.0103723326108696,1.0070052278961181,-0.33325385168164745,0,True
2021-10-12,1.0070052278961181,1.0070052278961181,0.0,0,False
2021-10-13,1.0070052278961181,1.025182058099002,1.8050383155268968,4,True
2021-10-14,1.025182058099002,1.0413777343906143,1.5797853818904972,0,True
2021-10-15,1.0413777343906143,1.0467921355055285,0.5199267216984049,4,True
2021-10-16,1.0467921355055285,1.0438711219204677,-0.27904428071100496,2,True
2021-10-17,1.0438711219204677,1.0438288456946963,-0.004049946864481679,0,True
2021-10-18,1.0438288456946963,1.0425686717278242,-0.12072611061378913,1,True
2021-10-19,1.0425686717278242,1.045358456315206,0.2675876096255969,0,True
2021-10-20,1.045358456315206,1.045358456315206,0.0,0,False
2021-10-21,1.045358456315206,1.045358456315206,0.0,0,False
2021-10-22,1.045358456315206,1.045358456315206,0.0,0,False
2021-10-23,1.045358456315206,1.045358456315206,0.0,0,False
2021-10-24,1.045358456315206,1.045358456315206,0.0,0,False
2021-10-25,1.045358456315206,1.059072462441183,1.3118950770549587,2,True
2021-10-26,1.059072462441183,1.060005026522115,0.08805479454943033,0,True
2021-10-27,1.060005026522115,1.0548948917532563,-0.48208589968908866,7,True
2021-10-28,1.0548948917532563,1.0575655731242153,0.2531703766732729,2,True
2021-10-29,1.0575655731242153,1.0542329170394316,-0.3151252432450624,0,True
2021-10-30,1.0542329170394316,1.0547291738562152,0.0470727871196841,2,True
2021-10-31,1.0547291738562152,1.0477744479701636,-0.6593849927014284,1,True
2021-11-01,1.0477744479701636,1.059273633308278,1.0974867119914578,2,True
2021-11-02,1.059273633308278,1.0609413205114848,0.15743686529781087,1,True
2021-11-03,1.0609413205114848,1.0592833093986709,-0.15627736244777646,1,True
2021-11-04,1.0592833093986709,1.0786294564919754,1.8263430492723387,1,True
2021-11-05,1.0786294564919754,1.0657488476601786,-1.194164386506591,3,True
2021-11-06,1.0657488476601786,1.055095463112099,-0.999614925361525,2,True
2021-11-07,1.055095463112099,1.0556250921401316,0.05019726143740133,0,True
2021-11-08,1.0556250921401316,1.0556250921401316,0.0,0,False
2021-11-09,1.0556250921401316,1.0556250921401316,0.0,0,False
2021-11-10,1.0556250921401316,1.0556250921401316,0.0,0,False
2021-11-11,1.0556250921401316,1.0442240258868278,-1.0800298645980089,12,True
2021-11-12,1.0442240258868278,1.038807648751291,-0.5186987659029363,1,True
2021-11-13,1.038807648751291,1.037385375083154,-0.13691405428584158,1,True
2021-11-14,1.037385375083154,1.0378309235705807,0.04294917762754924,0,True
2021-11-15,1.0378309235705807,1.0378309235705807,0.0,0,False
2021-11-16,1.0378309235705807,1.0512193417244058,1.2900384686711064,7,True
2021-11-17,1.0512193417244058,1.0360085291047894,-1.4469684884854561,0,True
2021-11-18,1.0360085291047894,1.0268915124720377,-0.8800136655853219,4,True
2021-11-19,1.0268915124720377,1.0425567302542749,1.525498808002257,4,True
2021-11-20,1.0425567302542749,1.043256760948996,0.06714557341644944,0,True
2021-11-21,1.043256760948996,1.0392725920164434,-0.3818972549891164,1,True
2021-11-22,1.0392725920164434,1.0241376595987002,-1.4563005446316724,4,True
2021-11-23,1.0241376595987002,1.021150107315789,-0.2917139365895327,0,True
2021-11-24,1.021150107315789,1.0164690810266719,-0.4584072660406058,2,True
2021-11-25,1.0164690810266719,1.0261785192954633,0.9552123571712201,5,True
2021-11-26,1.0261785192954633,0.991458314679769,-3.3834468333572176,8,True
2021-11-27,0.991458314679769,0.995938790194379,0.45190760400826147,0,True
2021-11-28,0.995938790194379,0.9902920947509498,-0.5669721371458158,7,True
2021-11-29,0.9902920947509498,0.9818371701064748,-0.8537808884157005,1,True
2021-11-30,0.9818371701064748,0.9716779001257304,-1.034720449587645,3,True
2021-12-01,0.9716779001257304,0.96584341137607,-0.6004550220711447,1,True
2021-12-02,0.96584341137607,0.9637219628324118,-0.2196472553077311,5,True
2021-12-03,0.9637219628324118,0.9518407041528899,-1.2328512929810742,2,True
2021-12-04,0.9518407041528899,0.8925151586320358,-6.232717855205838,19,True
2021-12-05,0.8925151586320358,0.883006528825026,-1.065374600649227,3,True
2021-12-06,0.883006528825026,0.8727580330293715,-1.1606364688256154,12,True
2021-12-07,0.8727580330293715,0.8936360905198071,2.3921931051115175,0,True
2021-12-08,0.8936360905198071,0.8993313483183918,0.6373128680682516,2,True
2021-12-09,0.8993313483183918,0.8981468533259261,-0.13170840699375796,2,True
2021-12-10,0.8981468533259261,0.8810804757833292,-1.900176733837955,3,True
2021-12-11,0.8810804757833292,0.8722996699556926,-0.9965952111048559,2,True
2021-12-12,0.8722996699556926,0.8722996699556926,0.0,0,False
2021-12-13,0.8722996699556926,0.8635942512277371,-0.9979848700845784,2,True
2021-12-14,0.8635942512277371,0.8631254651984969,-0.0542831345361372,1,True
2021-12-15,0.8631254651984969,0.8600328544749655,-0.35830372851067827,1,True
2021-12-16,0.8600328544749655,0.8608606116873756,0.09624716173377568,0,True
2021-12-17,0.8608606116873756,0.8576932807289229,-0.36792610969206274,5,True
2021-12-18,0.8576932807289229,0.860454242959429,0.3219055450871089,1,True
2021-12-19,0.860454242959429,0.8558883745804073,-0.530634652148132,1,True
2021-12-20,0.8558883745804073,0.8558883745804073,0.0,0,False
2021-12-21,0.8558883745804073,0.8529246732596792,-0.34627194488778823,1,True
2021-12-22,0.8529246732596792,0.8534449551770732,0.06099974988478252,0,True
2021-12-23,0.8534449551770732,0.8534449551770732,0.0,0,False
2021-12-24,0.8534449551770732,0.8534449551770732,0.0,0,False
2021-12-25,0.8534449551770732,0.8610600823658185,0.8922810009657001,2,True
2021-12-26,0.8610600823658185,0.857080020645269,-0.4622281071971268,0,True
2021-12-27,0.857080020645269,0.857080020645269,0.0,0,False
2021-12-28,0.857080020645269,0.8590391956355937,0.2285871730914657,1,True
2021-12-29,0.8590391956355937,0.8588212628431842,-0.025369365392957643,0,True
2021-12-30,0.8588212628431842,0.8588212628431842,0.0,0,False
2021-12-31,0.8588212628431842,0.8588212628431842,0.0,0,False
2022-01-01,0.8588212628431842,0.8588212628431842,0.0,0,False
2022-01-02,0.8588212628431842,0.8588212628431842,0.0,0,False
2022-01-03,0.8588212628431842,0.8588212628431842,0.0,0,False
2022-01-04,0.8588212628431842,0.8588212628431842,0.0,0,False
2022-01-05,0.8588212628431842,0.8604753806774909,0.19260326983878695,1,True
2022-01-06,0.8604753806774909,0.837106279200241,-2.7158361531332,8,True
2022-01-07,0.837106279200241,0.8417164783958067,0.5507304520484757,5,True
2022-01-08,0.8417164783958067,0.8321732255353393,-1.1337847250722066,0,True
2022-01-09,0.8321732255353393,0.8329246973895179,0.09030233503308782,1,True
2022-01-10,0.8329246973895179,0.8345900106340459,0.19993563040539009,0,True
2022-01-11,0.8345900106340459,0.8345900106340459,0.0,0,False
2022-01-12,0.8345900106340459,0.8345900106340459,0.0,0,False
2022-01-13,0.8345900106340459,0.8345900106340459,0.0,0,False
2022-01-14,0.8345900106340459,0.8345900106340459,0.0,0,False
2022-01-15,0.8345900106340459,0.8351197725653076,0.06347570957137005,1,True
2022-01-16,0.8351197725653076,0.8339771980215317,-0.13681564983979433,0,True
2022-01-17,0.8339771980215317,0.8364322303027724,0.2943764274448757,1,True
2022-01-18,0.8364322303027724,0.8417346832106385,0.6339369426195729,0,True
2022-01-19,0.8417346832106385,0.8375302403059537,-0.4994974056014567,1,True
2022-01-20,0.8375302403059537,0.8375302403059537,0.0,0,False
2022-01-21,0.8375302403059537,0.8045574542757501,-3.9369069250751454,8,True
2022-01-22,0.8045574542757501,0.7744133805394527,-3.746665148163042,17,True
2022-01-23,0.7744133805394527,0.7837259963848767,1.202538086175231,0,True
2022-01-24,0.7837259963848767,0.7729646079114645,-1.3731059736504458,5,True
2022-01-25,0.7729646079114645,0.7836131057925756,1.377617781218099,0,True
2022-01-26,0.7836131057925756,0.7844890054020471,0.11177704954099532,1,True
2022-01-27,0.7844890054020471,0.7825144125809586,-0.25170433332926123,7,True
2022-01-28,0.7825144125809586,0.7690482234889346,-1.7208870374167962,0,True
2022-01-29,0.7690482234889346,0.7690482234889346,0.0,0,False
2022-01-30,0.7690482234889346,0.77618004365428,0.927356692014758,1,True
2022-01-31,0.77618004365428,0.77618004365428,0.0,0,False
2022-02-01,0.77618004365428,0.77618004365428,0.0,0,False
2022-02-02,0.77618004365428,0.7757018174138518,-0.06161279774428152,1,True
2022-02-03,0.7757018174138518,0.7752332671109987,-0.060403404031617036,4,True
2022-02-04,0.7752332671109987,0.7882068042421042,1.6735010843191622,0,True
2022-02-05,0.7882068042421042,0.7882068042421042,0.0,0,False
2022-02-06,0.7882068042421042,0.7882068042421042,0.0,0,False
2022-02-07,0.7882068042421042,0.7882068042421042,0.0,0,False
2022-02-08,0.7882068042421042,0.7840026623627809,-0.533380561636454,3,True
2022-02-09,0.7840026623627809,0.7947011072944481,1.364592933833264,2,True
2022-02-10,0.7947011072944481,0.8010933368684124,0.8043564448685148,5,True
2022-02-11,0.8010933368684124,0.7837179269376504,-2.168961983716522,0,True
2022-02-12,0.7837179269376504,0.7644164906718612,-2.4628039760694054,5,True
2022-02-13,0.7644164906718612,0.7644164906718612,0.0,0,False
2022-02-14,0.7644164906718612,0.7644164906718612,0.0,0,False
2022-02-15,0.7644164906718612,0.7644164906718612,0.0,0,False
2022-02-16,0.7644164906718612,0.7644164906718612,0.0,0,False
2022-02-17,0.7644164906718612,0.7644164906718612,0.0,0,False
2022-02-18,0.7644164906718612,0.7644164906718612,0.0,0,False
2022-02-19,0.7644164906718612,0.7644164906718612,0.0,0,False
2022-02-20,0.7644164906718612,0.7644164906718612,0.0,0,False
2022-02-21,0.7644164906718612,0.7644164906718612,0.0,0,False
2022-02-22,0.7644164906718612,0.7568088110587978,-0.9952270399578689,2,True
2022-02-23,0.7568088110587978,0.7568088110587978,0.0,0,False
2022-02-24,0.7568088110587978,0.7408730727790708,-2.105649147693256,9,True
2022-02-25,0.7408730727790708,0.7528775023472721,1.6203085264216543,0,True
2022-02-26,0.7528775023472721,0.7528775023472721,0.0,0,False
2022-02-27,0.7528775023472721,0.7528775023472721,0.0,0,False
2022-02-28,0.7528775023472721,0.7576518429797247,0.6341457431743303,2,True
2022-03-01,0.7576518429797247,0.7654104399468283,1.024031953329696,0,True
2022-03-02,0.7654104399468283,0.7654104399468283,0.0,0,False
2022-03-03,0.7654104399468283,0.7654104399468283,0.0,0,False
2022-03-04,0.7654104399468283,0.7741506114612229,1.1418934284462834,3,True
2022-03-05,0.7741506114612229,0.7678366443133896,-0.8155993232267233,2,True
2022-03-06,0.7678366443133896,0.7632543181980671,-0.5967839838407429,4,True
2022-03-07,0.7632543181980671,0.7636918826173956,0.05732878398403418,0,True
2022-03-08,0.7636918826173956,0.7598873574560557,-0.4981754092109325,1,True
2022-03-09,0.7598873574560557,0.7739374249552475,1.848967134580115,2,True
2022-03-10,0.7739374249552475,0.7722079249324499,-0.22346768188624688,3,True
2022-03-11,0.7722079249324499,0.7661010546643178,-0.7908323744108658,1,True
2022-03-12,0.7661010546643178,0.7655510635636112,-0.07179093376232792,0,True
2022-03-13,0.7655510635636112,0.7655510635636112,0.0,0,False
2022-03-14,0.7655510635636112,0.761733394111821,-0.4986825351687485,1,True
2022-03-15,0.761733394111821,0.7628163402942968,0.1421686630580954,1,True
2022-03-16,0.7628163402942968,0.7697279638851767,0.9060665360437037,1,True
2022-03-17,0.7697279638851767,0.771209626214902,0.1924916852762637,1,True
2022-03-18,0.771209626214902,0.7702185482958293,-0.1285095368864786,0,True
2022-03-19,0.7702185482958293,0.7702185482958293,0.0,0,False
2022-03-20,0.7702185482958293,0.7663742484528482,-0.4991180557111896,1,True
2022-03-21,0.7663742484528482,0.7715651874945896,0.6773373521123505,4,True
2022-03-22,0.7715651874945896,0.767149079292106,-0.5723571091670876,0,True
2022-03-23,0.767149079292106,0.7666337793577079,-0.0671707687993961,2,True
2022-03-24,0.7666337793577079,0.7625233622358505,-0.5361643632897595,0,True
2022-03-25,0.7625233622358505,0.7625233622358505,0.0,0,False
2022-03-26,0.7625233622358505,0.7639599050199739,0.18839328147419732,1,True
2022-03-27,0.7639599050199739,0.7616803492724868,-0.2983868305794779,1,True
2022-03-28,0.7616803492724868,0.7614598723563594,-0.028946121077966236,1,True
2022-03-29,0.7614598723563594,0.7661834310957087,0.6203293056969983,1,True
2022-03-30,0.7661834310957087,0.7767492883210037,1.3790244994184686,6,True
2022-03-31,0.7767492883210037,0.7776489984132544,0.11583017915544058,6,True
2022-04-01,0.7776489984132544,0.7709772280850787,-0.8579410944769439,7,True
2022-04-02,0.7709772280850787,0.7752115351567512,0.5492129880657393,1,True
2022-04-03,0.7752115351567512,0.7699254915743345,-0.6818840203852039,2,True
2022-04-04,0.7699254915743345,0.7653052825181156,-0.6000852169177562,1,True
2022-04-05,0.7653052825181156,0.7570971611089529,-1.0725290412415767,6,True
2022-04-06,0.7570971611089529,0.7294857534630893,-3.647009797978895,13,True
2022-04-07,0.7294857534630893,0.731951994994675,0.3380794648665475,2,True
2022-04-08,0.731951994994675,0.731951994994675,0.0,0,False
2022-04-09,0.731951994994675,0.731951994994675,0.0,0,False
2022-04-10,0.731951994994675,0.731951994994675,0.0,0,False
2022-04-11,0.731951994994675,0.7250158181255102,-0.9476272920350803,6,True
2022-04-12,0.7250158181255102,0.7137611969588801,-1.5523276713780287,0,True
2022-04-13,0.7137611969588801,0.7147906735458305,0.14423263569618427,1,True
2022-04-14,0.7147906735458305,0.7148118527041881,0.002962987506904824,0,True
2022-04-15,0.7148118527041881,0.7160408627341733,0.17193475812351533,1,True
2022-04-16,0.7160408627341733,0.715749432878521,-0.04070017101251988,0,True
2022-04-17,0.715749432878521,0.7200404985026824,0.5995206460596147,1,True
2022-04-18,0.7200404985026824,0.7333700017024415,1.8512157618186365,6,True
2022-04-19,0.7333700017024415,0.7506932155835864,2.3621383259379014,1,True
2022-04-20,0.7506932155835864,0.7506932155835864,0.0,0,False
2022-04-21,0.7506932155835864,0.7496781510226159,-0.13521696212231982,3,True
2022-04-22,0.7496781510226159,0.7452836690363889,-0.5861824811397631,1,True
2022-04-23,0.7452836690363889,0.7455153403501296,0.03108498459925002,2,True
2022-04-24,0.7455153403501296,0.7459914280495149,0.0638602150241141,0,True
2022-04-25,0.7459914280495149,0.7414938726606197,-0.6028963899296524,3,True
2022-04-26,0.7414938726606197,0.7452711666525781,0.5094167505935943,2,True
2022-04-27,0.7452711666525781,0.7422406702496667,-0.40663003461183234,0,True
2022-04-28,0.7422406702496667,0.7440429742707813,0.24281935676042643,1,True
2022-04-29,0.7440429742707813,0.7330504671257507,-1.4774021830935236,2,True
2022-04-30,0.7330504671257507,0.7247700792266385,-1.1295795133422604,2,True
2022-05-01,0.7247700792266385,0.7315621377060277,0.9371328472384866,7,True
2022-05-02,0.7315621377060277,0.7350620733496807,0.4784194620333526,1,True
2022-05-03,0.7350620733496807,0.7424545413335919,1.0056930226618466,3,True
2022-05-04,0.7424545413335919,0.7370276122147074,-0.730944295813285,1,True
2022-05-05,0.7370276122147074,0.7370276122147074,0.0,0,False
2022-05-06,0.7370276122147074,0.7196522546328845,-2.357490722716793,8,True
2022-05-07,0.7196522546328845,0.7170130241829302,-0.3667369111906238,2,True
2022-05-08,0.7170130241829302,0.7088147654212947,-1.1433904943327633,3,True
2022-05-09,0.7088147654212947,0.6983243809209008,-1.4799895561090404,5,True
2022-05-10,0.6983243809209008,0.6937264599368084,-0.6584219468363628,14,True
2022-05-11,0.6937264599368084,0.6711596002803255,-3.252991050469445,22,True
2022-05-12,0.6711596002803255,0.6382770176674716,-4.899368585224694,1,True
2022-05-13,0.6382770176674716,0.6656712261468747,4.291899554759615,6,True
2022-05-14,0.6656712261468747,0.6428256633214687,-3.4319588902232745,8,True
2022-05-15,0.6428256633214687,0.6465216950381256,0.5749664220870754,2,True
2022-05-16,0.6465216950381256,0.6489627866759247,0.37757304302914463,9,True
2022-05-17,0.6489627866759247,0.660209251145851,1.7329906584524268,4,True
2022-05-18,0.660209251145851,0.6410625168064191,-2.900100885620893,2,True
2022-05-19,0.6410625168064191,0.6459170796705637,0.7572682440284417,6,True
2022-05-20,0.6459170796705637,0.6440421277639445,-0.2902774931381913,1,True
2022-05-21,0.6440421277639445,0.6440421277639445,0.0,0,False
2022-05-22,0.6440421277639445,0.6440421277639445,0.0,0,False
2022-05-23,0.6440421277639445,0.6467201214906726,0.4158103346477926,4,True
2022-05-24,0.6467201214906726,0.6205455888543988,-4.04727358350041,8,True
2022-05-25,0.6205455888543988,0.6192432330868874,-0.2098726976555665,1,True
2022-05-26,0.6192432330868874,0.6129745201470364,-1.0123183597181895,13,True
2022-05-27,0.6129745201470364,0.6006970901032351,-2.0029266535999235,4,True
2022-05-28,0.6006970901032351,0.6015919843449318,0.1489759575067806,0,True
2022-05-29,0.6015919843449318,0.6031196977144985,0.25394510055352093,3,True
2022-05-30,0.6031196977144985,0.6037707575815154,0.10794869898698156,0,True
2022-05-31,0.6037707575815154,0.596823372443472,-1.1506660517763723,5,True
2022-06-01,0.596823372443472,0.5918475510391351,-0.8337175844781664,2,True
2022-06-02,0.5918475510391351,0.5867445708805924,-0.8622119242671866,6,True
2022-06-03,0.5867445708805924,0.5881464343202042,0.23892226859600907,0,True
2022-06-04,0.5881464343202042,0.5881464343202042,0.0,0,False
2022-06-05,0.5881464343202042,0.5881464343202042,0.0,0,False
2022-06-06,0.5881464343202042,0.5898017684614109,0.281449320205418,1,True
2022-06-07,0.5898017684614109,0.5850225782431813,-0.8103044910660162,4,True
2022-06-08,0.5850225782431813,0.5991489308834048,2.414667940277604,4,True
2022-06-09,0.5991489308834048,0.599798749842609,0.10845700054007423,4,True
2022-06-10,0.599798749842609,0.6020485419529349,0.37509116364720096,5,True
2022-06-11,0.6020485419529349,0.5969476854220216,-0.8472500430558361,6,True
2022-06-12,0.5969476854220216,0.5917506203197074,-0.8706064583599238,13,True
2022-06-13,0.5917506203197074,0.5553836399799252,-6.145659859238339,7,True
2022-06-14,0.5553836399799252,0.5620304856199058,1.1968025633993795,6,True
2022-06-15,0.5620304856199058,0.5556913537163073,-1.127898230752833,7,True
2022-06-16,0.5556913537163073,0.5697376360291719,2.527712950530381,7,True
2022-06-17,0.5697376360291719,0.5743245228592706,0.805087559612061,1,True
2022-06-18,0.5743245228592706,0.5692783144584563,-0.8786336295883324,6,True
2022-06-19,0.5692783144584563,0.5779964417596213,1.5314349905385605,3,True
2022-06-20,0.5779964417596213,0.58133742152532,0.5780277393278688,1,True
2022-06-21,0.58133742152532,0.5800423531129506,-0.22277396300608432,0,True
2022-06-22,0.5800423531129506,0.5787651443965669,-0.2201923203588918,5,True
2022-06-23,0.5787651443965669,0.5877926813684798,1.5597927862994077,1,True
2022-06-24,0.5877926813684798,0.5835832794483139,-0.7161371778848569,2,True
2022-06-25,0.5835832794483139,0.5836439688932135,0.010399448893894103,4,True
2022-06-26,0.5836439688932135,0.5879212396352697,0.7328561537554013,0,True
2022-06-27,0.5879212396352697,0.5853014714514378,-0.44559849299832255,5,True
2022-06-28,0.5853014714514378,0.5813745055785087,-0.6709304630981072,4,True
2022-06-29,0.5813745055785087,0.5815479094378455,0.029826533099219787,4,True
2022-06-30,0.5815479094378455,0.5754674108066589,-1.0455714022021612,2,True
2022-07-01,0.5754674108066589,0.5756884907404275,0.0384174550316807,1,True
2022-07-02,0.5756884907404275,0.5752911429162466,-0.069021324999885,1,True
2022-07-03,0.5752911429162466,0.5763403859991333,0.18238471003879653,1,True
2022-07-04,0.5763403859991333,0.5791925391348722,0.494873030768872,0,True
2022-07-05,0.5791925391348722,0.5795110754818497,0.05499662468946287,1,True
2022-07-06,0.5795110754818497,0.5804436647978404,0.16092691847438,0,True
2022-07-07,0.5804436647978404,0.5804436647978404,0.0,0,False
2022-07-08,0.5804436647978404,0.5804436647978404,0.0,0,False
2022-07-09,0.5804436647978404,0.5804436647978404,0.0,0,False
2022-07-10,0.5804436647978404,0.5804436647978404,0.0,0,False
2022-07-11,0.5804436647978404,0.5775490144290182,-0.4986961774887111,1,True
2022-07-12,0.5775490144290182,0.5799797593052906,0.4208724827754251,2,True
2022-07-13,0.5799797593052906,0.5871104190169714,1.229466993852002,5,True
2022-07-14,0.5871104190169714,0.5972686662602485,1.7302106919317994,0,True
2022-07-15,0.5972686662602485,0.5972686662602485,0.0,0,False
2022-07-16,0.5972686662602485,0.5972686662602485,0.0,0,False
2022-07-17,0.5972686662602485,0.5972686662602485,0.0,0,False
2022-07-18,0.5972686662602485,0.5982632003834264,0.1665136946501944,1,True
2022-07-19,0.5982632003834264,0.6005602409622037,0.38395150784891197,0,True
2022-07-20,0.6005602409622037,0.601544121926029,0.16382718946710284,2,True
2022-07-21,0.601544121926029,0.5918660652261948,-1.6088689668925626,6,True
2022-07-22,0.5918660652261948,0.5931360089108337,0.214566057973542,0,True
2022-07-23,0.5931360089108337,0.5974445168363436,0.7263945976609065,2,True
2022-07-24,0.5974445168363436,0.6020377665016003,0.7688161052308962,3,True
2022-07-25,0.6020377665016003,0.6025201958217007,0.08013273368274731,1,True
2022-07-26,0.6025201958217007,0.6021056391882684,-0.06880377393273518,1,True
2022-07-27,0.6021056391882684,0.6028795806710618,0.12853915200607968,1,True
2022-07-28,0.6028795806710618,0.6031132373307365,0.03875677119709042,0,True
2022-07-29,0.6031132373307365,0.6055808061211299,0.4091385560221372,2,True
2022-07-30,0.6055808061211299,0.6092548138802125,0.6066915797109607,1,True
2022-07-31,0.6092548138802125,0.6088683306272906,-0.06343540405704395,1,True
2022-08-01,0.6088683306272906,0.607541238741324,-0.21796040608637046,1,True
2022-08-02,0.607541238741324,0.6014147926957379,-1.0084000319515063,5,True
2022-08-03,0.6014147926957379,0.6026799584658658,0.21036492375867688,1,True
2022-08-04,0.6026799584658658,0.6006124787623445,-0.34304769463117113,0,True
2022-08-05,0.6006124787623445,0.6079778049077198,1.2263025504486214,2,True
2022-08-06,0.6079778049077198,0.6078574030606775,-0.01980365830305253,0,True
2022-08-07,0.6078574030606775,0.6087559900744548,0.14782858763466855,2,True
2022-08-08,0.6087559900744548,0.6093050025681116,0.0901859698480667,0,True
2022-08-09,0.6093050025681116,0.6071552372740421,-0.35282252484529764,6,True
2022-08-10,0.6071552372740421,0.6210864658490381,2.2945085078312832,0,True
2022-08-11,0.6210864658490381,0.6227546619523704,0.26859321448129414,1,True
2022-08-12,0.6227546619523704,0.6197241343455211,-0.4866326648360064,3,True
2022-08-13,0.6197241343455211,0.6186645150945943,-0.17098240849467983,0,True
2022-08-14,0.6186645150945943,0.6186645150945943,0.0,0,False
2022-08-15,0.6186645150945943,0.6186645150945943,0.0,0,False
2022-08-16,0.6186645150945943,0.6150615387316511,-0.582379670247013,2,True
2022-08-17,0.6150615387316511,0.612458197565264,-0.4232651535577503,1,True
2022-08-18,0.612458197565264,0.6095529721570644,-0.4743548898110683,1,True
2022-08-19,0.6095529721570644,0.5940393583393674,-2.545080497729013,11,True
2022-08-20,0.5940393583393674,0.5941194869880162,0.013488777725578771,1,True
2022-08-21,0.5941194869880162,0.5981880104472577,0.6847988575273911,0,True
2022-08-22,0.5981880104472577,0.5981880104472577,0.0,0,False
2022-08-23,0.5981880104472577,0.5981880104472577,0.0,0,False
2022-08-24,0.5981880104472577,0.5981880104472577,0.0,0,False
2022-08-25,0.5981880104472577,0.5967795594066563,-0.23545290376988381,1,True
2022-08-26,0.5967795594066563,0.5958104186357964,-0.1623951014380287,1,True
2022-08-27,0.5958104186357964,0.5950317389017068,-0.13069253402324676,6,True
2022-08-28,0.5950317389017068,0.5944422457052961,-0.0990692021737738,0,True
2022-08-29,0.5944422457052961,0.5981503502390217,0.6237955933508843,2,True
2022-08-30,0.5981503502390217,0.5986068392168805,0.07631676177675129,1,True
2022-08-31,0.5986068392168805,0.5968976496506201,-0.2855279048425974,2,True
2022-09-01,0.5968976496506201,0.5915006000215464,-0.9041834278008531,1,True
2022-09-02,0.5915006000215464,0.5915791242755996,0.013275431005532745,0,True
2022-09-03,0.5915791242755996,0.5915791242755996,0.0,0,False
2022-09-04,0.5915791242755996,0.5915791242755996,0.0,0,False
2022-09-05,0.5915791242755996,0.5915791242755996,0.0,0,False
2022-09-06,0.5915791242755996,0.5899666389609974,-0.2725730588577835,1,True
2022-09-07,0.5899666389609974,0.5815269058451062,-1.4305441288603338,5,True
2022-09-08,0.5815269058451062,0.5815269058451062,0.0,0,False
2022-09-09,0.5815269058451062,0.5815269058451062,0.0,0,False
2022-09-10,0.5815269058451062,0.5826791142127064,0.1981350056238007,1,True
2022-09-11,0.5826791142127064,0.5869984152134294,0.7412829626747719,0,True
2022-09-12,0.5869984152134294,0.5869984152134294,0.0,0,False
2022-09-13,0.5869984152134294,0.5802803446150718,-1.1444784899316884,4,True
2022-09-14,0.5802803446150718,0.5859964239566195,0.9850547919798114,3,True
2022-09-15,0.5859964239566195,0.5859153867286431,-0.013828962885009677,3,True
2022-09-16,0.5859153867286431,0.5783333551375739,-1.2940488955926144,2,True
2022-09-17,0.5783333551375739,0.5777521608460925,-0.10049468638085868,1,True
2022-09-18,0.5777521608460925,0.5788219981567724,0.18517235991175607,0,True
2022-09-19,0.5788219981567724,0.5762795221294187,-0.43925006918362763,8,True
2022-09-20,0.5762795221294187,0.5762892919707381,0.0016953302944600068,0,True
2022-09-21,0.5762892919707381,0.5762892919707381,0.0,0,False
2022-09-22,0.5762892919707381,0.5759691081492647,-0.055559564603124834,2,True
2022-09-23,0.5759691081492647,0.5754798617011797,-0.08494317510483462,2,True
2022-09-24,0.5754798617011797,0.5772341667700197,0.30484213012320627,0,True
2022-09-25,0.5772341667700197,0.5772341667700197,0.0,0,False
2022-09-26,0.5772341667700197,0.5772341667700197,0.0,0,False
2022-09-27,0.5772341667700197,0.5772341667700197,0.0,0,False
2022-09-28,0.5772341667700197,0.5772341667700197,0.0,0,False
2022-09-29,0.5772341667700197,0.5772341667700197,0.0,0,False
2022-09-30,0.5772341667700197,0.5758652023723512,-0.2371592806657219,1,True
2022-10-01,0.5758652023723512,0.5756436107216337,-0.0384797778724244,0,True
2022-10-02,0.5756436107216337,0.5756436107216337,0.0,0,False
2022-10-03,0.5756436107216337,0.5756436107216337,0.0,0,False
2022-10-04,0.5756436107216337,0.5756436107216337,0.0,0,False
2022-10-05,0.5756436107216337,0.5756436107216337,0.0,0,False
2022-10-06,0.5756436107216337,0.5756436107216337,0.0,0,False
2022-10-07,0.5756436107216337,0.5756436107216337,0.0,0,False
2022-10-08,0.5756436107216337,0.5740928103496367,-0.2694028637011958,1,True
2022-10-09,0.5740928103496367,0.57315014845392,-0.1642002614773319,0,True
2022-10-10,0.57315014845392,0.57315014845392,0.0,0,False
2022-10-11,0.57315014845392,0.5845122734726677,1.9823993851169952,6,True
2022-10-12,0.5845122734726677,0.5853841765175022,0.1491676196385905,2,True
2022-10-13,0.5853841765175022,0.585210253153413,-0.029710978032215785,1,True
2022-10-14,0.585210253153413,0.5876112776828945,0.4102840844881772,0,True
2022-10-15,0.5876112776828945,0.5876112776828945,0.0,0,False
2022-10-16,0.5876112776828945,0.5876112776828945,0.0,0,False
2022-10-17,0.5876112776828945,0.5876112776828945,0.0,0,False
2022-10-18,0.5876112776828945,0.5876112776828945,0.0,0,False
2022-10-19,0.5876112776828945,0.5876112776828945,0.0,0,False
2022-10-20,0.5876112776828945,0.5914394851852361,0.6514863903629209,2,True
2022-10-21,0.5914394851852361,0.5871396300666208,-0.7270152274781894,0,True
2022-10-22,0.5871396300666208,0.5871396300666208,0.0,0,False
2022-10-23,0.5871396300666208,0.5871396300666208,0.0,0,False
2022-10-24,0.5871396300666208,0.5871396300666208,0.0,0,False
2022-10-25,0.5871396300666208,0.5852709322090637,-0.3182714573950918,1,True
2022-10-26,0.5852709322090637,0.5842048925776551,-0.1821446398140636,0,True
2022-10-27,0.5842048925776551,0.5842048925776551,0.0,0,False
2022-10-28,0.5842048925776551,0.5812913469927716,-0.4987198193476594,1,True
2022-10-29,0.5812913469927716,0.5812913469927716,0.0,0,False
2022-10-30,0.5812913469927716,0.5784576136513283,-0.4874893383676304,2,True
2022-10-31,0.5784576136513283,0.5794794940821786,0.17665606031183057,1,True
2022-11-01,0.5794794940821786,0.5826203521590941,0.5420136707150025,0,True
2022-11-02,0.5826203521590941,0.5895573068117346,1.1906474991704608,3,True
2022-11-03,0.5895573068117346,0.5986278203052976,1.5385295693501666,3,True
2022-11-04,0.5986278203052976,0.6071034597890642,1.415844569242375,5,True
2022-11-05,0.6071034597890642,0.6071028588303871,-9.898785248152464e-05,2,True
2022-11-06,0.6071028588303871,0.6055155118019911,-0.2614626179580193,2,True
2022-11-07,0.6055155118019911,0.5998069521894431,-0.9427602598585105,7,True
2022-11-08,0.5998069521894431,0.5837449593987437,-2.6778603902587683,12,True
2022-11-09,0.5837449593987437,0.5487984649863438,-5.986603198834429,14,True
2022-11-10,0.5487984649863438,0.5624589841856624,2.4891686239790323,9,True
2022-11-11,0.5624589841856624,0.560997851479359,-0.2597758676428419,10,True
2022-11-12,0.560997851479359,0.5546623503607037,-1.12932716265286,4,True
2022-11-13,0.5546623503607037,0.5513042618473929,-0.6054293231056662,1,True
2022-11-14,0.5513042618473929,0.5568913539088906,1.013431683400312,7,True
2022-11-15,0.5568913539088906,0.5587691498964555,0.3371925195793546,1,True
2022-11-16,0.5587691498964555,0.5556293799522928,-0.5619082486469695,2,True
2022-11-17,0.5556293799522928,0.5567855713090786,0.20808679283392806,1,True
2022-11-18,0.5567855713090786,0.5584502979743566,0.29898883000218923,0,True
2022-11-19,0.5584502979743566,0.5583921015562328,-0.010421055971310267,3,True
2022-11-20,0.5583921015562328,0.5508742925858352,-1.3463315382587826,3,True
2022-11-21,0.5508742925858352,0.5423459667120932,-1.5481437396015596,8,True
2022-11-22,0.5423459667120932,0.5305048263964353,-2.18331859042733,2,True
2022-11-23,0.5305048263964353,0.5354542467904593,0.9329642536231031,1,True
2022-11-24,0.5354542467904593,0.5321849205071795,-0.6105706141797063,2,True
2022-11-25,0.5321849205071795,0.5297292249265037,-0.46143652066193974,2,True
2022-11-26,0.5297292249265037,0.5307583503576621,0.1942738634632013,0,True
2022-11-27,0.5307583503576621,0.5307583503576621,0.0,0,False
2022-11-28,0.5307583503576621,0.523673824926508,-1.3347930232995742,4,True
2022-11-29,0.523673824926508,0.523673824926508,0.0,0,False
2022-11-30,0.523673824926508,0.523673824926508,0.0,0,False
2022-12-01,0.523673824926508,0.523934620947771,0.04980123291431493,2,True
2022-12-02,0.523934620947771,0.5242505041929889,0.06029058447150071,1,True
2022-12-03,0.5242505041929889,0.5241211423765622,-0.024675573107146853,0,True
2022-12-04,0.5241211423765622,0.5241211423765622,0.0,0,False
2022-12-05,0.5241211423765622,0.5241211423765622,0.0,0,False
2022-12-06,0.5241211423765622,0.525023168050272,0.17210251615109584,2,True
2022-12-07,0.525023168050272,0.5224228085936831,-0.49528470643414035,1,True
2022-12-08,0.5224228085936831,0.520979698466733,-0.27623413511267403,2,True
2022-12-09,0.520979698466733,0.5227918385675241,0.3478331509124688,0,True
2022-12-10,0.5227918385675241,0.5227918385675241,0.0,0,False
2022-12-11,0.5227918385675241,0.5227918385675241,0.0,0,False
2022-12-12,0.5227918385675241,0.5224326102435584,-0.06871345293951725,1,True
2022-12-13,0.5224326102435584,0.5230938849184078,0.12657607160877493,1,True
2022-12-14,0.5230938849184078,0.5229536004078081,-0.02681822797861999,0,True
2022-12-15,0.5229536004078081,0.5229536004078081,0.0,0,False
2022-12-16,0.5229536004078081,0.5241139785630445,0.22188931376159182,5,True
2022-12-17,0.5241139785630445,0.5205790290753857,-0.6744619743496605,5,True
2022-12-18,0.5205790290753857,0.5206263694196176,0.009093786262570625,0,True
2022-12-19,0.5206263694196176,0.5180305169629638,-0.49860180143154187,1,True
2022-12-20,0.5180305169629638,0.5180305169629638,0.0,0,False
2022-12-21,0.5180305169629638,0.5180305169629638,0.0,0,False
2022-12-22,0.5180305169629638,0.5180305169629638,0.0,0,False
2022-12-23,0.5180305169629638,0.5180305169629638,0.0,0,False
2022-12-24,0.5180305169629638,0.5180305169629638,0.0,0,False
2022-12-25,0.5180305169629638,0.5180305169629638,0.0,0,False
2022-12-26,0.5180305169629638,0.5180305169629638,0.0,0,False
2022-12-27,0.5180305169629638,0.5180305169629638,0.0,0,False
2022-12-28,0.5180305169629638,0.5202000860864254,0.4188110646803356,4,True
2022-12-29,0.5202000860864254,0.5150417605098139,-0.9916041374423257,0,True
2022-12-30,0.5150417605098139,0.519874714321885,0.9383615432052128,1,True
2022-12-31,0.519874714321885,0.519874714321885,0.0,0,False
2023-01-01,0.519874714321885,0.519874714321885,0.0,0,False
2023-01-02,0.519874714321885,0.5200648466226673,0.036572715607108286,1,True
2023-01-03,0.5200648466226673,0.5201113042695923,0.00893304887394919,0,True
2023-01-04,0.5201113042695923,0.5201113042695923,0.0,0,False
2023-01-05,0.5201113042695923,0.5201113042695923,0.0,0,False
2023-01-06,0.5201113042695923,0.5195432598872398,-0.10921592699282279,1,True
2023-01-07,0.5195432598872398,0.520731516535795,0.2287117821166751,0,True
2023-01-08,0.520731516535795,0.520731516535795,0.0,0,False
2023-01-09,0.520731516535795,0.5208341582122683,0.019711055162585644,1,True
2023-01-10,0.5208341582122683,0.5205025754396272,-0.06366379151844237,2,True
2023-01-11,0.5205025754396272,0.5155600231566807,-0.9495730695994964,3,True
2023-01-12,0.5155600231566807,0.5130766265624804,-0.481689130781493,0,True
2023-01-13,0.5130766265624804,0.5130655657652116,-0.0021557788244974674,1,True
2023-01-14,0.5130655657652116,0.5160528039437863,0.5822332227888749,4,True
2023-01-15,0.5160528039437863,0.5149079665873477,-0.22184500262172335,2,True
2023-01-16,0.5149079665873477,0.5145492822373622,-0.0696598952163785,1,True
2023-01-17,0.5145492822373622,0.5142199692501945,-0.0640002811267637,0,True
2023-01-18,0.5142199692501945,0.5142199692501945,0.0,0,False
2023-01-19,0.5142199692501945,0.5067443716799866,-1.4537742633971118,7,True
2023-01-20,0.5067443716799866,0.5076376684333269,0.17628153429287696,0,True
2023-01-21,0.5076376684333269,0.5064246688061184,-0.23894988544725937,3,True
2023-01-22,0.5064246688061184,0.510759379270819,0.8559437823042249,1,True
2023-01-23,0.510759379270819,0.509532483833226,-0.24021006512784382,1,True
2023-01-24,0.509532483833226,0.5150496535180954,1.08279056977163,4,True
2023-01-25,0.5150496535180954,0.5105893301522353,-0.8659987120452239,8,True
2023-01-26,0.5105893301522353,0.5195379434895383,1.7526048448045284,0,True
2023-01-27,0.5195379434895383,0.5183667353446345,-0.22543264829459897,2,True
2023-01-28,0.5183667353446345,0.523527320517247,0.9955471330893806,0,True
2023-01-29,0.523527320517247,0.5226148587224069,-0.1742911514032608,1,True
2023-01-30,0.5226148587224069,0.5222617167587219,-0.06757212463270879,5,True
2023-01-31,0.5222617167587219,0.5284819994637526,1.191027889931373,5,True
2023-02-01,0.5284819994637526,0.5290925801881914,0.11553481955077771,2,True
2023-02-02,0.5290925801881914,0.5344829245797885,1.0187903957526334,0,True
2023-02-03,0.5344829245797885,0.5395968410238922,0.9567969730977399,2,True
2023-02-04,0.5395968410238922,0.5413081265318828,0.31714149859427554,0,True
2023-02-05,0.5413081265318828,0.5434460711508815,0.3949588994158315,5,True
2023-02-06,0.5434460711508815,0.5340101608412005,-1.736310337049296,2,True
2023-02-07,0.5340101608412005,0.5323110515577848,-0.31817920481871376,0,True
2023-02-08,0.5323110515577848,0.5278245234987032,-0.8428395476576922,3,True
2023-02-09,0.5278245234987032,0.5244367189498196,-0.6418429606922182,9,True
2023-02-10,0.5244367189498196,0.5066727736640443,-3.387242853884731,8,True
2023-02-11,0.5066727736640443,0.5103703261143839,0.7297712927419653,2,True
2023-02-12,0.5103703261143839,0.5135942104499347,0.6316755051366751,1,True
2023-02-13,0.5135942104499347,0.5167960832309378,0.6234246250942155,2,True
2023-02-14,0.5167960832309378,0.5162710032295578,-0.10160293748693316,1,True
2023-02-15,0.5162710032295578,0.517031631614262,0.1473312233199353,0,True
2023-02-16,0.517031631614262,0.517031631614262,0.0,0,False
2023-02-17,0.517031631614262,0.52181358000212,0.924885073845072,1,True
2023-02-18,0.52181358000212,0.5223451878724295,0.10187697114116823,1,True
2023-02-19,0.5223451878724295,0.5233162582915896,0.1859058801930269,1,True
2023-02-20,0.5233162582915896,0.5271655756306063,0.7355623445721271,3,True
2023-02-21,0.5271655756306063,0.5284889990460877,0.2510451130839364,5,True
2023-02-22,0.5284889990460877,0.5268250068290714,-0.31485843981989836,1,True
2023-02-23,0.5268250068290714,0.5311173715080758,0.8147609971743464,1,True
2023-02-24,0.5311173715080758,0.5311173715080758,0.0,0,False
2023-02-25,0.5311173715080758,0.5290695372529819,-0.3855709424979259,2,True
2023-02-26,0.5290695372529819,0.5287634793899744,-0.05784832455042466,0,True
2023-02-27,0.5287634793899744,0.526122492400543,-0.49946471198771825,1,True
2023-02-28,0.526122492400543,0.5250584461315635,-0.20224306779292878,1,True
2023-03-01,0.5250584461315635,0.524531425911867,-0.10037362956055729,1,True
2023-03-02,0.524531425911867,0.5216318208985883,-0.552799102215451,1,True
2023-03-03,0.5216318208985883,0.5187373650086304,-0.5548848390751426,9,True
2023-03-04,0.5187373650086304,0.5204988220380846,0.3395662522642562,0,True
2023-03-05,0.5204988220380846,0.5301538598051152,1.8549586201223267,4,True
2023-03-06,0.5301538598051152,0.5319675624799294,0.34210873716564727,0,True
2023-03-07,0.5319675624799294,0.5319675624799294,0.0,0,False
2023-03-08,0.5319675624799294,0.5319675624799294,0.0,0,False
2023-03-09,0.5319675624799294,0.5319675624799294,0.0,0,False
2023-03-10,0.5319675624799294,0.5193022318603989,-2.3808464111020555,10,True
2023-03-11,0.5193022318603989,0.5134376349521336,-1.1293224924636802,4,True
2023-03-12,0.5134376349521336,0.5150457768374567,0.3132107535266826,0,True
2023-03-13,0.5150457768374567,0.5150457768374567,0.0,0,False
2023-03-14,0.5150457768374567,0.5198746593312292,0.937563748881387,1,True
2023-03-15,0.5198746593312292,0.5132520041302753,-1.2738945978773786,4,True
2023-03-16,0.5132520041302753,0.5123333933781694,-0.17897850270696125,5,True
2023-03-17,0.5123333933781694,0.5104703857235301,-0.36363190038330995,2,True
2023-03-18,0.5104703857235301,0.5160755896764144,1.0980468426076584,2,True
2023-03-19,0.5160755896764144,0.5136608349058146,-0.4679071862542239,2,True
2023-03-20,0.5136608349058146,0.5164979013041349,0.5523228958735915,4,True
2023-03-21,0.5164979013041349,0.5039179376713561,-2.4356272505686727,1,True
2023-03-22,0.5039179376713561,0.5039179376713561,0.0,0,False
2023-03-23,0.5039179376713561,0.509563068410408,1.120248023941861,6,True
2023-03-24,0.509563068410408,0.5025969792354609,-1.3670710470988334,1,True
2023-03-25,0.5025969792354609,0.5000863370098023,-0.4995338868684973,1,True
2023-03-26,0.5000863370098023,0.5000863370098023,0.0,0,False
2023-03-27,0.5000863370098023,0.49759324414876005,-0.4985324885997455,1,True
2023-03-28,0.49759324414876005,0.506548484753143,1.7997110510820535,4,True
2023-03-29,0.506548484753143,0.5066394399632759,0.017955874485986456,0,True
2023-03-30,0.5066394399632759,0.5054007326474469,-0.24449484547013345,1,True
2023-03-31,0.5054007326474469,0.504106525031305,-0.25607553225386326,0,True
2023-04-01,0.504106525031305,0.5037379465808707,-0.07311519135989597,1,True
2023-04-02,0.5037379465808707,0.5026385021615298,-0.21825721623779382,0,True
2023-04-03,0.5026385021615298,0.5026385021615298,0.0,0,False
2023-04-04,0.5026385021615298,0.5028993642218905,0.051898543235129324,1,True
2023-04-05,0.5028993642218905,0.5021654890929689,-0.14592882416090136,1,True
2023-04-06,0.5021654890929689,0.4958320050658191,-1.2612344266408226,2,True
2023-04-07,0.4958320050658191,0.49396073441967714,-0.37740013291266417,1,True
2023-04-08,0.49396073441967714,0.4950202913743619,0.21450226320711696,1,True
2023-04-09,0.4950202913743619,0.4951343926670951,0.023049821334875098,0,True
2023-04-10,0.4951343926670951,0.4951343926670951,0.0,0,False
2023-04-11,0.4951343926670951,0.4951343926670951,0.0,0,False
2023-04-12,0.4951343926670951,0.4996579224566747,0.9135963602150854,1,True
2023-04-13,0.4996579224566747,0.4996579224566747,0.0,0,False
2023-04-14,0.4996579224566747,0.5041849955543366,0.9060344876357762,1,True
2023-04-15,0.5041849955543366,0.5032025505992012,-0.19485803103983512,1,True
2023-04-16,0.5032025505992012,0.5049516118134866,0.34758591986521203,0,True
2023-04-17,0.5049516118134866,0.5024296497710811,-0.49944628027784876,1,True
2023-04-18,0.5024296497710811,0.5024296497710811,0.0,0,False
2023-04-19,0.5024296497710811,0.49448534389400794,-1.5811777590539755,9,True
2023-04-20,0.49448534389400794,0.48745854925327653,-1.4210319329985177,0,True
2023-04-21,0.48745854925327653,0.48745854925327653,0.0,0,False
2023-04-22,0.48745854925327653,0.4869889565912987,-0.09633489097630177,1,True
2023-04-23,0.4869889565912987,0.487035536657051,0.00956491212416033,0,True
2023-04-24,0.487035536657051,0.487035536657051,0.0,0,False
2023-04-25,0.487035536657051,0.487035536657051,0.0,0,False
2023-04-26,0.487035536657051,0.487035536657051,0.0,0,False
2023-04-27,0.487035536657051,0.4915403894801149,0.9249536191926921,9,True
2023-04-28,0.4915403894801149,0.49237976833272873,0.17076498098185233,0,True
2023-04-29,0.49237976833272873,0.4899237700594517,-0.4988016224942382,1,True
2023-04-30,0.4899237700594517,0.4899237700594517,0.0,0,False
2023-05-01,0.4899237700594517,0.4899237700594517,0.0,0,False
2023-05-02,0.4899237700594517,0.4899237700594517,0.0,0,False
2023-05-03,0.4899237700594517,0.4899237700594517,0.0,0,False
2023-05-04,0.4899237700594517,0.4899237700594517,0.0,0,False
2023-05-05,0.4899237700594517,0.4899237700594517,0.0,0,False
2023-05-06,0.4899237700594517,0.4874827962334444,-0.4982354348128659,1,True
2023-05-07,0.4874827962334444,0.4874827962334444,0.0,0,False
2023-05-08,0.4874827962334444,0.48243543041348547,-1.0353936300845135,7,True
2023-05-09,0.48243543041348547,0.4758753039088127,-1.3597936824520152,6,True
2023-05-10,0.4758753039088127,0.4729469789841225,-0.6153555144881695,2,True
2023-05-11,0.4729469789841225,0.47051286461661274,-0.5146696089989189,4,True
2023-05-12,0.47051286461661274,0.46734482232481644,-0.6733168272407775,0,True
2023-05-13,0.46734482232481644,0.46734482232481644,0.0,0,False
2023-05-14,0.46734482232481644,0.46734482232481644,0.0,0,False
2023-05-15,0.46734482232481644,0.46734482232481644,0.0,0,False
2023-05-16,0.46734482232481644,0.46734482232481644,0.0,0,False
2023-05-17,0.46734482232481644,0.46734482232481644,0.0,0,False
2023-05-18,0.46734482232481644,0.46589154753219403,-0.31096413680011814,1,True
2023-05-19,0.46589154753219403,0.465009951657613,-0.1892277031534051,0,True
2023-05-20,0.465009951657613,0.465009951657613,0.0,0,False
2023-05-21,0.465009951657613,0.465009951657613,0.0,0,False
2023-05-22,0.465009951657613,0.46268715557425527,-0.49951534909686846,1,True
2023-05-23,0.46268715557425527,0.46268715557425527,0.0,0,False
2023-05-24,0.46268715557425527,0.4613417908372686,-0.2907720088570209,1,True
2023-05-25,0.4613417908372686,0.4636093461262794,0.49151308943755634,0,True
2023-05-26,0.4636093461262794,0.46452722082752546,0.19798451194208422,1,True
2023-05-27,0.46452722082752546,0.4661211115631424,0.34312106248102214,0,True
2023-05-28,0.4661211115631424,0.4661211115631424,0.0,0,False
2023-05-29,0.4661211115631424,0.4661211115631424,0.0,0,False
2023-05-30,0.4661211115631424,0.4685211504363717,0.5148959816861254,2,True
2023-05-31,0.4685211504363717,0.46367716514270263,-1.0338882864001975,1,True
2023-06-01,0.46367716514270263,0.46367716514270263,0.0,0,False
2023-06-02,0.46367716514270263,0.4680631235146516,0.9459077784430336,1,True
2023-06-03,0.4680631235146516,0.4680631235146516,0.0,0,False
2023-06-04,0.4680631235146516,0.464794229113495,-0.6983875116267968,3,True
2023-06-05,0.464794229113495,0.4671006492113646,0.49622391015238243,1,True
2023-06-06,0.4671006492113646,0.4495838093911365,-3.750121060590028,11,True
2023-06-07,0.4495838093911365,0.44791026785497007,-0.3722423942341013,1,True
2023-06-08,0.44791026785497007,0.4472788110720924,-0.14097841201580197,1,True
2023-06-09,0.4472788110720924,0.4459786945278359,-0.2906725094220741,1,True
2023-06-10,0.4459786945278359,0.45250389581087985,1.463119508422328,7,True
2023-06-11,0.45250389581087985,0.45224807756576796,-0.05653393207885049,0,True
2023-06-12,0.45224807756576796,0.45224807756576796,0.0,0,False
2023-06-13,0.45224807756576796,0.45270802846471375,0.10170322921470021,1,True
2023-06-14,0.45270802846471375,0.4526829736991687,-0.005534420414410324,0,True
2023-06-15,0.4526829736991687,0.4553733354569534,0.5943147664247306,5,True
2023-06-16,0.4553733354569534,0.4599270844301707,1.0000034298555782,0,True
2023-06-17,0.4599270844301707,0.46069090847408833,0.16607503010264146,1,True
2023-06-18,0.46069090847408833,0.46128187952768407,0.12827929588477005,0,True
2023-06-19,0.46128187952768407,0.46372354383605047,0.5293215313088906,1,True
2023-06-20,0.46372354383605047,0.4617914317177254,-0.41665171932874223,1,True
2023-06-21,0.4617914317177254,0.4617914317177254,0.0,0,False
2023-06-22,0.4617914317177254,0.4594826230748307,-0.4999678392270446,1,True
2023-06-23,0.4594826230748307,0.4594826230748307,0.0,0,False
2023-06-24,0.4594826230748307,0.4595474482872601,0.014108305553661715,1,True
2023-06-25,0.4595474482872601,0.4588977787630573,-0.1413715877705557,4,True
2023-06-26,0.4588977787630573,0.4571868746511892,-0.37282902446811317,0,True
2023-06-27,0.4571868746511892,0.4571868746511892,0.0,0,False
2023-06-28,0.4571868746511892,0.4571868746511892,0.0,0,False
2023-06-29,0.4571868746511892,0.4559692209180809,-0.2663361090664007,2,True
2023-06-30,0.4559692209180809,0.45029569059735713,-1.2442792321157747,10,True
2023-07-01,0.45029569059735713,0.4588225888100616,1.8936219890074435,1,True
2023-07-02,0.4588225888100616,0.4588153460441772,-0.0015785547749946893,0,True
2023-07-03,0.4588153460441772,0.4588153460441772,0.0,0,False
2023-07-04,0.4588153460441772,0.45826950952305345,-0.11896649182069341,1,True
2023-07-05,0.45826950952305345,0.45858499292651067,0.06884232900101761,1,True
2023-07-06,0.45858499292651067,0.4565148684794127,-0.4514156544651038,2,True
2023-07-07,0.4565148684794127,0.45604276661346316,-0.10341434606983002,0,True
2023-07-08,0.45604276661346316,0.45604276661346316,0.0,0,False
2023-07-09,0.45604276661346316,0.45604276661346316,0.0,0,False
2023-07-10,0.45604276661346316,0.45604276661346316,0.0,0,False
2023-07-11,0.45604276661346316,0.45604276661346316,0.0,0,False
2023-07-12,0.45604276661346316,0.4551554458893166,-0.19456963011073025,1,True
2023-07-13,0.4551554458893166,0.4547791304505487,-0.08267844363207821,0,True
2023-07-14,0.4547791304505487,0.4547791304505487,0.0,0,False
2023-07-15,0.4547791304505487,0.45687923325995716,0.4617852202953854,6,True
2023-07-16,0.45687923325995716,0.45656866940740704,-0.06797504240544372,2,True
2023-07-17,0.45656866940740704,0.45731405888124704,0.16325900653837433,0,True
2023-07-18,0.45731405888124704,0.4573682745387651,0.011855235251401197,2,True
2023-07-19,0.4573682745387651,0.45730854292422984,-0.013059850859897804,1,True
2023-07-20,0.45730854292422984,0.4561898310148813,-0.24462956720532336,2,True
2023-07-21,0.4561898310148813,0.45524406800048567,-0.20731786420833398,0,True
2023-07-22,0.45524406800048567,0.45524406800048567,0.0,0,False
2023-07-23,0.45524406800048567,0.45524406800048567,0.0,0,False
2023-07-24,0.45524406800048567,0.45158162630722676,-0.8045006954939593,4,True
2023-07-25,0.45158162630722676,0.4510923333062593,-0.10835095417158769,0,True
2023-07-26,0.4510923333062593,0.4510923333062593,0.0,0,False
2023-07-27,0.4510923333062593,0.4510923333062593,0.0,0,False
2023-07-28,0.4510923333062593,0.4510923333062593,0.0,0,False
2023-07-29,0.4510923333062593,0.4510923333062593,0.0,0,False
2023-07-30,0.4510923333062593,0.4510923333062593,0.0,0,False
2023-07-31,0.4510923333062593,0.44884410004634356,-0.4983975771517657,1,True
2023-08-01,0.44884410004634356,0.4467914036830942,-0.4573294743180134,2,True
2023-08-02,0.4467914036830942,0.4506076838652175,0.8541525532192562,0,True
2023-08-03,0.4506076838652175,0.4506076838652175,0.0,0,False
2023-08-04,0.4506076838652175,0.4506076838652175,0.0,0,False
2023-08-05,0.4506076838652175,0.4506076838652175,0.0,0,False
2023-08-06,0.4506076838652175,0.4506076838652175,0.0,0,False
2023-08-07,0.4506076838652175,0.44936250696392055,-0.276332815857927,2,True
2023-08-08,0.44936250696392055,0.44918517839942773,-0.039462251911248636,5,True
2023-08-09,0.44918517839942773,0.4468116184062724,-0.528414584295267,0,True
2023-08-10,0.4468116184062724,0.44458321122885147,-0.49873528028868686,1,True
2023-08-11,0.44458321122885147,0.44458321122885147,0.0,0,False
2023-08-12,0.44458321122885147,0.44458321122885147,0.0,0,False
2023-08-13,0.44458321122885147,0.44625005780045374,0.3749234180469907,1,True
2023-08-14,0.44625005780045374,0.44353612520087754,-0.608164089199914,1,True
2023-08-15,0.44353612520087754,0.44353612520087754,0.0,0,False
2023-08-16,0.44353612520087754,0.4466589857612662,0.7040825725242339,7,True
2023-08-17,0.4466589857612662,0.44925791418415145,0.5818596526062869,5,True
2023-08-18,0.44925791418415145,0.4580393745900412,1.9546590340732806,7,True
2023-08-19,0.4580393745900412,0.4580695168537169,0.0065807145297691605,0,True
2023-08-20,0.4580695168537169,0.45738211799377054,-0.15006431003481424,1,True
2023-08-21,0.45738211799377054,0.45624726438479,-0.24811936547899371,1,True
2023-08-22,0.45624726438479,0.46227933282781747,1.3221051201613543,1,True
2023-08-23,0.46227933282781747,0.4628328893347952,0.11974502593303793,0,True
2023-08-24,0.4628328893347952,0.4628328893347952,0.0,0,False
2023-08-25,0.4628328893347952,0.45369523587347194,-1.9742878416562748,6,True
2023-08-26,0.45369523587347194,0.4531443293061859,-0.12142657090621345,0,True
2023-08-27,0.4531443293061859,0.4531443293061859,0.0,0,False
2023-08-28,0.4531443293061859,0.450150161281644,-0.6607537225780447,2,True
2023-08-29,0.450150161281644,0.45341684949889993,0.7256885586701234,1,True
2023-08-30,0.45341684949889993,0.45152804199224683,-0.41657197096679477,2,True
2023-08-31,0.45152804199224683,0.45443323061418095,0.643412668040666,2,True
2023-09-01,0.45443323061418095,0.451535894073231,-0.637571450713248,1,True
2023-09-02,0.451535894073231,0.44670544888327873,-1.069780997115788,4,True
2023-09-03,0.44670544888327873,0.44620292240573023,-0.11249616023372155,0,True
2023-09-04,0.44620292240573023,0.4455651089692064,-0.1429424605928209,3,True
2023-09-05,0.4455651089692064,0.4456940825791351,0.02894607484573708,0,True
2023-09-06,0.4456940825791351,0.4466384957576219,0.21189717687559728,4,True
2023-09-07,0.4466384957576219,0.44946157368212103,0.6320722354463459,3,True
2023-09-08,0.44946157368212103,0.4445452147819435,-1.0938329743967468,4,True
2023-09-09,0.4445452147819435,0.44619928545204635,0.37208153751340234,4,True
2023-09-10,0.44619928545204635,0.440070743742279,-1.3734987727643921,5,True
2023-09-11,0.440070743742279,0.4381141766033108,-0.4446028659687573,2,True
2023-09-12,0.4381141766033108,0.43692115286808486,-0.2723088635194215,2,True
2023-09-13,0.43692115286808486,0.4414646188332074,1.0398823529824242,2,True
2023-09-14,0.4414646188332074,0.4429289644304422,0.3317016890515667,4,True
2023-09-15,0.4429289644304422,0.44756666819273533,1.0470536213987858,0,True
2023-09-16,0.44756666819273533,0.447705298071205,0.030974129291050367,5,True
2023-09-17,0.447705298071205,0.4481867054899486,0.1075277466711988,2,True
2023-09-18,0.4481867054899486,0.4435427097813663,-1.036174355842523,1,True
2023-09-19,0.4435427097813663,0.4435427097813663,0.0,0,False
2023-09-20,0.4435427097813663,0.4443075767388692,0.1724449394918448,3,True
2023-09-21,0.4443075767388692,0.44206816946296346,-0.5040218517862294,1,True
2023-09-22,0.44206816946296346,0.4457130380068722,0.8245037294444035,0,True
2023-09-23,0.4457130380068722,0.4457130380068722,0.0,0,False
2023-09-24,0.4457130380068722,0.44348942227080546,-0.49888954247563344,1,True
2023-09-25,0.44348942227080546,0.44339310285118894,-0.021718538206239035,1,True
2023-09-26,0.44339310285118894,0.44390932173525643,0.1164246535970026,1,True
2023-09-27,0.44390932173525643,0.44332019262673245,-0.1327138403449335,0,True
2023-09-28,0.44332019262673245,0.44332019262673245,0.0,0,False
2023-09-29,0.44332019262673245,0.4389129127555652,-0.994152746585597,2,True
2023-09-30,0.4389129127555652,0.4389129127555652,0.0,0,False
2023-10-01,0.4389129127555652,0.43861553253660485,-0.06775380954124888,1,True
2023-10-02,0.43861553253660485,0.4416304479610163,0.687370875120541,1,True
2023-10-03,0.4416304479610163,0.44503010836071805,0.7697975570746474,3,True
2023-10-04,0.44503010836071805,0.4376209863931359,-1.664858585607587,5,True
2023-10-05,0.4376209863931359,0.4339933816476118,-0.8289375643117047,1,True
2023-10-06,0.4339933816476118,0.4339830745518524,-0.002374943074079372,0,True
2023-10-07,0.4339830745518524,0.4318197251958469,-0.49848703391013327,1,True
2023-10-08,0.4318197251958469,0.43105326868278454,-0.17749455810864845,1,True
2023-10-09,0.43105326868278454,0.4300526905796726,-0.23212400318167736,1,True
2023-10-10,0.4300526905796726,0.42752372179145653,-0.5880602176461802,1,True
2023-10-11,0.42752372179145653,0.427433158197871,-0.02118329088408588,0,True
2023-10-12,0.427433158197871,0.427433158197871,0.0,0,False
2023-10-13,0.427433158197871,0.427433158197871,0.0,0,False
2023-10-14,0.427433158197871,0.427433158197871,0.0,0,False
2023-10-15,0.427433158197871,0.427452937863093,0.004627545814517298,1,True
2023-10-16,0.427452937863093,0.42830152029154156,0.19852066819114889,2,True
2023-10-17,0.42830152029154156,0.43005949636336455,0.41045291425216845,2,True
2023-10-18,0.43005949636336455,0.42496679525207287,-1.184185247473002,3,True
2023-10-19,0.42496679525207287,0.41845491866559364,-1.5323259744603468,4,True
2023-10-20,0.41845491866559364,0.41738278774341303,-0.2562118102469757,0,True
2023-10-21,0.41738278774341303,0.41775446192633203,0.08904875664099698,2,True
2023-10-22,0.41775446192633203,0.4213381530856848,0.8578462915339813,1,True
2023-10-23,0.4213381530856848,0.4213381530856848,0.0,0,False
2023-10-24,0.4213381530856848,0.42023143710992994,-0.2626669262324799,4,True
2023-10-25,0.42023143710992994,0.4326092119761417,2.945466182001466,7,True
2023-10-26,0.4326092119761417,0.435932009855729,0.7680830152480667,4,True
2023-10-27,0.435932009855729,0.4360509554578212,0.027285356294792784,4,True
2023-10-28,0.4360509554578212,0.4364607651681086,0.09398206910409268,1,True
2023-10-29,0.4364607651681086,0.43728876754206697,0.18970831745654948,0,True
2023-10-30,0.43728876754206697,0.4361430747737675,-0.26199913040053646,2,True
2023-10-31,0.4361430747737675,0.4272320388774758,-2.043145108039135,5,True
2023-11-01,0.4272320388774758,0.4238465767337063,-0.7924176643363645,4,True
2023-11-02,0.4238465767337063,0.42319791650732846,-0.1530412800255676,3,True
2023-11-03,0.42319791650732846,0.42072473601434757,-0.5844028045771554,1,True
2023-11-04,0.42072473601434757,0.4215824043496861,0.20385498211097364,1,True
2023-11-05,0.4215824043496861,0.4225818849783749,0.2370783548783395,4,True
2023-11-06,0.4225818849783749,0.41934610608234335,-0.7657164235038483,3,True
2023-11-07,0.41934610608234335,0.4150668682588716,-1.0204548847370098,5,True
2023-11-08,0.4150668682588716,0.4157289464993775,0.15951122364528114,0,True
2023-11-09,0.4157289464993775,0.4173361095771167,0.38658916856095793,4,True
2023-11-10,0.4173361095771167,0.41530398446399436,-0.48692769843986516,6,True
2023-11-11,0.41530398446399436,0.41477050488092343,-0.1284552046278753,3,True
2023-11-12,0.41477050488092343,0.41821351458236977,0.8300999374183604,4,True
2023-11-13,0.41821351458236977,0.41601525803359257,-0.5256302037423111,3,True
2023-11-14,0.41601525803359257,0.41868373761032707,0.6414379100775802,4,True
2023-11-15,0.41868373761032707,0.4159242605821166,-0.6590838812991384,1,True
2023-11-16,0.4159242605821166,0.41280817024332744,-0.7491965807495782,4,True
2023-11-17,0.41280817024332744,0.41462634131776427,0.4404397018995754,3,True
2023-11-18,0.41462634131776427,0.4102055480781219,-1.0662113809731033,3,True
2023-11-19,0.4102055480781219,0.4053394575722474,-1.186256628822524,3,True
2023-11-20,0.4053394575722474,0.4063825023359062,0.2573262346345695,1,True
2023-11-21,0.4063825023359062,0.3969003984501535,-2.333295314451067,4,True
2023-11-22,0.3969003984501535,0.3972244687023714,0.08165027132331915,4,True
2023-11-23,0.3972244687023714,0.40098471765358606,0.9466307459604417,3,True
2023-11-24,0.40098471765358606,0.4033774414777283,0.5967119739983096,1,True
2023-11-25,0.4033774414777283,0.4054877505727217,0.5231599187258684,5,True
2023-11-26,0.4054877505727217,0.40649016003282845,0.24721078717937495,1,True
2023-11-27,0.40649016003282845,0.4105044499419117,0.9875490980541857,3,True
2023-11-28,0.4105044499419117,0.40918951572815604,-0.32032154924063194,2,True
2023-11-29,0.40918951572815604,0.41203431769538035,0.6952284596446701,3,True
2023-11-30,0.41203431769538035,0.41006429691639895,-0.4781205580157155,0,True
2023-12-01,0.41006429691639895,0.41006429691639895,0.0,0,False
2023-12-02,0.41006429691639895,0.41006429691639895,0.0,0,False
2023-12-03,0.41006429691639895,0.41087625596609995,0.1980077406901204,2,True
2023-12-04,0.41087625596609995,0.41812015807393677,1.7630374115447767,4,True
2023-12-05,0.41812015807393677,0.42153036876989164,0.8156054258813938,4,True
2023-12-06,0.42153036876989164,0.41397850535094,-1.7915348402985698,3,True
2023-12-07,0.41397850535094,0.41502749209461187,0.25339159645079157,4,True
2023-12-08,0.41502749209461187,0.41441433376693826,-0.14773920748696323,1,True
2023-12-09,0.41441433376693826,0.4164914017438717,0.5012056311019419,0,True
2023-12-10,0.4164914017438717,0.4156528435549635,-0.20133865558739084,3,True
2023-12-11,0.4156528435549635,0.4203442899629325,1.128693447119078,7,True
2023-12-12,0.4203442899629325,0.4192397319117031,-0.2627746058657787,0,True
2023-12-13,0.4192397319117031,0.4179607584514297,-0.30506971618394774,5,True
2023-12-14,0.4179607584514297,0.42294698792598173,1.1929898617818235,1,True
2023-12-15,0.42294698792598173,0.41938830067217525,-0.8414026711142553,2,True
2023-12-16,0.41938830067217525,0.42966565716562044,2.4505587010827723,4,True
2023-12-17,0.42966565716562044,0.4268554305035989,-0.6540496349091041,2,True
2023-12-18,0.4268554305035989,0.42494844572398777,-0.4467519078675708,7,True
2023-12-19,0.42494844572398777,0.42548412040085215,0.12605639160574444,4,True
2023-12-20,0.42548412040085215,0.4268272386197256,0.3156682363628649,2,True
2023-12-21,0.4268272386197256,0.42336433917889904,-0.8113117269705872,1,True
2023-12-22,0.42336433917889904,0.4198158847442852,-0.8381561946138261,1,True
2023-12-23,0.4198158847442852,0.41968820241196475,-0.030413887839964016,1,True
2023-12-24,0.41968820241196475,0.4234648401569998,0.899867502429319,2,True
2023-12-25,0.4234648401569998,0.4241376397202965,0.1588796753579924,2,True
2023-12-26,0.4241376397202965,0.4227643608411598,-0.32378142153153266,1,True
2023-12-27,0.4227643608411598,0.41869757520556505,-0.9619509145717076,11,True
2023-12-28,0.41869757520556505,0.42083689865824164,0.510947179865151,1,True
2023-12-29,0.42083689865824164,0.42779214396653364,1.6527175564850616,2,True
2023-12-30,0.42779214396653364,0.4298179477080222,0.47354860767312434,3,True
2023-12-31,0.4298179477080222,0.4285917990844034,-0.285271620265537,2,True
