day,start_equity,end_equity,return_pct,entries,active
2024-01-02,1.0,1.0,0.0,0,False
2024-01-03,1.0,0.9927789230118099,-0.7221076988190078,6,True
2024-01-04,0.9927789230118099,0.9988114880796243,0.6076443534390519,1,True
2024-01-05,0.9988114880796243,0.9975907178106028,-0.1222222895502112,1,True
2024-01-06,0.9975907178106028,0.9972550799659069,-0.0336448443939541,2,True
2024-01-07,0.9972550799659069,0.9953582447487916,-0.19020562093101656,1,True
2024-01-08,0.9953582447487916,1.0013903305358336,0.6060215825674176,3,True
2024-01-09,1.0013903305358336,1.0050607208892517,0.3665294382714901,0,True
2024-01-10,1.0050607208892517,1.0050607208892517,0.0,0,False
2024-01-11,1.0050607208892517,1.005728896316502,0.06648110043134814,1,True
2024-01-12,1.005728896316502,1.0037116231213674,-0.20057822764394384,2,True
2024-01-13,1.0037116231213674,1.0073142679333784,0.35893225992615907,4,True
2024-01-14,1.0073142679333784,1.0121021540242587,0.47531204940671756,0,True
2024-01-15,1.0121021540242587,1.0121021540242587,0.0,0,False
2024-01-16,1.0121021540242587,1.0116530873262708,-0.04436970084515934,1,True
2024-01-17,1.0116530873262708,1.015871173898887,0.41694990362401985,0,True
2024-01-18,1.015871173898887,1.015871173898887,0.0,0,False
2024-01-19,1.015871173898887,1.015871173898887,0.0,0,False
2024-01-20,1.015871173898887,1.029143731304513,1.3065197385891292,6,True
2024-01-21,1.029143731304513,1.0309530565640994,0.17580880148713174,0,True
2024-01-22,1.0309530565640994,1.0309530565640994,0.0,0,False
2024-01-23,1.0309530565640994,1.0084845190316156,-2.179394822046077,8,True
2024-01-24,1.0084845190316156,1.0084845190316156,0.0,0,False
2024-01-25,1.0084845190316156,1.0034511540999789,-0.4991018539848291,1,True
2024-01-26,1.0034511540999789,1.0034511540999789,0.0,0,False
2024-01-27,1.0034511540999789,1.0034511540999789,0.0,0,False
2024-01-28,1.0034511540999789,1.0034511540999789,0.0,0,False
2024-01-29,1.0034511540999789,1.0034511540999789,0.0,0,False
2024-01-30,1.0034511540999789,1.0034511540999789,0.0,0,False
2024-01-31,1.0034511540999789,0.9984384949813002,-0.49954191573725604,1,True
2024-02-01,0.9984384949813002,0.9984384949813002,0.0,0,False
2024-02-02,0.9984384949813002,0.9979645670489632,-0.04746691305665962,2,True
2024-02-03,0.9979645670489632,1.0057872202951463,0.7838608207619169,1,True
2024-02-04,1.0057872202951463,1.0040786609912808,-0.1698728388459858,1,True
2024-02-05,1.0040786609912808,1.0040786609912808,0.0,0,False
2024-02-06,1.0040786609912808,0.999074799292509,-0.4983535546738693,1,True
2024-02-07,0.999074799292509,0.9981935034288973,-0.088211199425281,3,True
2024-02-08,0.9981935034288973,1.012607337491188,1.4439919727765815,0,True
2024-02-09,1.012607337491188,1.012607337491188,0.0,0,False
2024-02-10,1.012607337491188,1.012607337491188,0.0,0,False
2024-02-11,1.012607337491188,1.012607337491188,0.0,0,False
2024-02-12,1.012607337491188,1.012607337491188,0.0,0,False
2024-02-13,1.012607337491188,1.012607337491188,0.0,0,False
2024-02-14,1.012607337491188,1.0137499556578218,0.11283921460265578,1,True
2024-02-15,1.0137499556578218,1.0112904608899385,-0.24261355121710793,0,True
2024-02-16,1.0112904608899385,1.016206379816279,0.486103559408102,1,True
2024-02-17,1.016206379816279,1.0121531440649463,-0.39885950647795543,2,True
2024-02-18,1.0121531440649463,1.0125174310106373,0.03599128726983203,0,True
2024-02-19,1.0125174310106373,1.0125174310106373,0.0,0,False
2024-02-20,1.0125174310106373,1.009954595144192,-0.2531152341631593,7,True
2024-02-21,1.009954595144192,0.9923873615047861,-1.739408258932451,4,True
2024-02-22,0.9923873615047861,1.0153119291548385,2.310042281805269,3,True
2024-02-23,1.0153119291548385,1.0213965311200242,0.5992840023312462,1,True
2024-02-24,1.0213965311200242,1.0325813728772344,1.0950538225291684,3,True
2024-02-25,1.0325813728772344,1.0298750929245863,-0.26208878290212567,1,True
2024-02-26,1.0298750929245863,1.034995141626963,0.4971523962034041,0,True
2024-02-27,1.034995141626963,1.0347755478990317,-0.021216884901120725,1,True
2024-02-28,1.0347755478990317,1.0345194556453328,-0.024748579942668325,1,True
2024-02-29,1.0345194556453328,1.053133863667622,1.7993289464698803,5,True
2024-03-01,1.053133863667622,1.051658664140628,-0.14007711439991688,1,True
2024-03-02,1.051658664140628,1.0511205170534648,-0.05117126930181959,1,True
2024-03-03,1.0511205170534648,1.0527601504197246,0.15598909351099977,6,True
2024-03-04,1.0527601504197246,1.0684352142046232,1.4889491949946043,0,True
2024-03-05,1.0684352142046232,1.062117327793343,-0.5913214322483262,5,True
2024-03-06,1.062117327793343,1.0365360683975693,-2.40851539903989,3,True
2024-03-07,1.0365360683975693,1.0365360683975693,0.0,0,False
2024-03-08,1.0365360683975693,1.037116017196788,0.05595066268317961,2,True
2024-03-09,1.037116017196788,1.0343279716102611,-0.2688267792896104,3,True
2024-03-10,1.0343279716102611,1.0396773650759257,0.5171854201464265,2,True
2024-03-11,1.0396773650759257,1.0325892368609453,-0.6817622902142162,0,True
2024-03-12,1.0325892368609453,1.0287403000257656,-0.3727461702855317,1,True
2024-03-13,1.0287403000257656,1.0332863700935044,0.44190648190072235,2,True
2024-03-14,1.0332863700935044,1.030955842997322,-0.22554513091772588,1,True
2024-03-15,1.030955842997322,1.0098430039810071,-2.0478897481130742,6,True
2024-03-16,1.0098430039810071,1.0078056213239948,-0.20175241586866122,1,True
2024-03-17,1.0078056213239948,0.9857920780533226,-2.184304473490839,4,True
2024-03-18,0.9857920780533226,0.9857920780533226,0.0,0,False
2024-03-19,0.9857920780533226,0.9650744592643217,-2.1016215538993466,7,True
2024-03-20,0.9650744592643217,0.9650744592643217,0.0,0,False
2024-03-21,0.9650744592643217,0.9690030083732437,0.4070721249753939,2,True
2024-03-22,0.9690030083732437,0.9690030083732437,0.0,0,False
2024-03-23,0.9690030083732437,0.9704850120833185,0.15294108452386102,1,True
2024-03-24,0.9704850120833185,0.9680534276543846,-0.25055352722181956,2,True
2024-03-25,0.9680534276543846,0.9755319960655925,0.7725367420400087,2,True
2024-03-26,0.9755319960655925,0.9787955292716103,0.3345388177097064,2,True
2024-03-27,0.9787955292716103,0.9779190204418328,-0.08954973777105524,2,True
2024-03-28,0.9779190204418328,0.9739561846373507,-0.4052314886657582,0,True
2024-03-29,0.9739561846373507,0.9632965484802195,-1.0944677312255346,4,True
2024-03-30,0.9632965484802195,0.9632174594152901,-0.008210251044094008,0,True
2024-03-31,0.9632174594152901,0.9632174594152901,0.0,0,False
2024-04-01,0.9632174594152901,0.9624020686731324,-0.08465282000315044,4,True
2024-04-02,0.9624020686731324,0.9496873342527884,-1.321145790747713,5,True
2024-04-03,0.9496873342527884,0.9417178890076674,-0.8391651607517092,1,True
2024-04-04,0.9417178890076674,0.9414437290930608,-0.02911274361533378,1,True
2024-04-05,0.9414437290930608,0.9345812192424424,-0.7289346817604736,3,True
2024-04-06,0.9345812192424424,0.9339139288606123,-0.0713999348682659,1,True
2024-04-07,0.9339139288606123,0.9398332031974694,0.6338136903128344,1,True
2024-04-08,0.9398332031974694,0.9398332031974694,0.0,0,False
2024-04-09,0.9398332031974694,0.9374890310913238,-0.24942426998433298,1,True
2024-04-10,0.9374890310913238,0.9345138827277595,-0.3173528718625085,4,True
2024-04-11,0.9345138827277595,0.9369307824736404,0.25862641428355815,1,True
2024-04-12,0.9369307824736404,0.9341387756733002,-0.2979949909393431,2,True
2024-04-13,0.9341387756733002,0.9215150055339566,-1.351380594413798,7,True
2024-04-14,0.9215150055339566,0.906920817045561,-1.583716857647821,6,True
2024-04-15,0.906920817045561,0.906920817045561,0.0,0,False
2024-04-16,0.906920817045561,0.906920817045561,0.0,0,False
2024-04-17,0.906920817045561,0.906920817045561,0.0,0,False
2024-04-18,0.906920817045561,0.906920817045561,0.0,0,False
2024-04-19,0.906920817045561,0.906920817045561,0.0,0,False
2024-04-20,0.906920817045561,0.906920817045561,0.0,0,False
2024-04-21,0.906920817045561,0.906920817045561,0.0,0,False
2024-04-22,0.906920817045561,0.906920817045561,0.0,0,False
2024-04-23,0.906920817045561,0.906920817045561,0.0,0,False
2024-04-24,0.906920817045561,0.906920817045561,0.0,0,False
2024-04-25,0.906920817045561,0.906920817045561,0.0,0,False
2024-04-26,0.906920817045561,0.906920817045561,0.0,0,False
2024-04-27,0.906920817045561,0.906920817045561,0.0,0,False
2024-04-28,0.906920817045561,0.906920817045561,0.0,0,False
2024-04-29,0.906920817045561,0.906920817045561,0.0,0,False
2024-04-30,0.906920817045561,0.906920817045561,0.0,0,False
2024-05-01,0.906920817045561,0.906920817045561,0.0,0,False
2024-05-02,0.906920817045561,0.906920817045561,0.0,0,False
2024-05-03,0.906920817045561,0.906920817045561,0.0,0,False
2024-05-04,0.906920817045561,0.906920817045561,0.0,0,False
2024-05-05,0.906920817045561,0.906920817045561,0.0,0,False
2024-05-06,0.906920817045561,0.906920817045561,0.0,0,False
2024-05-07,0.906920817045561,0.906920817045561,0.0,0,False
2024-05-08,0.906920817045561,0.906920817045561,0.0,0,False
2024-05-09,0.906920817045561,0.906920817045561,0.0,0,False
2024-05-10,0.906920817045561,0.906920817045561,0.0,0,False
2024-05-11,0.906920817045561,0.906920817045561,0.0,0,False
2024-05-12,0.906920817045561,0.906920817045561,0.0,0,False
2024-05-13,0.906920817045561,0.906920817045561,0.0,0,False
2024-05-14,0.906920817045561,0.906920817045561,0.0,0,False
2024-05-15,0.906920817045561,0.906920817045561,0.0,0,False
2024-05-16,0.906920817045561,0.906920817045561,0.0,0,False
2024-05-17,0.906920817045561,0.906920817045561,0.0,0,False
2024-05-18,0.906920817045561,0.906920817045561,0.0,0,False
2024-05-19,0.906920817045561,0.906920817045561,0.0,0,False
2024-05-20,0.906920817045561,0.906920817045561,0.0,0,False
2024-05-21,0.906920817045561,0.906920817045561,0.0,0,False
2024-05-22,0.906920817045561,0.906920817045561,0.0,0,False
2024-05-23,0.906920817045561,0.906920817045561,0.0,0,False
2024-05-24,0.906920817045561,0.906920817045561,0.0,0,False
2024-05-25,0.906920817045561,0.906920817045561,0.0,0,False
2024-05-26,0.906920817045561,0.906920817045561,0.0,0,False
2024-05-27,0.906920817045561,0.906920817045561,0.0,0,False
2024-05-28,0.906920817045561,0.906920817045561,0.0,0,False
2024-05-29,0.906920817045561,0.906920817045561,0.0,0,False
2024-05-30,0.906920817045561,0.906920817045561,0.0,0,False
2024-05-31,0.906920817045561,0.906920817045561,0.0,0,False
2024-06-01,0.906920817045561,0.906920817045561,0.0,0,False
2024-06-02,0.906920817045561,0.906920817045561,0.0,0,False
2024-06-03,0.906920817045561,0.906920817045561,0.0,0,False
2024-06-04,0.906920817045561,0.906920817045561,0.0,0,False
2024-06-05,0.906920817045561,0.906920817045561,0.0,0,False
2024-06-06,0.906920817045561,0.906920817045561,0.0,0,False
2024-06-07,0.906920817045561,0.906920817045561,0.0,0,False
2024-06-08,0.906920817045561,0.906920817045561,0.0,0,False
2024-06-09,0.906920817045561,0.906920817045561,0.0,0,False
2024-06-10,0.906920817045561,0.906920817045561,0.0,0,False
2024-06-11,0.906920817045561,0.906920817045561,0.0,0,False
2024-06-12,0.906920817045561,0.906920817045561,0.0,0,False
2024-06-13,0.906920817045561,0.906920817045561,0.0,0,False
2024-06-14,0.906920817045561,0.906920817045561,0.0,0,False
2024-06-15,0.906920817045561,0.906920817045561,0.0,0,False
2024-06-16,0.906920817045561,0.906920817045561,0.0,0,False
2024-06-17,0.906920817045561,0.906920817045561,0.0,0,False
2024-06-18,0.906920817045561,0.906920817045561,0.0,0,False
2024-06-19,0.906920817045561,0.906920817045561,0.0,0,False
2024-06-20,0.906920817045561,0.906920817045561,0.0,0,False
2024-06-21,0.906920817045561,0.906920817045561,0.0,0,False
2024-06-22,0.906920817045561,0.906920817045561,0.0,0,False
2024-06-23,0.906920817045561,0.906920817045561,0.0,0,False
2024-06-24,0.906920817045561,0.906920817045561,0.0,0,False
2024-06-25,0.906920817045561,0.906920817045561,0.0,0,False
2024-06-26,0.906920817045561,0.906920817045561,0.0,0,False
2024-06-27,0.906920817045561,0.906920817045561,0.0,0,False
2024-06-28,0.906920817045561,0.906920817045561,0.0,0,False
2024-06-29,0.906920817045561,0.906920817045561,0.0,0,False
2024-06-30,0.906920817045561,0.906920817045561,0.0,0,False
2024-07-01,0.906920817045561,0.906920817045561,0.0,0,False
2024-07-02,0.906920817045561,0.906920817045561,0.0,0,False
2024-07-03,0.906920817045561,0.906920817045561,0.0,0,False
2024-07-04,0.906920817045561,0.906920817045561,0.0,0,False
2024-07-05,0.906920817045561,0.906920817045561,0.0,0,False
2024-07-06,0.906920817045561,0.906920817045561,0.0,0,False
2024-07-07,0.906920817045561,0.906920817045561,0.0,0,False
2024-07-08,0.906920817045561,0.906920817045561,0.0,0,False
2024-07-09,0.906920817045561,0.906920817045561,0.0,0,False
2024-07-10,0.906920817045561,0.906920817045561,0.0,0,False
2024-07-11,0.906920817045561,0.906920817045561,0.0,0,False
2024-07-12,0.906920817045561,0.906920817045561,0.0,0,False
2024-07-13,0.906920817045561,0.906920817045561,0.0,0,False
2024-07-14,0.906920817045561,0.906920817045561,0.0,0,False
2024-07-15,0.906920817045561,0.906920817045561,0.0,0,False
2024-07-16,0.906920817045561,0.906920817045561,0.0,0,False
2024-07-17,0.906920817045561,0.906920817045561,0.0,0,False
2024-07-18,0.906920817045561,0.906920817045561,0.0,0,False
2024-07-19,0.906920817045561,0.906920817045561,0.0,0,False
2024-07-20,0.906920817045561,0.906920817045561,0.0,0,False
2024-07-21,0.906920817045561,0.906920817045561,0.0,0,False
2024-07-22,0.906920817045561,0.906920817045561,0.0,0,False
2024-07-23,0.906920817045561,0.906920817045561,0.0,0,False
2024-07-24,0.906920817045561,0.906920817045561,0.0,0,False
2024-07-25,0.906920817045561,0.906920817045561,0.0,0,False
2024-07-26,0.906920817045561,0.906920817045561,0.0,0,False
2024-07-27,0.906920817045561,0.906920817045561,0.0,0,False
2024-07-28,0.906920817045561,0.906920817045561,0.0,0,False
2024-07-29,0.906920817045561,0.906920817045561,0.0,0,False
2024-07-30,0.906920817045561,0.906920817045561,0.0,0,False
2024-07-31,0.906920817045561,0.906920817045561,0.0,0,False
2024-08-01,0.906920817045561,0.906920817045561,0.0,0,False
2024-08-02,0.906920817045561,0.906920817045561,0.0,0,False
2024-08-03,0.906920817045561,0.906920817045561,0.0,0,False
2024-08-04,0.906920817045561,0.906920817045561,0.0,0,False
2024-08-05,0.906920817045561,0.906920817045561,0.0,0,False
2024-08-06,0.906920817045561,0.906920817045561,0.0,0,False
2024-08-07,0.906920817045561,0.906920817045561,0.0,0,False
2024-08-08,0.906920817045561,0.906920817045561,0.0,0,False
2024-08-09,0.906920817045561,0.906920817045561,0.0,0,False
2024-08-10,0.906920817045561,0.906920817045561,0.0,0,False
2024-08-11,0.906920817045561,0.906920817045561,0.0,0,False
2024-08-12,0.906920817045561,0.906920817045561,0.0,0,False
2024-08-13,0.906920817045561,0.906920817045561,0.0,0,False
2024-08-14,0.906920817045561,0.906920817045561,0.0,0,False
2024-08-15,0.906920817045561,0.906920817045561,0.0,0,False
2024-08-16,0.906920817045561,0.906920817045561,0.0,0,False
2024-08-17,0.906920817045561,0.906920817045561,0.0,0,False
2024-08-18,0.906920817045561,0.906920817045561,0.0,0,False
2024-08-19,0.906920817045561,0.906920817045561,0.0,0,False
2024-08-20,0.906920817045561,0.906920817045561,0.0,0,False
2024-08-21,0.906920817045561,0.906920817045561,0.0,0,False
2024-08-22,0.906920817045561,0.906920817045561,0.0,0,False
2024-08-23,0.906920817045561,0.906920817045561,0.0,0,False
2024-08-24,0.906920817045561,0.906920817045561,0.0,0,False
2024-08-25,0.906920817045561,0.906920817045561,0.0,0,False
2024-08-26,0.906920817045561,0.906920817045561,0.0,0,False
2024-08-27,0.906920817045561,0.906920817045561,0.0,0,False
2024-08-28,0.906920817045561,0.906920817045561,0.0,0,False
2024-08-29,0.906920817045561,0.906920817045561,0.0,0,False
2024-08-30,0.906920817045561,0.906920817045561,0.0,0,False
2024-08-31,0.906920817045561,0.906920817045561,0.0,0,False
2024-09-01,0.906920817045561,0.906920817045561,0.0,0,False
2024-09-02,0.906920817045561,0.906920817045561,0.0,0,False
2024-09-03,0.906920817045561,0.906920817045561,0.0,0,False
2024-09-04,0.906920817045561,0.906920817045561,0.0,0,False
2024-09-05,0.906920817045561,0.906920817045561,0.0,0,False
2024-09-06,0.906920817045561,0.906920817045561,0.0,0,False
2024-09-07,0.906920817045561,0.906920817045561,0.0,0,False
2024-09-08,0.906920817045561,0.906920817045561,0.0,0,False
2024-09-09,0.906920817045561,0.906920817045561,0.0,0,False
2024-09-10,0.906920817045561,0.906920817045561,0.0,0,False
2024-09-11,0.906920817045561,0.906920817045561,0.0,0,False
2024-09-12,0.906920817045561,0.906920817045561,0.0,0,False
2024-09-13,0.906920817045561,0.906920817045561,0.0,0,False
2024-09-14,0.906920817045561,0.906920817045561,0.0,0,False
2024-09-15,0.906920817045561,0.906920817045561,0.0,0,False
2024-09-16,0.906920817045561,0.906920817045561,0.0,0,False
2024-09-17,0.906920817045561,0.906920817045561,0.0,0,False
2024-09-18,0.906920817045561,0.906920817045561,0.0,0,False
2024-09-19,0.906920817045561,0.906920817045561,0.0,0,False
2024-09-20,0.906920817045561,0.906920817045561,0.0,0,False
2024-09-21,0.906920817045561,0.906920817045561,0.0,0,False
2024-09-22,0.906920817045561,0.906920817045561,0.0,0,False
2024-09-23,0.906920817045561,0.906920817045561,0.0,0,False
2024-09-24,0.906920817045561,0.906920817045561,0.0,0,False
2024-09-25,0.906920817045561,0.906920817045561,0.0,0,False
2024-09-26,0.906920817045561,0.906920817045561,0.0,0,False
2024-09-27,0.906920817045561,0.906920817045561,0.0,0,False
2024-09-28,0.906920817045561,0.906920817045561,0.0,0,False
2024-09-29,0.906920817045561,0.906920817045561,0.0,0,False
2024-09-30,0.906920817045561,0.906920817045561,0.0,0,False
2024-10-01,0.906920817045561,0.906920817045561,0.0,0,False
2024-10-02,0.906920817045561,0.906920817045561,0.0,0,False
2024-10-03,0.906920817045561,0.906920817045561,0.0,0,False
2024-10-04,0.906920817045561,0.906920817045561,0.0,0,False
2024-10-05,0.906920817045561,0.906920817045561,0.0,0,False
2024-10-06,0.906920817045561,0.906920817045561,0.0,0,False
2024-10-07,0.906920817045561,0.906920817045561,0.0,0,False
2024-10-08,0.906920817045561,0.906920817045561,0.0,0,False
2024-10-09,0.906920817045561,0.906920817045561,0.0,0,False
2024-10-10,0.906920817045561,0.906920817045561,0.0,0,False
2024-10-11,0.906920817045561,0.906920817045561,0.0,0,False
2024-10-12,0.906920817045561,0.906920817045561,0.0,0,False
2024-10-13,0.906920817045561,0.906920817045561,0.0,0,False
2024-10-14,0.906920817045561,0.906920817045561,0.0,0,False
2024-10-15,0.906920817045561,0.906920817045561,0.0,0,False
2024-10-16,0.906920817045561,0.906920817045561,0.0,0,False
2024-10-17,0.906920817045561,0.906920817045561,0.0,0,False
2024-10-18,0.906920817045561,0.906920817045561,0.0,0,False
2024-10-19,0.906920817045561,0.906920817045561,0.0,0,False
2024-10-20,0.906920817045561,0.906920817045561,0.0,0,False
2024-10-21,0.906920817045561,0.906920817045561,0.0,0,False
2024-10-22,0.906920817045561,0.906920817045561,0.0,0,False
2024-10-23,0.906920817045561,0.906920817045561,0.0,0,False
2024-10-24,0.906920817045561,0.906920817045561,0.0,0,False
2024-10-25,0.906920817045561,0.906920817045561,0.0,0,False
2024-10-26,0.906920817045561,0.906920817045561,0.0,0,False
2024-10-27,0.906920817045561,0.906920817045561,0.0,0,False
2024-10-28,0.906920817045561,0.906920817045561,0.0,0,False
2024-10-29,0.906920817045561,0.906920817045561,0.0,0,False
2024-10-30,0.906920817045561,0.906920817045561,0.0,0,False
2024-10-31,0.906920817045561,0.906920817045561,0.0,0,False
2024-11-01,0.906920817045561,0.906920817045561,0.0,0,False
2024-11-02,0.906920817045561,0.906920817045561,0.0,0,False
2024-11-03,0.906920817045561,0.906920817045561,0.0,0,False
2024-11-04,0.906920817045561,0.906920817045561,0.0,0,False
2024-11-05,0.906920817045561,0.906920817045561,0.0,0,False
2024-11-06,0.906920817045561,0.906920817045561,0.0,0,False
2024-11-07,0.906920817045561,0.906920817045561,0.0,0,False
2024-11-08,0.906920817045561,0.906920817045561,0.0,0,False
2024-11-09,0.906920817045561,0.906920817045561,0.0,0,False
2024-11-10,0.906920817045561,0.906920817045561,0.0,0,False
2024-11-11,0.906920817045561,0.906920817045561,0.0,0,False
2024-11-12,0.906920817045561,0.906920817045561,0.0,0,False
2024-11-13,0.906920817045561,0.906920817045561,0.0,0,False
2024-11-14,0.906920817045561,0.906920817045561,0.0,0,False
2024-11-15,0.906920817045561,0.906920817045561,0.0,0,False
2024-11-16,0.906920817045561,0.906920817045561,0.0,0,False
2024-11-17,0.906920817045561,0.906920817045561,0.0,0,False
2024-11-18,0.906920817045561,0.906920817045561,0.0,0,False
2024-11-19,0.906920817045561,0.906920817045561,0.0,0,False
2024-11-20,0.906920817045561,0.906920817045561,0.0,0,False
2024-11-21,0.906920817045561,0.906920817045561,0.0,0,False
2024-11-22,0.906920817045561,0.906920817045561,0.0,0,False
2024-11-23,0.906920817045561,0.906920817045561,0.0,0,False
2024-11-24,0.906920817045561,0.906920817045561,0.0,0,False
2024-11-25,0.906920817045561,0.906920817045561,0.0,0,False
2024-11-26,0.906920817045561,0.906920817045561,0.0,0,False
2024-11-27,0.906920817045561,0.906920817045561,0.0,0,False
2024-11-28,0.906920817045561,0.906920817045561,0.0,0,False
2024-11-29,0.906920817045561,0.906920817045561,0.0,0,False
2024-11-30,0.906920817045561,0.906920817045561,0.0,0,False
2024-12-01,0.906920817045561,0.906920817045561,0.0,0,False
2024-12-02,0.906920817045561,0.906920817045561,0.0,0,False
2024-12-03,0.906920817045561,0.906920817045561,0.0,0,False
2024-12-04,0.906920817045561,0.906920817045561,0.0,0,False
2024-12-05,0.906920817045561,0.906920817045561,0.0,0,False
2024-12-06,0.906920817045561,0.906920817045561,0.0,0,False
2024-12-07,0.906920817045561,0.906920817045561,0.0,0,False
2024-12-08,0.906920817045561,0.906920817045561,0.0,0,False
2024-12-09,0.906920817045561,0.906920817045561,0.0,0,False
2024-12-10,0.906920817045561,0.906920817045561,0.0,0,False
2024-12-11,0.906920817045561,0.906920817045561,0.0,0,False
2024-12-12,0.906920817045561,0.906920817045561,0.0,0,False
2024-12-13,0.906920817045561,0.906920817045561,0.0,0,False
2024-12-14,0.906920817045561,0.906920817045561,0.0,0,False
2024-12-15,0.906920817045561,0.906920817045561,0.0,0,False
2024-12-16,0.906920817045561,0.906920817045561,0.0,0,False
2024-12-17,0.906920817045561,0.906920817045561,0.0,0,False
2024-12-18,0.906920817045561,0.906920817045561,0.0,0,False
2024-12-19,0.906920817045561,0.906920817045561,0.0,0,False
2024-12-20,0.906920817045561,0.906920817045561,0.0,0,False
2024-12-21,0.906920817045561,0.906920817045561,0.0,0,False
2024-12-22,0.906920817045561,0.906920817045561,0.0,0,False
2024-12-23,0.906920817045561,0.906920817045561,0.0,0,False
2024-12-24,0.906920817045561,0.906920817045561,0.0,0,False
2024-12-25,0.906920817045561,0.906920817045561,0.0,0,False
2024-12-26,0.906920817045561,0.906920817045561,0.0,0,False
2024-12-27,0.906920817045561,0.906920817045561,0.0,0,False
2024-12-28,0.906920817045561,0.906920817045561,0.0,0,False
2024-12-29,0.906920817045561,0.906920817045561,0.0,0,False
2024-12-30,0.906920817045561,0.906920817045561,0.0,0,False
2024-12-31,0.906920817045561,0.906920817045561,0.0,0,False
