day,start_equity,end_equity,return_pct,entries,active
2021-09-02,1.0,1.0,0.0,0,False
2021-09-03,1.0,1.0,0.0,0,False
2021-09-04,1.0,1.0,0.0,0,False
2021-09-05,1.0,1.0,0.0,0,False
2021-09-06,1.0,1.0,0.0,0,False
2021-09-07,1.0,1.0,0.0,0,False
2021-09-08,1.0,1.0,0.0,0,False
2021-09-09,1.0,1.0,0.0,0,False
2021-09-10,1.0,1.0,0.0,0,False
2021-09-11,1.0,1.0,0.0,0,False
2021-09-12,1.0,1.0,0.0,0,False
2021-09-13,1.0,1.0,0.0,0,False
2021-09-14,1.0,1.0,0.0,0,False
2021-09-15,1.0,1.0,0.0,0,False
2021-09-16,1.0,1.0,0.0,0,False
2021-09-17,1.0,1.0,0.0,0,False
2021-09-18,1.0,1.0,0.0,0,False
2021-09-19,1.0,1.0,0.0,0,False
2021-09-20,1.0,1.0,0.0,0,False
2021-09-21,1.0,1.0,0.0,0,False
2021-09-22,1.0,1.0,0.0,0,False
2021-09-23,1.0,1.0,0.0,0,False
2021-09-24,1.0,1.0,0.0,0,False
2021-09-25,1.0,1.0,0.0,0,False
2021-09-26,1.0,1.0,0.0,0,False
2021-09-27,1.0,1.0,0.0,0,False
2021-09-28,1.0,1.0,0.0,0,False
2021-09-29,1.0,1.0,0.0,0,False
2021-09-30,1.0,1.0,0.0,0,False
2021-10-01,1.0,1.0,0.0,0,False
2021-10-02,1.0,1.0,0.0,0,False
2021-10-03,1.0,1.0,0.0,0,False
2021-10-04,1.0,1.0,0.0,0,False
2021-10-05,1.0,1.0,0.0,0,False
2021-10-06,1.0,0.9979076339734806,-0.209236602651941,1,True
2021-10-07,0.9979076339734806,0.9979076339734806,0.0,0,False
2021-10-08,0.9979076339734806,0.9979076339734806,0.0,0,False
2021-10-09,0.9979076339734806,0.9959728762708805,-0.19388144120074946,3,True
2021-10-10,0.9959728762708805,0.9900453248315004,-0.595151894253787,1,True
2021-10-11,0.9900453248315004,0.9900453248315004,0.0,0,False
2021-10-12,0.9900453248315004,0.9900453248315004,0.0,0,False
2021-10-13,0.9900453248315004,1.0036689428804937,1.3760600355657404,4,True
2021-10-14,1.0036689428804937,1.0187633232526874,1.5039202397628681,0,True
2021-10-15,1.0187633232526874,1.0219075511519133,0.3086318311094294,1,True
2021-10-16,1.0219075511519133,1.0378921685918907,1.564194082131909,0,True
2021-10-17,1.0378921685918907,1.0378921685918907,0.0,0,False
2021-10-18,1.0378921685918907,1.0390057486991515,0.10729246649694435,1,True
2021-10-19,1.0390057486991515,1.0390057486991515,0.0,0,False
2021-10-20,1.0390057486991515,1.0390057486991515,0.0,0,False
2021-10-21,1.0390057486991515,1.0390057486991515,0.0,0,False
2021-10-22,1.0390057486991515,1.0390057486991515,0.0,0,False
2021-10-23,1.0390057486991515,1.0390057486991515,0.0,0,False
2021-10-24,1.0390057486991515,1.0390057486991515,0.0,0,False
2021-10-25,1.0390057486991515,1.0416681319684604,0.2562433627188554,1,True
2021-10-26,1.0416681319684604,1.0416681319684604,0.0,0,False
2021-10-27,1.0416681319684604,1.0394948583830605,-0.2086339707151219,6,True
2021-10-28,1.0394948583830605,1.0365838455410488,-0.2800411005918657,0,True
2021-10-29,1.0365838455410488,1.0365838455410488,0.0,0,False
2021-10-30,1.0365838455410488,1.0365838455410488,0.0,0,False
2021-10-31,1.0365838455410488,1.0365838455410488,0.0,0,False
2021-11-01,1.0365838455410488,1.0379468223808976,0.13148737033785718,1,True
2021-11-02,1.0379468223808976,1.036812283844169,-0.10930603690526564,0,True
2021-11-03,1.036812283844169,1.0369683371277185,0.015051257202602919,1,True
2021-11-04,1.0369683371277185,1.0564432919988447,1.878066491892083,1,True
2021-11-05,1.0564432919988447,1.0480283180157748,-0.796538162228122,0,True
2021-11-06,1.0480283180157748,1.04685467735298,-0.11198558689871074,1,True
2021-11-07,1.04685467735298,1.04685467735298,0.0,0,False
2021-11-08,1.04685467735298,1.04685467735298,0.0,0,False
2021-11-09,1.04685467735298,1.04685467735298,0.0,0,False
2021-11-10,1.04685467735298,1.04685467735298,0.0,0,False
2021-11-11,1.04685467735298,1.0157497122515462,-2.971278227469376,6,True
2021-11-12,1.0157497122515462,1.0157497122515462,0.0,0,False
2021-11-13,1.0157497122515462,1.0146030999368145,-0.11288335117418669,1,True
2021-11-14,1.0146030999368145,1.0146030999368145,0.0,0,False
2021-11-15,1.0146030999368145,1.0146030999368145,0.0,0,False
2021-11-16,1.0146030999368145,1.037082138493558,2.215549958219465,5,True
2021-11-17,1.037082138493558,1.0255496237867534,-1.112015555832102,0,True
2021-11-18,1.0255496237867534,1.0229007241543018,-0.2582907322095984,2,True
2021-11-19,1.0229007241543018,1.0294029521547636,0.6356655975424896,2,True
2021-11-20,1.0294029521547636,1.0299317539393995,0.05136975598611926,0,True
2021-11-21,1.0299317539393995,1.0299317539393995,0.0,0,False
2021-11-22,1.0299317539393995,1.0260342273076846,-0.37842571770481115,1,True
2021-11-23,1.0260342273076846,1.0260342273076846,0.0,0,False
2021-11-24,1.0260342273076846,1.0260342273076846,0.0,0,False
2021-11-25,1.0260342273076846,1.0286176012115102,0.2517824293839066,2,True
2021-11-26,1.0286176012115102,1.0064412208700069,-2.155940197346806,4,True
2021-11-27,1.0064412208700069,1.0064412208700069,0.0,0,False
2021-11-28,1.0064412208700069,1.0051869478059756,-0.12462457200898003,1,True
2021-11-29,1.0051869478059756,1.0051869478059756,0.0,0,False
2021-11-30,1.0051869478059756,1.0051869478059756,0.0,0,False
2021-12-01,1.0051869478059756,1.0051869478059756,0.0,0,False
2021-12-02,1.0051869478059756,1.0025239593294026,-0.26492469708102595,2,True
2021-12-03,1.0025239593294026,1.0002141121436765,-0.2304031902909509,1,True
2021-12-04,1.0002141121436765,0.9791064408945317,-2.1103152807858794,8,True
2021-12-05,0.9791064408945317,0.9795197452732679,0.04221240525785763,1,True
2021-12-06,0.9795197452732679,0.973464885536487,-0.618145756223798,7,True
2021-12-07,0.973464885536487,1.0006462466761217,2.7922282091001893,0,True
2021-12-08,1.0006462466761217,1.0042528729494533,0.3604297008370283,1,True
2021-12-09,1.0042528729494533,1.0027305152991663,-0.15159106747844042,0,True
2021-12-10,1.0027305152991663,0.9989912035880011,-0.3729129266650144,1,True
2021-12-11,0.9989912035880011,0.9961848240070424,-0.28092135054634815,1,True
2021-12-12,0.9961848240070424,0.9961848240070424,0.0,0,False
2021-12-13,0.9961848240070424,0.9929989009466816,-0.3198124468053787,1,True
2021-12-14,0.9929989009466816,0.9929989009466816,0.0,0,False
2021-12-15,0.9929989009466816,0.9929989009466816,0.0,0,False
2021-12-16,0.9929989009466816,0.9929989009466816,0.0,0,False
2021-12-17,0.9929989009466816,0.9935332779596376,0.05381446167227466,2,True
2021-12-18,0.9935332779596376,0.9964809708962896,0.2966878917941784,0,True
2021-12-19,0.9964809708962896,0.99199148113034,-0.45053442033233804,1,True
2021-12-20,0.99199148113034,0.99199148113034,0.0,0,False
2021-12-21,0.99199148113034,0.9893801837768402,-0.2632378808862579,1,True
2021-12-22,0.9893801837768402,0.98856075861241,-0.08282207162287891,0,True
2021-12-23,0.98856075861241,0.98856075861241,0.0,0,False
2021-12-24,0.98856075861241,0.98856075861241,0.0,0,False
2021-12-25,0.98856075861241,0.9906111574844694,0.20741252919420639,1,True
2021-12-26,0.9906111574844694,0.9906111574844694,0.0,0,False
2021-12-27,0.9906111574844694,0.9906111574844694,0.0,0,False
2021-12-28,0.9906111574844694,0.9906111574844694,0.0,0,False
2021-12-29,0.9906111574844694,0.9906111574844694,0.0,0,False
2021-12-30,0.9906111574844694,0.9906111574844694,0.0,0,False
2021-12-31,0.9906111574844694,0.9906111574844694,0.0,0,False
2022-01-01,0.9906111574844694,0.9906111574844694,0.0,0,False
2022-01-02,0.9906111574844694,0.9906111574844694,0.0,0,False
2022-01-03,0.9906111574844694,0.9906111574844694,0.0,0,False
2022-01-04,0.9906111574844694,0.9906111574844694,0.0,0,False
2022-01-05,0.9906111574844694,0.9917145106004587,0.1113810507435753,1,True
2022-01-06,0.9917145106004587,0.9704149498773442,-2.1477512424637357,5,True
2022-01-07,0.9704149498773442,0.9697125051147937,-0.0723860202936244,4,True
2022-01-08,0.9697125051147937,0.975392128614755,0.5857017899639105,0,True
2022-01-09,0.975392128614755,0.9760635087143223,0.06883181439252262,1,True
2022-01-10,0.9760635087143223,0.9775513331294416,0.15243110738552001,0,True
2022-01-11,0.9775513331294416,0.9775513331294416,0.0,0,False
2022-01-12,0.9775513331294416,0.9775513331294416,0.0,0,False
2022-01-13,0.9775513331294416,0.9775513331294416,0.0,0,False
2022-01-14,0.9775513331294416,0.9775513331294416,0.0,0,False
2022-01-15,0.9775513331294416,0.9780228298600132,0.048232426737349066,1,True
2022-01-16,0.9780228298600132,0.9770004784808386,-0.10453246570133468,0,True
2022-01-17,0.9770004784808386,0.9791866353578039,0.22376210914090144,1,True
2022-01-18,0.9791866353578039,0.9844976828353013,0.542393787427109,0,True
2022-01-19,0.9844976828353013,0.9844976828353013,0.0,0,False
2022-01-20,0.9844976828353013,0.9844976828353013,0.0,0,False
2022-01-21,0.9844976828353013,0.9612264510320163,-2.3637670467913208,7,True
2022-01-22,0.9612264510320163,0.941523074009094,-2.049816357193246,6,True
2022-01-23,0.941523074009094,0.941523074009094,0.0,0,False
2022-01-24,0.941523074009094,0.9387155625347094,-0.29818828150752763,2,True
2022-01-25,0.9387155625347094,0.9464617475522029,0.8251897940817488,0,True
2022-01-26,0.9464617475522029,0.9464617475522029,0.0,0,False
2022-01-27,0.9464617475522029,0.9515779633330365,0.5405623411686156,4,True
2022-01-28,0.9515779633330365,0.9482825361579819,-0.3463118422280309,0,True
2022-01-29,0.9482825361579819,0.9482825361579819,0.0,0,False
2022-01-30,0.9482825361579819,0.9516868840062394,0.3590014282083498,1,True
2022-01-31,0.9516868840062394,0.950476229002452,-0.12721148353868061,0,True
2022-02-01,0.950476229002452,0.950476229002452,0.0,0,False
2022-02-02,0.950476229002452,0.950476229002452,0.0,0,False
2022-02-03,0.950476229002452,0.9504556891838545,-0.0021610028710594698,3,True
2022-02-04,0.9504556891838545,0.9538298568798368,0.3550052605692411,0,True
2022-02-05,0.9538298568798368,0.9538298568798368,0.0,0,False
2022-02-06,0.9538298568798368,0.9538298568798368,0.0,0,False
2022-02-07,0.9538298568798368,0.9538298568798368,0.0,0,False
2022-02-08,0.9538298568798368,0.9538298568798368,0.0,0,False
2022-02-09,0.9538298568798368,0.9551064565538119,0.13383934931028296,2,True
2022-02-10,0.9551064565538119,0.9584167327431057,0.34658714393345225,5,True
2022-02-11,0.9584167327431057,0.9538272442633051,-0.47886147257308886,0,True
2022-02-12,0.9538272442633051,0.9443147518637988,-0.9972971999613445,4,True
2022-02-13,0.9443147518637988,0.9443147518637988,0.0,0,False
2022-02-14,0.9443147518637988,0.9443147518637988,0.0,0,False
2022-02-15,0.9443147518637988,0.9443147518637988,0.0,0,False
2022-02-16,0.9443147518637988,0.9443147518637988,0.0,0,False
2022-02-17,0.9443147518637988,0.9443147518637988,0.0,0,False
2022-02-18,0.9443147518637988,0.9443147518637988,0.0,0,False
2022-02-19,0.9443147518637988,0.9443147518637988,0.0,0,False
2022-02-20,0.9443147518637988,0.9443147518637988,0.0,0,False
2022-02-21,0.9443147518637988,0.9443147518637988,0.0,0,False
2022-02-22,0.9443147518637988,0.9442193935717289,-0.010098147030068727,2,True
2022-02-23,0.9442193935717289,0.9438175982114421,-0.04255317810906156,0,True
2022-02-24,0.9438175982114421,0.934410035833108,-0.9967564067635104,4,True
2022-02-25,0.934410035833108,0.934410035833108,0.0,0,False
2022-02-26,0.934410035833108,0.934410035833108,0.0,0,False
2022-02-27,0.934410035833108,0.934410035833108,0.0,0,False
2022-02-28,0.934410035833108,0.9356015841712467,0.12751878644756687,1,True
2022-03-01,0.9356015841712467,0.9370243954022636,0.15207447861229628,0,True
2022-03-02,0.9370243954022636,0.9370243954022636,0.0,0,False
2022-03-03,0.9370243954022636,0.9370243954022636,0.0,0,False
2022-03-04,0.9370243954022636,0.9357641138371702,-0.13449826613664007,1,True
2022-03-05,0.9357641138371702,0.9357641138371702,0.0,0,False
2022-03-06,0.9357641138371702,0.9327572232689882,-0.3213299723422769,3,True
2022-03-07,0.9327572232689882,0.9317653930572126,-0.10633315797862197,0,True
2022-03-08,0.9317653930572126,0.9323279067318891,0.060370741268989114,1,True
2022-03-09,0.9323279067318891,0.9366882230909506,0.4676805582647159,1,True
2022-03-10,0.9366882230909506,0.9358269964859244,-0.09194378490040567,3,True
2022-03-11,0.9358269964859244,0.9342185437648487,-0.1718750075724973,0,True
2022-03-12,0.9342185437648487,0.9342185437648487,0.0,0,False
2022-03-13,0.9342185437648487,0.9342185437648487,0.0,0,False
2022-03-14,0.9342185437648487,0.9323721229756688,-0.19764334603538103,1,True
2022-03-15,0.9323721229756688,0.9328811460761637,0.05459441439221724,1,True
2022-03-16,0.9328811460761637,0.9341787016302664,0.13909119715416196,1,True
2022-03-17,0.9341787016302664,0.9321992044409624,-0.2118970584374824,1,True
2022-03-18,0.9321992044409624,0.9318370977983563,-0.03884434151852911,0,True
2022-03-19,0.9318370977983563,0.9318370977983563,0.0,0,False
2022-03-20,0.9318370977983563,0.9299820807814869,-0.19907095577673672,1,True
2022-03-21,0.9299820807814869,0.9289743949476031,-0.10835540326078474,3,True
2022-03-22,0.9289743949476031,0.9289743949476031,0.0,0,False
2022-03-23,0.9289743949476031,0.9289743949476031,0.0,0,False
2022-03-24,0.9289743949476031,0.9289743949476031,0.0,0,False
2022-03-25,0.9289743949476031,0.9289743949476031,0.0,0,False
2022-03-26,0.9289743949476031,0.9289743949476031,0.0,0,False
2022-03-27,0.9289743949476031,0.9289743949476031,0.0,0,False
2022-03-28,0.9289743949476031,0.9289743949476031,0.0,0,False
2022-03-29,0.9289743949476031,0.9289743949476031,0.0,0,False
2022-03-30,0.9289743949476031,0.9279371610010674,-0.11165366367221763,4,True
2022-03-31,0.9279371610010674,0.9293509870804165,0.1523622653309742,5,True
2022-04-01,0.9293509870804165,0.9208355848040628,-0.916274087479596,0,True
2022-04-02,0.9208355848040628,0.9208355848040628,0.0,0,False
2022-04-03,0.9208355848040628,0.9190648852050173,-0.1922926989645246,1,True
2022-04-04,0.9190648852050173,0.9190648852050173,0.0,0,False
2022-04-05,0.9190648852050173,0.91950410529177,0.047789888812332926,3,True
2022-04-06,0.91950410529177,0.9113559430570404,-0.8861474557684601,9,True
2022-04-07,0.9113559430570404,0.9130147891219138,0.18201955860506214,1,True
2022-04-08,0.9130147891219138,0.9150708501212522,0.22519470920243645,0,True
2022-04-09,0.9150708501212522,0.9150708501212522,0.0,0,False
2022-04-10,0.9150708501212522,0.9150708501212522,0.0,0,False
2022-04-11,0.9150708501212522,0.911227435783501,-0.42001276045914304,6,True
2022-04-12,0.911227435783501,0.9074136421050771,-0.4185336754204072,0,True
2022-04-13,0.9074136421050771,0.9074136421050771,0.0,0,False
2022-04-14,0.9074136421050771,0.9074136421050771,0.0,0,False
2022-04-15,0.9074136421050771,0.9074136421050771,0.0,0,False
2022-04-16,0.9074136421050771,0.9074136421050771,0.0,0,False
2022-04-17,0.9074136421050771,0.9077600034050144,0.038170166709616815,1,True
2022-04-18,0.9077600034050144,0.9089749388945175,0.1338388434108051,6,True
2022-04-19,0.9089749388945175,0.9144061974353586,0.5975146627745787,0,True
2022-04-20,0.9144061974353586,0.9144061974353586,0.0,0,False
2022-04-21,0.9144061974353586,0.9156806997683784,0.13938032535152356,2,True
2022-04-22,0.9156806997683784,0.9133920483759433,-0.24993989640864633,0,True
2022-04-23,0.9133920483759433,0.9133920483759433,0.0,0,False
2022-04-24,0.9133920483759433,0.9133920483759433,0.0,0,False
2022-04-25,0.9133920483759433,0.9113361253764753,-0.22508658829727413,3,True
2022-04-26,0.9113361253764753,0.9092825613269131,-0.22533552576047278,2,True
2022-04-27,0.9092825613269131,0.9091288317783844,-0.016906686113538072,0,True
2022-04-28,0.9091288317783844,0.9091288317783844,0.0,0,False
2022-04-29,0.9091288317783844,0.9091288317783844,0.0,0,False
2022-04-30,0.9091288317783844,0.9080594402647818,-0.11762815964275752,1,True
2022-05-01,0.9080594402647818,0.9119098577258229,0.4240270284419312,6,True
2022-05-02,0.9119098577258229,0.912837511814042,0.10172651171165281,0,True
2022-05-03,0.912837511814042,0.9134596887694172,0.06815856571655843,3,True
2022-05-04,0.9134596887694172,0.9096110472618597,-0.42132581819152026,1,True
2022-05-05,0.9096110472618597,0.9096110472618597,0.0,0,False
2022-05-06,0.9096110472618597,0.9032533228187599,-0.6989497832329605,6,True
2022-05-07,0.9032533228187599,0.8986746737230993,-0.5069064214867414,2,True
2022-05-08,0.8986746737230993,0.8978420232753818,-0.09265315603786961,1,True
2022-05-09,0.8978420232753818,0.8978420232753818,0.0,0,False
2022-05-10,0.8978420232753818,0.8978420232753818,0.0,0,False
2022-05-11,0.8978420232753818,0.8978420232753818,0.0,0,False
2022-05-12,0.8978420232753818,0.8978420232753818,0.0,0,False
2022-05-13,0.8978420232753818,0.8978420232753818,0.0,0,False
2022-05-14,0.8978420232753818,0.8978420232753818,0.0,0,False
2022-05-15,0.8978420232753818,0.8978420232753818,0.0,0,False
2022-05-16,0.8978420232753818,0.8978420232753818,0.0,0,False
2022-05-17,0.8978420232753818,0.8978420232753818,0.0,0,False
2022-05-18,0.8978420232753818,0.8978420232753818,0.0,0,False
2022-05-19,0.8978420232753818,0.8978420232753818,0.0,0,False
2022-05-20,0.8978420232753818,0.8978420232753818,0.0,0,False
2022-05-21,0.8978420232753818,0.8978420232753818,0.0,0,False
2022-05-22,0.8978420232753818,0.8978420232753818,0.0,0,False
2022-05-23,0.8978420232753818,0.8978420232753818,0.0,0,False
2022-05-24,0.8978420232753818,0.8978420232753818,0.0,0,False
2022-05-25,0.8978420232753818,0.8978420232753818,0.0,0,False
2022-05-26,0.8978420232753818,0.8978420232753818,0.0,0,False
2022-05-27,0.8978420232753818,0.8978420232753818,0.0,0,False
2022-05-28,0.8978420232753818,0.8978420232753818,0.0,0,False
2022-05-29,0.8978420232753818,0.8978420232753818,0.0,0,False
2022-05-30,0.8978420232753818,0.8978420232753818,0.0,0,False
2022-05-31,0.8978420232753818,0.8978420232753818,0.0,0,False
2022-06-01,0.8978420232753818,0.8978420232753818,0.0,0,False
2022-06-02,0.8978420232753818,0.8978420232753818,0.0,0,False
2022-06-03,0.8978420232753818,0.8978420232753818,0.0,0,False
2022-06-04,0.8978420232753818,0.8978420232753818,0.0,0,False
2022-06-05,0.8978420232753818,0.8978420232753818,0.0,0,False
2022-06-06,0.8978420232753818,0.8978420232753818,0.0,0,False
2022-06-07,0.8978420232753818,0.8978420232753818,0.0,0,False
2022-06-08,0.8978420232753818,0.8978420232753818,0.0,0,False
2022-06-09,0.8978420232753818,0.8978420232753818,0.0,0,False
2022-06-10,0.8978420232753818,0.8978420232753818,0.0,0,False
2022-06-11,0.8978420232753818,0.8978420232753818,0.0,0,False
2022-06-12,0.8978420232753818,0.8978420232753818,0.0,0,False
2022-06-13,0.8978420232753818,0.8978420232753818,0.0,0,False
2022-06-14,0.8978420232753818,0.8978420232753818,0.0,0,False
2022-06-15,0.8978420232753818,0.8978420232753818,0.0,0,False
2022-06-16,0.8978420232753818,0.8978420232753818,0.0,0,False
2022-06-17,0.8978420232753818,0.8978420232753818,0.0,0,False
2022-06-18,0.8978420232753818,0.8978420232753818,0.0,0,False
2022-06-19,0.8978420232753818,0.8978420232753818,0.0,0,False
2022-06-20,0.8978420232753818,0.8978420232753818,0.0,0,False
2022-06-21,0.8978420232753818,0.8978420232753818,0.0,0,False
2022-06-22,0.8978420232753818,0.8978420232753818,0.0,0,False
2022-06-23,0.8978420232753818,0.8978420232753818,0.0,0,False
2022-06-24,0.8978420232753818,0.8978420232753818,0.0,0,False
2022-06-25,0.8978420232753818,0.8978420232753818,0.0,0,False
2022-06-26,0.8978420232753818,0.8978420232753818,0.0,0,False
2022-06-27,0.8978420232753818,0.8978420232753818,0.0,0,False
2022-06-28,0.8978420232753818,0.8978420232753818,0.0,0,False
2022-06-29,0.8978420232753818,0.8978420232753818,0.0,0,False
2022-06-30,0.8978420232753818,0.8978420232753818,0.0,0,False
2022-07-01,0.8978420232753818,0.8978420232753818,0.0,0,False
2022-07-02,0.8978420232753818,0.8978420232753818,0.0,0,False
2022-07-03,0.8978420232753818,0.8978420232753818,0.0,0,False
2022-07-04,0.8978420232753818,0.8978420232753818,0.0,0,False
2022-07-05,0.8978420232753818,0.8978420232753818,0.0,0,False
2022-07-06,0.8978420232753818,0.8978420232753818,0.0,0,False
2022-07-07,0.8978420232753818,0.8978420232753818,0.0,0,False
2022-07-08,0.8978420232753818,0.8978420232753818,0.0,0,False
2022-07-09,0.8978420232753818,0.8978420232753818,0.0,0,False
2022-07-10,0.8978420232753818,0.8978420232753818,0.0,0,False
2022-07-11,0.8978420232753818,0.8978420232753818,0.0,0,False
2022-07-12,0.8978420232753818,0.8978420232753818,0.0,0,False
2022-07-13,0.8978420232753818,0.8978420232753818,0.0,0,False
2022-07-14,0.8978420232753818,0.8978420232753818,0.0,0,False
2022-07-15,0.8978420232753818,0.8978420232753818,0.0,0,False
2022-07-16,0.8978420232753818,0.8978420232753818,0.0,0,False
2022-07-17,0.8978420232753818,0.8978420232753818,0.0,0,False
2022-07-18,0.8978420232753818,0.8978420232753818,0.0,0,False
2022-07-19,0.8978420232753818,0.8978420232753818,0.0,0,False
2022-07-20,0.8978420232753818,0.8978420232753818,0.0,0,False
2022-07-21,0.8978420232753818,0.8978420232753818,0.0,0,False
2022-07-22,0.8978420232753818,0.8978420232753818,0.0,0,False
2022-07-23,0.8978420232753818,0.8978420232753818,0.0,0,False
2022-07-24,0.8978420232753818,0.8978420232753818,0.0,0,False
2022-07-25,0.8978420232753818,0.8978420232753818,0.0,0,False
2022-07-26,0.8978420232753818,0.8978420232753818,0.0,0,False
2022-07-27,0.8978420232753818,0.8978420232753818,0.0,0,False
2022-07-28,0.8978420232753818,0.8978420232753818,0.0,0,False
2022-07-29,0.8978420232753818,0.8978420232753818,0.0,0,False
2022-07-30,0.8978420232753818,0.8978420232753818,0.0,0,False
2022-07-31,0.8978420232753818,0.8978420232753818,0.0,0,False
2022-08-01,0.8978420232753818,0.8978420232753818,0.0,0,False
2022-08-02,0.8978420232753818,0.8978420232753818,0.0,0,False
2022-08-03,0.8978420232753818,0.8978420232753818,0.0,0,False
2022-08-04,0.8978420232753818,0.8978420232753818,0.0,0,False
2022-08-05,0.8978420232753818,0.8978420232753818,0.0,0,False
2022-08-06,0.8978420232753818,0.8978420232753818,0.0,0,False
2022-08-07,0.8978420232753818,0.8978420232753818,0.0,0,False
2022-08-08,0.8978420232753818,0.8978420232753818,0.0,0,False
2022-08-09,0.8978420232753818,0.8978420232753818,0.0,0,False
2022-08-10,0.8978420232753818,0.8978420232753818,0.0,0,False
2022-08-11,0.8978420232753818,0.8978420232753818,0.0,0,False
2022-08-12,0.8978420232753818,0.8978420232753818,0.0,0,False
2022-08-13,0.8978420232753818,0.8978420232753818,0.0,0,False
2022-08-14,0.8978420232753818,0.8978420232753818,0.0,0,False
2022-08-15,0.8978420232753818,0.8978420232753818,0.0,0,False
2022-08-16,0.8978420232753818,0.8978420232753818,0.0,0,False
2022-08-17,0.8978420232753818,0.8978420232753818,0.0,0,False
2022-08-18,0.8978420232753818,0.8978420232753818,0.0,0,False
2022-08-19,0.8978420232753818,0.8978420232753818,0.0,0,False
2022-08-20,0.8978420232753818,0.8978420232753818,0.0,0,False
2022-08-21,0.8978420232753818,0.8978420232753818,0.0,0,False
2022-08-22,0.8978420232753818,0.8978420232753818,0.0,0,False
2022-08-23,0.8978420232753818,0.8978420232753818,0.0,0,False
2022-08-24,0.8978420232753818,0.8978420232753818,0.0,0,False
2022-08-25,0.8978420232753818,0.8978420232753818,0.0,0,False
2022-08-26,0.8978420232753818,0.8978420232753818,0.0,0,False
2022-08-27,0.8978420232753818,0.8978420232753818,0.0,0,False
2022-08-28,0.8978420232753818,0.8978420232753818,0.0,0,False
2022-08-29,0.8978420232753818,0.8978420232753818,0.0,0,False
2022-08-30,0.8978420232753818,0.8978420232753818,0.0,0,False
2022-08-31,0.8978420232753818,0.8978420232753818,0.0,0,False
2022-09-01,0.8978420232753818,0.8978420232753818,0.0,0,False
2022-09-02,0.8978420232753818,0.8978420232753818,0.0,0,False
2022-09-03,0.8978420232753818,0.8978420232753818,0.0,0,False
2022-09-04,0.8978420232753818,0.8978420232753818,0.0,0,False
2022-09-05,0.8978420232753818,0.8978420232753818,0.0,0,False
2022-09-06,0.8978420232753818,0.8978420232753818,0.0,0,False
2022-09-07,0.8978420232753818,0.8978420232753818,0.0,0,False
2022-09-08,0.8978420232753818,0.8978420232753818,0.0,0,False
2022-09-09,0.8978420232753818,0.8978420232753818,0.0,0,False
2022-09-10,0.8978420232753818,0.8978420232753818,0.0,0,False
2022-09-11,0.8978420232753818,0.8978420232753818,0.0,0,False
2022-09-12,0.8978420232753818,0.8978420232753818,0.0,0,False
2022-09-13,0.8978420232753818,0.8978420232753818,0.0,0,False
2022-09-14,0.8978420232753818,0.8978420232753818,0.0,0,False
2022-09-15,0.8978420232753818,0.8978420232753818,0.0,0,False
2022-09-16,0.8978420232753818,0.8978420232753818,0.0,0,False
2022-09-17,0.8978420232753818,0.8978420232753818,0.0,0,False
2022-09-18,0.8978420232753818,0.8978420232753818,0.0,0,False
2022-09-19,0.8978420232753818,0.8978420232753818,0.0,0,False
2022-09-20,0.8978420232753818,0.8978420232753818,0.0,0,False
2022-09-21,0.8978420232753818,0.8978420232753818,0.0,0,False
2022-09-22,0.8978420232753818,0.8978420232753818,0.0,0,False
2022-09-23,0.8978420232753818,0.8978420232753818,0.0,0,False
2022-09-24,0.8978420232753818,0.8978420232753818,0.0,0,False
2022-09-25,0.8978420232753818,0.8978420232753818,0.0,0,False
2022-09-26,0.8978420232753818,0.8978420232753818,0.0,0,False
2022-09-27,0.8978420232753818,0.8978420232753818,0.0,0,False
2022-09-28,0.8978420232753818,0.8978420232753818,0.0,0,False
2022-09-29,0.8978420232753818,0.8978420232753818,0.0,0,False
2022-09-30,0.8978420232753818,0.8978420232753818,0.0,0,False
2022-10-01,0.8978420232753818,0.8978420232753818,0.0,0,False
2022-10-02,0.8978420232753818,0.8978420232753818,0.0,0,False
2022-10-03,0.8978420232753818,0.8978420232753818,0.0,0,False
2022-10-04,0.8978420232753818,0.8978420232753818,0.0,0,False
2022-10-05,0.8978420232753818,0.8978420232753818,0.0,0,False
2022-10-06,0.8978420232753818,0.8978420232753818,0.0,0,False
2022-10-07,0.8978420232753818,0.8978420232753818,0.0,0,False
2022-10-08,0.8978420232753818,0.8978420232753818,0.0,0,False
2022-10-09,0.8978420232753818,0.8978420232753818,0.0,0,False
2022-10-10,0.8978420232753818,0.8978420232753818,0.0,0,False
2022-10-11,0.8978420232753818,0.8978420232753818,0.0,0,False
2022-10-12,0.8978420232753818,0.8978420232753818,0.0,0,False
2022-10-13,0.8978420232753818,0.8978420232753818,0.0,0,False
2022-10-14,0.8978420232753818,0.8978420232753818,0.0,0,False
2022-10-15,0.8978420232753818,0.8978420232753818,0.0,0,False
2022-10-16,0.8978420232753818,0.8978420232753818,0.0,0,False
2022-10-17,0.8978420232753818,0.8978420232753818,0.0,0,False
2022-10-18,0.8978420232753818,0.8978420232753818,0.0,0,False
2022-10-19,0.8978420232753818,0.8978420232753818,0.0,0,False
2022-10-20,0.8978420232753818,0.8978420232753818,0.0,0,False
2022-10-21,0.8978420232753818,0.8978420232753818,0.0,0,False
2022-10-22,0.8978420232753818,0.8978420232753818,0.0,0,False
2022-10-23,0.8978420232753818,0.8978420232753818,0.0,0,False
2022-10-24,0.8978420232753818,0.8978420232753818,0.0,0,False
2022-10-25,0.8978420232753818,0.8978420232753818,0.0,0,False
2022-10-26,0.8978420232753818,0.8978420232753818,0.0,0,False
2022-10-27,0.8978420232753818,0.8978420232753818,0.0,0,False
2022-10-28,0.8978420232753818,0.8978420232753818,0.0,0,False
2022-10-29,0.8978420232753818,0.8978420232753818,0.0,0,False
2022-10-30,0.8978420232753818,0.8978420232753818,0.0,0,False
2022-10-31,0.8978420232753818,0.8978420232753818,0.0,0,False
2022-11-01,0.8978420232753818,0.8978420232753818,0.0,0,False
2022-11-02,0.8978420232753818,0.8978420232753818,0.0,0,False
2022-11-03,0.8978420232753818,0.8978420232753818,0.0,0,False
2022-11-04,0.8978420232753818,0.8978420232753818,0.0,0,False
2022-11-05,0.8978420232753818,0.8978420232753818,0.0,0,False
2022-11-06,0.8978420232753818,0.8978420232753818,0.0,0,False
2022-11-07,0.8978420232753818,0.8978420232753818,0.0,0,False
2022-11-08,0.8978420232753818,0.8978420232753818,0.0,0,False
2022-11-09,0.8978420232753818,0.8978420232753818,0.0,0,False
2022-11-10,0.8978420232753818,0.8978420232753818,0.0,0,False
2022-11-11,0.8978420232753818,0.8978420232753818,0.0,0,False
2022-11-12,0.8978420232753818,0.8978420232753818,0.0,0,False
2022-11-13,0.8978420232753818,0.8978420232753818,0.0,0,False
2022-11-14,0.8978420232753818,0.8978420232753818,0.0,0,False
2022-11-15,0.8978420232753818,0.8978420232753818,0.0,0,False
2022-11-16,0.8978420232753818,0.8978420232753818,0.0,0,False
2022-11-17,0.8978420232753818,0.8978420232753818,0.0,0,False
2022-11-18,0.8978420232753818,0.8978420232753818,0.0,0,False
2022-11-19,0.8978420232753818,0.8978420232753818,0.0,0,False
2022-11-20,0.8978420232753818,0.8978420232753818,0.0,0,False
2022-11-21,0.8978420232753818,0.8978420232753818,0.0,0,False
2022-11-22,0.8978420232753818,0.8978420232753818,0.0,0,False
2022-11-23,0.8978420232753818,0.8978420232753818,0.0,0,False
2022-11-24,0.8978420232753818,0.8978420232753818,0.0,0,False
2022-11-25,0.8978420232753818,0.8978420232753818,0.0,0,False
2022-11-26,0.8978420232753818,0.8978420232753818,0.0,0,False
2022-11-27,0.8978420232753818,0.8978420232753818,0.0,0,False
2022-11-28,0.8978420232753818,0.8978420232753818,0.0,0,False
2022-11-29,0.8978420232753818,0.8978420232753818,0.0,0,False
2022-11-30,0.8978420232753818,0.8978420232753818,0.0,0,False
2022-12-01,0.8978420232753818,0.8978420232753818,0.0,0,False
2022-12-02,0.8978420232753818,0.8978420232753818,0.0,0,False
2022-12-03,0.8978420232753818,0.8978420232753818,0.0,0,False
2022-12-04,0.8978420232753818,0.8978420232753818,0.0,0,False
2022-12-05,0.8978420232753818,0.8978420232753818,0.0,0,False
2022-12-06,0.8978420232753818,0.8978420232753818,0.0,0,False
2022-12-07,0.8978420232753818,0.8978420232753818,0.0,0,False
2022-12-08,0.8978420232753818,0.8978420232753818,0.0,0,False
2022-12-09,0.8978420232753818,0.8978420232753818,0.0,0,False
2022-12-10,0.8978420232753818,0.8978420232753818,0.0,0,False
2022-12-11,0.8978420232753818,0.8978420232753818,0.0,0,False
2022-12-12,0.8978420232753818,0.8978420232753818,0.0,0,False
2022-12-13,0.8978420232753818,0.8978420232753818,0.0,0,False
2022-12-14,0.8978420232753818,0.8978420232753818,0.0,0,False
2022-12-15,0.8978420232753818,0.8978420232753818,0.0,0,False
2022-12-16,0.8978420232753818,0.8978420232753818,0.0,0,False
2022-12-17,0.8978420232753818,0.8978420232753818,0.0,0,False
2022-12-18,0.8978420232753818,0.8978420232753818,0.0,0,False
2022-12-19,0.8978420232753818,0.8978420232753818,0.0,0,False
2022-12-20,0.8978420232753818,0.8978420232753818,0.0,0,False
2022-12-21,0.8978420232753818,0.8978420232753818,0.0,0,False
2022-12-22,0.8978420232753818,0.8978420232753818,0.0,0,False
2022-12-23,0.8978420232753818,0.8978420232753818,0.0,0,False
2022-12-24,0.8978420232753818,0.8978420232753818,0.0,0,False
2022-12-25,0.8978420232753818,0.8978420232753818,0.0,0,False
2022-12-26,0.8978420232753818,0.8978420232753818,0.0,0,False
2022-12-27,0.8978420232753818,0.8978420232753818,0.0,0,False
2022-12-28,0.8978420232753818,0.8978420232753818,0.0,0,False
2022-12-29,0.8978420232753818,0.8978420232753818,0.0,0,False
2022-12-30,0.8978420232753818,0.8978420232753818,0.0,0,False
2022-12-31,0.8978420232753818,0.8978420232753818,0.0,0,False
2023-01-01,0.8978420232753818,0.8978420232753818,0.0,0,False
2023-01-02,0.8978420232753818,0.8978420232753818,0.0,0,False
2023-01-03,0.8978420232753818,0.8978420232753818,0.0,0,False
2023-01-04,0.8978420232753818,0.8978420232753818,0.0,0,False
2023-01-05,0.8978420232753818,0.8978420232753818,0.0,0,False
2023-01-06,0.8978420232753818,0.8978420232753818,0.0,0,False
2023-01-07,0.8978420232753818,0.8978420232753818,0.0,0,False
2023-01-08,0.8978420232753818,0.8978420232753818,0.0,0,False
2023-01-09,0.8978420232753818,0.8978420232753818,0.0,0,False
2023-01-10,0.8978420232753818,0.8978420232753818,0.0,0,False
2023-01-11,0.8978420232753818,0.8978420232753818,0.0,0,False
2023-01-12,0.8978420232753818,0.8978420232753818,0.0,0,False
2023-01-13,0.8978420232753818,0.8978420232753818,0.0,0,False
2023-01-14,0.8978420232753818,0.8978420232753818,0.0,0,False
2023-01-15,0.8978420232753818,0.8978420232753818,0.0,0,False
2023-01-16,0.8978420232753818,0.8978420232753818,0.0,0,False
2023-01-17,0.8978420232753818,0.8978420232753818,0.0,0,False
2023-01-18,0.8978420232753818,0.8978420232753818,0.0,0,False
2023-01-19,0.8978420232753818,0.8978420232753818,0.0,0,False
2023-01-20,0.8978420232753818,0.8978420232753818,0.0,0,False
2023-01-21,0.8978420232753818,0.8978420232753818,0.0,0,False
2023-01-22,0.8978420232753818,0.8978420232753818,0.0,0,False
2023-01-23,0.8978420232753818,0.8978420232753818,0.0,0,False
2023-01-24,0.8978420232753818,0.8978420232753818,0.0,0,False
2023-01-25,0.8978420232753818,0.8978420232753818,0.0,0,False
2023-01-26,0.8978420232753818,0.8978420232753818,0.0,0,False
2023-01-27,0.8978420232753818,0.8978420232753818,0.0,0,False
2023-01-28,0.8978420232753818,0.8978420232753818,0.0,0,False
2023-01-29,0.8978420232753818,0.8978420232753818,0.0,0,False
2023-01-30,0.8978420232753818,0.8978420232753818,0.0,0,False
2023-01-31,0.8978420232753818,0.8978420232753818,0.0,0,False
2023-02-01,0.8978420232753818,0.8978420232753818,0.0,0,False
2023-02-02,0.8978420232753818,0.8978420232753818,0.0,0,False
2023-02-03,0.8978420232753818,0.8978420232753818,0.0,0,False
2023-02-04,0.8978420232753818,0.8978420232753818,0.0,0,False
2023-02-05,0.8978420232753818,0.8978420232753818,0.0,0,False
2023-02-06,0.8978420232753818,0.8978420232753818,0.0,0,False
2023-02-07,0.8978420232753818,0.8978420232753818,0.0,0,False
2023-02-08,0.8978420232753818,0.8978420232753818,0.0,0,False
2023-02-09,0.8978420232753818,0.8978420232753818,0.0,0,False
2023-02-10,0.8978420232753818,0.8978420232753818,0.0,0,False
2023-02-11,0.8978420232753818,0.8978420232753818,0.0,0,False
2023-02-12,0.8978420232753818,0.8978420232753818,0.0,0,False
2023-02-13,0.8978420232753818,0.8978420232753818,0.0,0,False
2023-02-14,0.8978420232753818,0.8978420232753818,0.0,0,False
2023-02-15,0.8978420232753818,0.8978420232753818,0.0,0,False
2023-02-16,0.8978420232753818,0.8978420232753818,0.0,0,False
2023-02-17,0.8978420232753818,0.8978420232753818,0.0,0,False
2023-02-18,0.8978420232753818,0.8978420232753818,0.0,0,False
2023-02-19,0.8978420232753818,0.8978420232753818,0.0,0,False
2023-02-20,0.8978420232753818,0.8978420232753818,0.0,0,False
2023-02-21,0.8978420232753818,0.8978420232753818,0.0,0,False
2023-02-22,0.8978420232753818,0.8978420232753818,0.0,0,False
2023-02-23,0.8978420232753818,0.8978420232753818,0.0,0,False
2023-02-24,0.8978420232753818,0.8978420232753818,0.0,0,False
2023-02-25,0.8978420232753818,0.8978420232753818,0.0,0,False
2023-02-26,0.8978420232753818,0.8978420232753818,0.0,0,False
2023-02-27,0.8978420232753818,0.8978420232753818,0.0,0,False
2023-02-28,0.8978420232753818,0.8978420232753818,0.0,0,False
2023-03-01,0.8978420232753818,0.8978420232753818,0.0,0,False
2023-03-02,0.8978420232753818,0.8978420232753818,0.0,0,False
2023-03-03,0.8978420232753818,0.8978420232753818,0.0,0,False
2023-03-04,0.8978420232753818,0.8978420232753818,0.0,0,False
2023-03-05,0.8978420232753818,0.8978420232753818,0.0,0,False
2023-03-06,0.8978420232753818,0.8978420232753818,0.0,0,False
2023-03-07,0.8978420232753818,0.8978420232753818,0.0,0,False
2023-03-08,0.8978420232753818,0.8978420232753818,0.0,0,False
2023-03-09,0.8978420232753818,0.8978420232753818,0.0,0,False
2023-03-10,0.8978420232753818,0.8978420232753818,0.0,0,False
2023-03-11,0.8978420232753818,0.8978420232753818,0.0,0,False
2023-03-12,0.8978420232753818,0.8978420232753818,0.0,0,False
2023-03-13,0.8978420232753818,0.8978420232753818,0.0,0,False
2023-03-14,0.8978420232753818,0.8978420232753818,0.0,0,False
2023-03-15,0.8978420232753818,0.8978420232753818,0.0,0,False
2023-03-16,0.8978420232753818,0.8978420232753818,0.0,0,False
2023-03-17,0.8978420232753818,0.8978420232753818,0.0,0,False
2023-03-18,0.8978420232753818,0.8978420232753818,0.0,0,False
2023-03-19,0.8978420232753818,0.8978420232753818,0.0,0,False
2023-03-20,0.8978420232753818,0.8978420232753818,0.0,0,False
2023-03-21,0.8978420232753818,0.8978420232753818,0.0,0,False
2023-03-22,0.8978420232753818,0.8978420232753818,0.0,0,False
2023-03-23,0.8978420232753818,0.8978420232753818,0.0,0,False
2023-03-24,0.8978420232753818,0.8978420232753818,0.0,0,False
2023-03-25,0.8978420232753818,0.8978420232753818,0.0,0,False
2023-03-26,0.8978420232753818,0.8978420232753818,0.0,0,False
2023-03-27,0.8978420232753818,0.8978420232753818,0.0,0,False
2023-03-28,0.8978420232753818,0.8978420232753818,0.0,0,False
2023-03-29,0.8978420232753818,0.8978420232753818,0.0,0,False
2023-03-30,0.8978420232753818,0.8978420232753818,0.0,0,False
2023-03-31,0.8978420232753818,0.8978420232753818,0.0,0,False
2023-04-01,0.8978420232753818,0.8978420232753818,0.0,0,False
2023-04-02,0.8978420232753818,0.8978420232753818,0.0,0,False
2023-04-03,0.8978420232753818,0.8978420232753818,0.0,0,False
2023-04-04,0.8978420232753818,0.8978420232753818,0.0,0,False
2023-04-05,0.8978420232753818,0.8978420232753818,0.0,0,False
2023-04-06,0.8978420232753818,0.8978420232753818,0.0,0,False
2023-04-07,0.8978420232753818,0.8978420232753818,0.0,0,False
2023-04-08,0.8978420232753818,0.8978420232753818,0.0,0,False
2023-04-09,0.8978420232753818,0.8978420232753818,0.0,0,False
2023-04-10,0.8978420232753818,0.8978420232753818,0.0,0,False
2023-04-11,0.8978420232753818,0.8978420232753818,0.0,0,False
2023-04-12,0.8978420232753818,0.8978420232753818,0.0,0,False
2023-04-13,0.8978420232753818,0.8978420232753818,0.0,0,False
2023-04-14,0.8978420232753818,0.8978420232753818,0.0,0,False
2023-04-15,0.8978420232753818,0.8978420232753818,0.0,0,False
2023-04-16,0.8978420232753818,0.8978420232753818,0.0,0,False
2023-04-17,0.8978420232753818,0.8978420232753818,0.0,0,False
2023-04-18,0.8978420232753818,0.8978420232753818,0.0,0,False
2023-04-19,0.8978420232753818,0.8978420232753818,0.0,0,False
2023-04-20,0.8978420232753818,0.8978420232753818,0.0,0,False
2023-04-21,0.8978420232753818,0.8978420232753818,0.0,0,False
2023-04-22,0.8978420232753818,0.8978420232753818,0.0,0,False
2023-04-23,0.8978420232753818,0.8978420232753818,0.0,0,False
2023-04-24,0.8978420232753818,0.8978420232753818,0.0,0,False
2023-04-25,0.8978420232753818,0.8978420232753818,0.0,0,False
2023-04-26,0.8978420232753818,0.8978420232753818,0.0,0,False
2023-04-27,0.8978420232753818,0.8978420232753818,0.0,0,False
2023-04-28,0.8978420232753818,0.8978420232753818,0.0,0,False
2023-04-29,0.8978420232753818,0.8978420232753818,0.0,0,False
2023-04-30,0.8978420232753818,0.8978420232753818,0.0,0,False
2023-05-01,0.8978420232753818,0.8978420232753818,0.0,0,False
2023-05-02,0.8978420232753818,0.8978420232753818,0.0,0,False
2023-05-03,0.8978420232753818,0.8978420232753818,0.0,0,False
2023-05-04,0.8978420232753818,0.8978420232753818,0.0,0,False
2023-05-05,0.8978420232753818,0.8978420232753818,0.0,0,False
2023-05-06,0.8978420232753818,0.8978420232753818,0.0,0,False
2023-05-07,0.8978420232753818,0.8978420232753818,0.0,0,False
2023-05-08,0.8978420232753818,0.8978420232753818,0.0,0,False
2023-05-09,0.8978420232753818,0.8978420232753818,0.0,0,False
2023-05-10,0.8978420232753818,0.8978420232753818,0.0,0,False
2023-05-11,0.8978420232753818,0.8978420232753818,0.0,0,False
2023-05-12,0.8978420232753818,0.8978420232753818,0.0,0,False
2023-05-13,0.8978420232753818,0.8978420232753818,0.0,0,False
2023-05-14,0.8978420232753818,0.8978420232753818,0.0,0,False
2023-05-15,0.8978420232753818,0.8978420232753818,0.0,0,False
2023-05-16,0.8978420232753818,0.8978420232753818,0.0,0,False
2023-05-17,0.8978420232753818,0.8978420232753818,0.0,0,False
2023-05-18,0.8978420232753818,0.8978420232753818,0.0,0,False
2023-05-19,0.8978420232753818,0.8978420232753818,0.0,0,False
2023-05-20,0.8978420232753818,0.8978420232753818,0.0,0,False
2023-05-21,0.8978420232753818,0.8978420232753818,0.0,0,False
2023-05-22,0.8978420232753818,0.8978420232753818,0.0,0,False
2023-05-23,0.8978420232753818,0.8978420232753818,0.0,0,False
2023-05-24,0.8978420232753818,0.8978420232753818,0.0,0,False
2023-05-25,0.8978420232753818,0.8978420232753818,0.0,0,False
2023-05-26,0.8978420232753818,0.8978420232753818,0.0,0,False
2023-05-27,0.8978420232753818,0.8978420232753818,0.0,0,False
2023-05-28,0.8978420232753818,0.8978420232753818,0.0,0,False
2023-05-29,0.8978420232753818,0.8978420232753818,0.0,0,False
2023-05-30,0.8978420232753818,0.8978420232753818,0.0,0,False
2023-05-31,0.8978420232753818,0.8978420232753818,0.0,0,False
2023-06-01,0.8978420232753818,0.8978420232753818,0.0,0,False
2023-06-02,0.8978420232753818,0.8978420232753818,0.0,0,False
2023-06-03,0.8978420232753818,0.8978420232753818,0.0,0,False
2023-06-04,0.8978420232753818,0.8978420232753818,0.0,0,False
2023-06-05,0.8978420232753818,0.8978420232753818,0.0,0,False
2023-06-06,0.8978420232753818,0.8978420232753818,0.0,0,False
2023-06-07,0.8978420232753818,0.8978420232753818,0.0,0,False
2023-06-08,0.8978420232753818,0.8978420232753818,0.0,0,False
2023-06-09,0.8978420232753818,0.8978420232753818,0.0,0,False
2023-06-10,0.8978420232753818,0.8978420232753818,0.0,0,False
2023-06-11,0.8978420232753818,0.8978420232753818,0.0,0,False
2023-06-12,0.8978420232753818,0.8978420232753818,0.0,0,False
2023-06-13,0.8978420232753818,0.8978420232753818,0.0,0,False
2023-06-14,0.8978420232753818,0.8978420232753818,0.0,0,False
2023-06-15,0.8978420232753818,0.8978420232753818,0.0,0,False
2023-06-16,0.8978420232753818,0.8978420232753818,0.0,0,False
2023-06-17,0.8978420232753818,0.8978420232753818,0.0,0,False
2023-06-18,0.8978420232753818,0.8978420232753818,0.0,0,False
2023-06-19,0.8978420232753818,0.8978420232753818,0.0,0,False
2023-06-20,0.8978420232753818,0.8978420232753818,0.0,0,False
2023-06-21,0.8978420232753818,0.8978420232753818,0.0,0,False
2023-06-22,0.8978420232753818,0.8978420232753818,0.0,0,False
2023-06-23,0.8978420232753818,0.8978420232753818,0.0,0,False
2023-06-24,0.8978420232753818,0.8978420232753818,0.0,0,False
2023-06-25,0.8978420232753818,0.8978420232753818,0.0,0,False
2023-06-26,0.8978420232753818,0.8978420232753818,0.0,0,False
2023-06-27,0.8978420232753818,0.8978420232753818,0.0,0,False
2023-06-28,0.8978420232753818,0.8978420232753818,0.0,0,False
2023-06-29,0.8978420232753818,0.8978420232753818,0.0,0,False
2023-06-30,0.8978420232753818,0.8978420232753818,0.0,0,False
2023-07-01,0.8978420232753818,0.8978420232753818,0.0,0,False
2023-07-02,0.8978420232753818,0.8978420232753818,0.0,0,False
2023-07-03,0.8978420232753818,0.8978420232753818,0.0,0,False
2023-07-04,0.8978420232753818,0.8978420232753818,0.0,0,False
2023-07-05,0.8978420232753818,0.8978420232753818,0.0,0,False
2023-07-06,0.8978420232753818,0.8978420232753818,0.0,0,False
2023-07-07,0.8978420232753818,0.8978420232753818,0.0,0,False
2023-07-08,0.8978420232753818,0.8978420232753818,0.0,0,False
2023-07-09,0.8978420232753818,0.8978420232753818,0.0,0,False
2023-07-10,0.8978420232753818,0.8978420232753818,0.0,0,False
2023-07-11,0.8978420232753818,0.8978420232753818,0.0,0,False
2023-07-12,0.8978420232753818,0.8978420232753818,0.0,0,False
2023-07-13,0.8978420232753818,0.8978420232753818,0.0,0,False
2023-07-14,0.8978420232753818,0.8978420232753818,0.0,0,False
2023-07-15,0.8978420232753818,0.8978420232753818,0.0,0,False
2023-07-16,0.8978420232753818,0.8978420232753818,0.0,0,False
2023-07-17,0.8978420232753818,0.8978420232753818,0.0,0,False
2023-07-18,0.8978420232753818,0.8978420232753818,0.0,0,False
2023-07-19,0.8978420232753818,0.8978420232753818,0.0,0,False
2023-07-20,0.8978420232753818,0.8978420232753818,0.0,0,False
2023-07-21,0.8978420232753818,0.8978420232753818,0.0,0,False
2023-07-22,0.8978420232753818,0.8978420232753818,0.0,0,False
2023-07-23,0.8978420232753818,0.8978420232753818,0.0,0,False
2023-07-24,0.8978420232753818,0.8978420232753818,0.0,0,False
2023-07-25,0.8978420232753818,0.8978420232753818,0.0,0,False
2023-07-26,0.8978420232753818,0.8978420232753818,0.0,0,False
2023-07-27,0.8978420232753818,0.8978420232753818,0.0,0,False
2023-07-28,0.8978420232753818,0.8978420232753818,0.0,0,False
2023-07-29,0.8978420232753818,0.8978420232753818,0.0,0,False
2023-07-30,0.8978420232753818,0.8978420232753818,0.0,0,False
2023-07-31,0.8978420232753818,0.8978420232753818,0.0,0,False
2023-08-01,0.8978420232753818,0.8978420232753818,0.0,0,False
2023-08-02,0.8978420232753818,0.8978420232753818,0.0,0,False
2023-08-03,0.8978420232753818,0.8978420232753818,0.0,0,False
2023-08-04,0.8978420232753818,0.8978420232753818,0.0,0,False
2023-08-05,0.8978420232753818,0.8978420232753818,0.0,0,False
2023-08-06,0.8978420232753818,0.8978420232753818,0.0,0,False
2023-08-07,0.8978420232753818,0.8978420232753818,0.0,0,False
2023-08-08,0.8978420232753818,0.8978420232753818,0.0,0,False
2023-08-09,0.8978420232753818,0.8978420232753818,0.0,0,False
2023-08-10,0.8978420232753818,0.8978420232753818,0.0,0,False
2023-08-11,0.8978420232753818,0.8978420232753818,0.0,0,False
2023-08-12,0.8978420232753818,0.8978420232753818,0.0,0,False
2023-08-13,0.8978420232753818,0.8978420232753818,0.0,0,False
2023-08-14,0.8978420232753818,0.8978420232753818,0.0,0,False
2023-08-15,0.8978420232753818,0.8978420232753818,0.0,0,False
2023-08-16,0.8978420232753818,0.8978420232753818,0.0,0,False
2023-08-17,0.8978420232753818,0.8978420232753818,0.0,0,False
2023-08-18,0.8978420232753818,0.8978420232753818,0.0,0,False
2023-08-19,0.8978420232753818,0.8978420232753818,0.0,0,False
2023-08-20,0.8978420232753818,0.8978420232753818,0.0,0,False
2023-08-21,0.8978420232753818,0.8978420232753818,0.0,0,False
2023-08-22,0.8978420232753818,0.8978420232753818,0.0,0,False
2023-08-23,0.8978420232753818,0.8978420232753818,0.0,0,False
2023-08-24,0.8978420232753818,0.8978420232753818,0.0,0,False
2023-08-25,0.8978420232753818,0.8978420232753818,0.0,0,False
2023-08-26,0.8978420232753818,0.8978420232753818,0.0,0,False
2023-08-27,0.8978420232753818,0.8978420232753818,0.0,0,False
2023-08-28,0.8978420232753818,0.8978420232753818,0.0,0,False
2023-08-29,0.8978420232753818,0.8978420232753818,0.0,0,False
2023-08-30,0.8978420232753818,0.8978420232753818,0.0,0,False
2023-08-31,0.8978420232753818,0.8978420232753818,0.0,0,False
2023-09-01,0.8978420232753818,0.8978420232753818,0.0,0,False
2023-09-02,0.8978420232753818,0.8978420232753818,0.0,0,False
2023-09-03,0.8978420232753818,0.8978420232753818,0.0,0,False
2023-09-04,0.8978420232753818,0.8978420232753818,0.0,0,False
2023-09-05,0.8978420232753818,0.8978420232753818,0.0,0,False
2023-09-06,0.8978420232753818,0.8978420232753818,0.0,0,False
2023-09-07,0.8978420232753818,0.8978420232753818,0.0,0,False
2023-09-08,0.8978420232753818,0.8978420232753818,0.0,0,False
2023-09-09,0.8978420232753818,0.8978420232753818,0.0,0,False
2023-09-10,0.8978420232753818,0.8978420232753818,0.0,0,False
2023-09-11,0.8978420232753818,0.8978420232753818,0.0,0,False
2023-09-12,0.8978420232753818,0.8978420232753818,0.0,0,False
2023-09-13,0.8978420232753818,0.8978420232753818,0.0,0,False
2023-09-14,0.8978420232753818,0.8978420232753818,0.0,0,False
2023-09-15,0.8978420232753818,0.8978420232753818,0.0,0,False
2023-09-16,0.8978420232753818,0.8978420232753818,0.0,0,False
2023-09-17,0.8978420232753818,0.8978420232753818,0.0,0,False
2023-09-18,0.8978420232753818,0.8978420232753818,0.0,0,False
2023-09-19,0.8978420232753818,0.8978420232753818,0.0,0,False
2023-09-20,0.8978420232753818,0.8978420232753818,0.0,0,False
2023-09-21,0.8978420232753818,0.8978420232753818,0.0,0,False
2023-09-22,0.8978420232753818,0.8978420232753818,0.0,0,False
2023-09-23,0.8978420232753818,0.8978420232753818,0.0,0,False
2023-09-24,0.8978420232753818,0.8978420232753818,0.0,0,False
2023-09-25,0.8978420232753818,0.8978420232753818,0.0,0,False
2023-09-26,0.8978420232753818,0.8978420232753818,0.0,0,False
2023-09-27,0.8978420232753818,0.8978420232753818,0.0,0,False
2023-09-28,0.8978420232753818,0.8978420232753818,0.0,0,False
2023-09-29,0.8978420232753818,0.8978420232753818,0.0,0,False
2023-09-30,0.8978420232753818,0.8978420232753818,0.0,0,False
2023-10-01,0.8978420232753818,0.8978420232753818,0.0,0,False
2023-10-02,0.8978420232753818,0.8978420232753818,0.0,0,False
2023-10-03,0.8978420232753818,0.8978420232753818,0.0,0,False
2023-10-04,0.8978420232753818,0.8978420232753818,0.0,0,False
2023-10-05,0.8978420232753818,0.8978420232753818,0.0,0,False
2023-10-06,0.8978420232753818,0.8978420232753818,0.0,0,False
2023-10-07,0.8978420232753818,0.8978420232753818,0.0,0,False
2023-10-08,0.8978420232753818,0.8978420232753818,0.0,0,False
2023-10-09,0.8978420232753818,0.8978420232753818,0.0,0,False
2023-10-10,0.8978420232753818,0.8978420232753818,0.0,0,False
2023-10-11,0.8978420232753818,0.8978420232753818,0.0,0,False
2023-10-12,0.8978420232753818,0.8978420232753818,0.0,0,False
2023-10-13,0.8978420232753818,0.8978420232753818,0.0,0,False
2023-10-14,0.8978420232753818,0.8978420232753818,0.0,0,False
2023-10-15,0.8978420232753818,0.8978420232753818,0.0,0,False
2023-10-16,0.8978420232753818,0.8978420232753818,0.0,0,False
2023-10-17,0.8978420232753818,0.8978420232753818,0.0,0,False
2023-10-18,0.8978420232753818,0.8978420232753818,0.0,0,False
2023-10-19,0.8978420232753818,0.8978420232753818,0.0,0,False
2023-10-20,0.8978420232753818,0.8978420232753818,0.0,0,False
2023-10-21,0.8978420232753818,0.8978420232753818,0.0,0,False
2023-10-22,0.8978420232753818,0.8978420232753818,0.0,0,False
2023-10-23,0.8978420232753818,0.8978420232753818,0.0,0,False
2023-10-24,0.8978420232753818,0.8978420232753818,0.0,0,False
2023-10-25,0.8978420232753818,0.8978420232753818,0.0,0,False
2023-10-26,0.8978420232753818,0.8978420232753818,0.0,0,False
2023-10-27,0.8978420232753818,0.8978420232753818,0.0,0,False
2023-10-28,0.8978420232753818,0.8978420232753818,0.0,0,False
2023-10-29,0.8978420232753818,0.8978420232753818,0.0,0,False
2023-10-30,0.8978420232753818,0.8978420232753818,0.0,0,False
2023-10-31,0.8978420232753818,0.8978420232753818,0.0,0,False
2023-11-01,0.8978420232753818,0.8978420232753818,0.0,0,False
2023-11-02,0.8978420232753818,0.8978420232753818,0.0,0,False
2023-11-03,0.8978420232753818,0.8978420232753818,0.0,0,False
2023-11-04,0.8978420232753818,0.8978420232753818,0.0,0,False
2023-11-05,0.8978420232753818,0.8978420232753818,0.0,0,False
2023-11-06,0.8978420232753818,0.8978420232753818,0.0,0,False
2023-11-07,0.8978420232753818,0.8978420232753818,0.0,0,False
2023-11-08,0.8978420232753818,0.8978420232753818,0.0,0,False
2023-11-09,0.8978420232753818,0.8978420232753818,0.0,0,False
2023-11-10,0.8978420232753818,0.8978420232753818,0.0,0,False
2023-11-11,0.8978420232753818,0.8978420232753818,0.0,0,False
2023-11-12,0.8978420232753818,0.8978420232753818,0.0,0,False
2023-11-13,0.8978420232753818,0.8978420232753818,0.0,0,False
2023-11-14,0.8978420232753818,0.8978420232753818,0.0,0,False
2023-11-15,0.8978420232753818,0.8978420232753818,0.0,0,False
2023-11-16,0.8978420232753818,0.8978420232753818,0.0,0,False
2023-11-17,0.8978420232753818,0.8978420232753818,0.0,0,False
2023-11-18,0.8978420232753818,0.8978420232753818,0.0,0,False
2023-11-19,0.8978420232753818,0.8978420232753818,0.0,0,False
2023-11-20,0.8978420232753818,0.8978420232753818,0.0,0,False
2023-11-21,0.8978420232753818,0.8978420232753818,0.0,0,False
2023-11-22,0.8978420232753818,0.8978420232753818,0.0,0,False
2023-11-23,0.8978420232753818,0.8978420232753818,0.0,0,False
2023-11-24,0.8978420232753818,0.8978420232753818,0.0,0,False
2023-11-25,0.8978420232753818,0.8978420232753818,0.0,0,False
2023-11-26,0.8978420232753818,0.8978420232753818,0.0,0,False
2023-11-27,0.8978420232753818,0.8978420232753818,0.0,0,False
2023-11-28,0.8978420232753818,0.8978420232753818,0.0,0,False
2023-11-29,0.8978420232753818,0.8978420232753818,0.0,0,False
2023-11-30,0.8978420232753818,0.8978420232753818,0.0,0,False
2023-12-01,0.8978420232753818,0.8978420232753818,0.0,0,False
2023-12-02,0.8978420232753818,0.8978420232753818,0.0,0,False
2023-12-03,0.8978420232753818,0.8978420232753818,0.0,0,False
2023-12-04,0.8978420232753818,0.8978420232753818,0.0,0,False
2023-12-05,0.8978420232753818,0.8978420232753818,0.0,0,False
2023-12-06,0.8978420232753818,0.8978420232753818,0.0,0,False
2023-12-07,0.8978420232753818,0.8978420232753818,0.0,0,False
2023-12-08,0.8978420232753818,0.8978420232753818,0.0,0,False
2023-12-09,0.8978420232753818,0.8978420232753818,0.0,0,False
2023-12-10,0.8978420232753818,0.8978420232753818,0.0,0,False
2023-12-11,0.8978420232753818,0.8978420232753818,0.0,0,False
2023-12-12,0.8978420232753818,0.8978420232753818,0.0,0,False
2023-12-13,0.8978420232753818,0.8978420232753818,0.0,0,False
2023-12-14,0.8978420232753818,0.8978420232753818,0.0,0,False
2023-12-15,0.8978420232753818,0.8978420232753818,0.0,0,False
2023-12-16,0.8978420232753818,0.8978420232753818,0.0,0,False
2023-12-17,0.8978420232753818,0.8978420232753818,0.0,0,False
2023-12-18,0.8978420232753818,0.8978420232753818,0.0,0,False
2023-12-19,0.8978420232753818,0.8978420232753818,0.0,0,False
2023-12-20,0.8978420232753818,0.8978420232753818,0.0,0,False
2023-12-21,0.8978420232753818,0.8978420232753818,0.0,0,False
2023-12-22,0.8978420232753818,0.8978420232753818,0.0,0,False
2023-12-23,0.8978420232753818,0.8978420232753818,0.0,0,False
2023-12-24,0.8978420232753818,0.8978420232753818,0.0,0,False
2023-12-25,0.8978420232753818,0.8978420232753818,0.0,0,False
2023-12-26,0.8978420232753818,0.8978420232753818,0.0,0,False
2023-12-27,0.8978420232753818,0.8978420232753818,0.0,0,False
2023-12-28,0.8978420232753818,0.8978420232753818,0.0,0,False
2023-12-29,0.8978420232753818,0.8978420232753818,0.0,0,False
2023-12-30,0.8978420232753818,0.8978420232753818,0.0,0,False
2023-12-31,0.8978420232753818,0.8978420232753818,0.0,0,False
