day,start_equity,end_equity,return_pct,entries,active
2021-09-02,1.0,1.0,0.0,0,False
2021-09-03,1.0,1.0,0.0,0,False
2021-09-04,1.0,1.0,0.0,0,False
2021-09-05,1.0,1.0,0.0,0,False
2021-09-06,1.0,1.0,0.0,0,False
2021-09-07,1.0,1.0,0.0,0,False
2021-09-08,1.0,1.0,0.0,0,False
2021-09-09,1.0,1.0,0.0,0,False
2021-09-10,1.0,1.0,0.0,0,False
2021-09-11,1.0,1.0,0.0,0,False
2021-09-12,1.0,1.0,0.0,0,False
2021-09-13,1.0,1.0,0.0,0,False
2021-09-14,1.0,1.0,0.0,0,False
2021-09-15,1.0,1.0,0.0,0,False
2021-09-16,1.0,1.0,0.0,0,False
2021-09-17,1.0,1.0,0.0,0,False
2021-09-18,1.0,1.0,0.0,0,False
2021-09-19,1.0,1.0,0.0,0,False
2021-09-20,1.0,1.0,0.0,0,False
2021-09-21,1.0,1.0,0.0,0,False
2021-09-22,1.0,1.0,0.0,0,False
2021-09-23,1.0,1.0,0.0,0,False
2021-09-24,1.0,1.0,0.0,0,False
2021-09-25,1.0,1.0,0.0,0,False
2021-09-26,1.0,1.0,0.0,0,False
2021-09-27,1.0,1.0,0.0,0,False
2021-09-28,1.0,1.0,0.0,0,False
2021-09-29,1.0,1.0,0.0,0,False
2021-09-30,1.0,1.0,0.0,0,False
2021-10-01,1.0,1.0,0.0,0,False
2021-10-02,1.0,1.0,0.0,0,False
2021-10-03,1.0,1.0,0.0,0,False
2021-10-04,1.0,1.0,0.0,0,False
2021-10-05,1.0,1.0,0.0,0,False
2021-10-06,1.0,0.9950030470865769,-0.49969529134230584,1,True
2021-10-07,0.9950030470865769,0.9950030470865769,0.0,0,False
2021-10-08,0.9950030470865769,0.9950030470865769,0.0,0,False
2021-10-09,0.9950030470865769,0.9950030470865769,0.0,0,False
2021-10-10,0.9950030470865769,0.9950030470865769,0.0,0,False
2021-10-11,0.9950030470865769,0.9950030470865769,0.0,0,False
2021-10-12,0.9950030470865769,0.9950030470865769,0.0,0,False
2021-10-13,0.9950030470865769,1.000771297016294,0.57972183568753,1,True
2021-10-14,1.000771297016294,1.0042313517594972,0.3457388070100542,0,True
2021-10-15,1.0042313517594972,1.0042313517594972,0.0,0,False
2021-10-16,1.0042313517594972,1.0004796510098866,-0.3735892872730351,1,True
2021-10-17,1.0004796510098866,1.0007307413335873,0.025096994571272013,0,True
2021-10-18,1.0007307413335873,1.0007307413335873,0.0,0,False
2021-10-19,1.0007307413335873,1.0007307413335873,0.0,0,False
2021-10-20,1.0007307413335873,1.0007307413335873,0.0,0,False
2021-10-21,1.0007307413335873,1.0007307413335873,0.0,0,False
2021-10-22,1.0007307413335873,1.0007307413335873,0.0,0,False
2021-10-23,1.0007307413335873,1.0007307413335873,0.0,0,False
2021-10-24,1.0007307413335873,1.0007307413335873,0.0,0,False
2021-10-25,1.0007307413335873,1.0053667245443205,0.4632597979907338,1,True
2021-10-26,1.0053667245443205,1.0053667245443205,0.0,0,False
2021-10-27,1.0053667245443205,1.0210607823168372,1.561028169062384,4,True
2021-10-28,1.0210607823168372,1.0179925268272854,-0.30049685020610006,0,True
2021-10-29,1.0179925268272854,1.0179925268272854,0.0,0,False
2021-10-30,1.0179925268272854,1.016858648277937,-0.11138377929770238,1,True
2021-10-31,1.016858648277937,1.0171518072909047,0.028829868680779747,0,True
2021-11-01,1.0171518072909047,1.0171518072909047,0.0,0,False
2021-11-02,1.0171518072909047,1.0171518072909047,0.0,0,False
2021-11-03,1.0171518072909047,1.0171518072909047,0.0,0,False
2021-11-04,1.0171518072909047,1.0171518072909047,0.0,0,False
2021-11-05,1.0171518072909047,1.0171518072909047,0.0,0,False
2021-11-06,1.0171518072909047,1.0171518072909047,0.0,0,False
2021-11-07,1.0171518072909047,1.0171518072909047,0.0,0,False
2021-11-08,1.0171518072909047,1.0171518072909047,0.0,0,False
2021-11-09,1.0171518072909047,1.0171518072909047,0.0,0,False
2021-11-10,1.0171518072909047,1.0171518072909047,0.0,0,False
2021-11-11,1.0171518072909047,1.0331134461066143,1.5692484348252878,6,True
2021-11-12,1.0331134461066143,1.0331134461066143,0.0,0,False
2021-11-13,1.0331134461066143,1.0331134461066143,0.0,0,False
2021-11-14,1.0331134461066143,1.0331134461066143,0.0,0,False
2021-11-15,1.0331134461066143,1.0331134461066143,0.0,0,False
2021-11-16,1.0331134461066143,1.069843480303461,3.555275980122752,4,True
2021-11-17,1.069843480303461,1.0688444735514868,-0.09337877646279358,0,True
2021-11-18,1.0688444735514868,1.0644816115696585,-0.408184922108612,1,True
2021-11-19,1.0644816115696585,1.0635011646708379,-0.09210557403380726,0,True
2021-11-20,1.0635011646708379,1.0635011646708379,0.0,0,False
2021-11-21,1.0635011646708379,1.0635011646708379,0.0,0,False
2021-11-22,1.0635011646708379,1.0635011646708379,0.0,0,False
2021-11-23,1.0635011646708379,1.0635011646708379,0.0,0,False
2021-11-24,1.0635011646708379,1.0635011646708379,0.0,0,False
2021-11-25,1.0635011646708379,1.0635011646708379,0.0,0,False
2021-11-26,1.0635011646708379,1.0696174729391468,0.575110631891218,5,True
2021-11-27,1.0696174729391468,1.0677239392173694,-0.17702905661911572,0,True
2021-11-28,1.0677239392173694,1.0623912795921049,-0.4994417966476705,1,True
2021-11-29,1.0623912795921049,1.0623912795921049,0.0,0,False
2021-11-30,1.0623912795921049,1.0623912795921049,0.0,0,False
2021-12-01,1.0623912795921049,1.0595986158019457,-0.26286584272712243,1,True
2021-12-02,1.0595986158019457,1.0606581521939322,0.0999941276050631,1,True
2021-12-03,1.0606581521939322,1.05745395959909,-0.3020947501524929,1,True
2021-12-04,1.05745395959909,1.0311810937367243,-2.4845399295044923,5,True
2021-12-05,1.0311810937367243,1.0311810937367243,0.0,0,False
2021-12-06,1.0311810937367243,1.0311810937367243,0.0,0,False
2021-12-07,1.0311810937367243,1.0311810937367243,0.0,0,False
2021-12-08,1.0311810937367243,1.0311810937367243,0.0,0,False
2021-12-09,1.0311810937367243,1.0311810937367243,0.0,0,False
2021-12-10,1.0311810937367243,1.0311810937367243,0.0,0,False
2021-12-11,1.0311810937367243,1.0311810937367243,0.0,0,False
2021-12-12,1.0311810937367243,1.0311810937367243,0.0,0,False
2021-12-13,1.0311810937367243,1.0311810937367243,0.0,0,False
2021-12-14,1.0311810937367243,1.0311810937367243,0.0,0,False
2021-12-15,1.0311810937367243,1.0311810937367243,0.0,0,False
2021-12-16,1.0311810937367243,1.0311810937367243,0.0,0,False
2021-12-17,1.0311810937367243,1.0305333809841455,-0.06281270637261693,1,True
2021-12-18,1.0305333809841455,1.0305333809841455,0.0,0,False
2021-12-19,1.0305333809841455,1.0305333809841455,0.0,0,False
2021-12-20,1.0305333809841455,1.0305333809841455,0.0,0,False
2021-12-21,1.0305333809841455,1.0305333809841455,0.0,0,False
2021-12-22,1.0305333809841455,1.0305333809841455,0.0,0,False
2021-12-23,1.0305333809841455,1.0305333809841455,0.0,0,False
2021-12-24,1.0305333809841455,1.0305333809841455,0.0,0,False
2021-12-25,1.0305333809841455,1.0305333809841455,0.0,0,False
2021-12-26,1.0305333809841455,1.0305333809841455,0.0,0,False
2021-12-27,1.0305333809841455,1.0305333809841455,0.0,0,False
2021-12-28,1.0305333809841455,1.0305333809841455,0.0,0,False
2021-12-29,1.0305333809841455,1.0305333809841455,0.0,0,False
2021-12-30,1.0305333809841455,1.0305333809841455,0.0,0,False
2021-12-31,1.0305333809841455,1.0305333809841455,0.0,0,False
2022-01-01,1.0305333809841455,1.0305333809841455,0.0,0,False
2022-01-02,1.0305333809841455,1.0305333809841455,0.0,0,False
2022-01-03,1.0305333809841455,1.0305333809841455,0.0,0,False
2022-01-04,1.0305333809841455,1.0305333809841455,0.0,0,False
2022-01-05,1.0305333809841455,1.0305333809841455,0.0,0,False
2022-01-06,1.0305333809841455,1.0319178665032804,0.13434649907340113,1,True
2022-01-07,1.0319178665032804,1.0319178665032804,0.0,0,False
2022-01-08,1.0319178665032804,1.0319178665032804,0.0,0,False
2022-01-09,1.0319178665032804,1.0319178665032804,0.0,0,False
2022-01-10,1.0319178665032804,1.0319178665032804,0.0,0,False
2022-01-11,1.0319178665032804,1.0319178665032804,0.0,0,False
2022-01-12,1.0319178665032804,1.0319178665032804,0.0,0,False
2022-01-13,1.0319178665032804,1.0319178665032804,0.0,0,False
2022-01-14,1.0319178665032804,1.0319178665032804,0.0,0,False
2022-01-15,1.0319178665032804,1.0319178665032804,0.0,0,False
2022-01-16,1.0319178665032804,1.0319178665032804,0.0,0,False
2022-01-17,1.0319178665032804,1.0319178665032804,0.0,0,False
2022-01-18,1.0319178665032804,1.0319178665032804,0.0,0,False
2022-01-19,1.0319178665032804,1.0319178665032804,0.0,0,False
2022-01-20,1.0319178665032804,1.0319178665032804,0.0,0,False
2022-01-21,1.0319178665032804,1.0319178665032804,0.0,0,False
2022-01-22,1.0319178665032804,1.0319178665032804,0.0,0,False
2022-01-23,1.0319178665032804,1.0319178665032804,0.0,0,False
2022-01-24,1.0319178665032804,1.0319178665032804,0.0,0,False
2022-01-25,1.0319178665032804,1.0319178665032804,0.0,0,False
2022-01-26,1.0319178665032804,1.0319178665032804,0.0,0,False
2022-01-27,1.0319178665032804,1.0319178665032804,0.0,0,False
2022-01-28,1.0319178665032804,1.0319178665032804,0.0,0,False
2022-01-29,1.0319178665032804,1.0319178665032804,0.0,0,False
2022-01-30,1.0319178665032804,1.0319178665032804,0.0,0,False
2022-01-31,1.0319178665032804,1.0319178665032804,0.0,0,False
2022-02-01,1.0319178665032804,1.0319178665032804,0.0,0,False
2022-02-02,1.0319178665032804,1.0319178665032804,0.0,0,False
2022-02-03,1.0319178665032804,1.0319178665032804,0.0,0,False
2022-02-04,1.0319178665032804,1.0319178665032804,0.0,0,False
2022-02-05,1.0319178665032804,1.0319178665032804,0.0,0,False
2022-02-06,1.0319178665032804,1.0319178665032804,0.0,0,False
2022-02-07,1.0319178665032804,1.0319178665032804,0.0,0,False
2022-02-08,1.0319178665032804,1.0319178665032804,0.0,0,False
2022-02-09,1.0319178665032804,1.0319178665032804,0.0,0,False
2022-02-10,1.0319178665032804,1.0330998252552541,0.11454000268247277,2,True
2022-02-11,1.0330998252552541,1.0230720542507805,-0.9706487949502796,0,True
2022-02-12,1.0230720542507805,1.0230720542507805,0.0,0,False
2022-02-13,1.0230720542507805,1.0230720542507805,0.0,0,False
2022-02-14,1.0230720542507805,1.0230720542507805,0.0,0,False
2022-02-15,1.0230720542507805,1.0230720542507805,0.0,0,False
2022-02-16,1.0230720542507805,1.0230720542507805,0.0,0,False
2022-02-17,1.0230720542507805,1.0230720542507805,0.0,0,False
2022-02-18,1.0230720542507805,1.0230720542507805,0.0,0,False
2022-02-19,1.0230720542507805,1.0230720542507805,0.0,0,False
2022-02-20,1.0230720542507805,1.0230720542507805,0.0,0,False
2022-02-21,1.0230720542507805,1.0230720542507805,0.0,0,False
2022-02-22,1.0230720542507805,1.0230720542507805,0.0,0,False
2022-02-23,1.0230720542507805,1.0230720542507805,0.0,0,False
2022-02-24,1.0230720542507805,1.0230720542507805,0.0,0,False
2022-02-25,1.0230720542507805,1.0230720542507805,0.0,0,False
2022-02-26,1.0230720542507805,1.0230720542507805,0.0,0,False
2022-02-27,1.0230720542507805,1.0230720542507805,0.0,0,False
2022-02-28,1.0230720542507805,1.0230720542507805,0.0,0,False
2022-03-01,1.0230720542507805,1.0230720542507805,0.0,0,False
2022-03-02,1.0230720542507805,1.0230720542507805,0.0,0,False
2022-03-03,1.0230720542507805,1.0230720542507805,0.0,0,False
2022-03-04,1.0230720542507805,1.0230720542507805,0.0,0,False
2022-03-05,1.0230720542507805,1.0230720542507805,0.0,0,False
2022-03-06,1.0230720542507805,1.0230720542507805,0.0,0,False
2022-03-07,1.0230720542507805,1.0230720542507805,0.0,0,False
2022-03-08,1.0230720542507805,1.0230720542507805,0.0,0,False
2022-03-09,1.0230720542507805,1.0230720542507805,0.0,0,False
2022-03-10,1.0230720542507805,1.0230720542507805,0.0,0,False
2022-03-11,1.0230720542507805,1.0230720542507805,0.0,0,False
2022-03-12,1.0230720542507805,1.0230720542507805,0.0,0,False
2022-03-13,1.0230720542507805,1.0230720542507805,0.0,0,False
2022-03-14,1.0230720542507805,1.0230720542507805,0.0,0,False
2022-03-15,1.0230720542507805,1.0230720542507805,0.0,0,False
2022-03-16,1.0230720542507805,1.0230720542507805,0.0,0,False
2022-03-17,1.0230720542507805,1.0230720542507805,0.0,0,False
2022-03-18,1.0230720542507805,1.0230720542507805,0.0,0,False
2022-03-19,1.0230720542507805,1.0230720542507805,0.0,0,False
2022-03-20,1.0230720542507805,1.0230720542507805,0.0,0,False
2022-03-21,1.0230720542507805,1.0230720542507805,0.0,0,False
2022-03-22,1.0230720542507805,1.0230720542507805,0.0,0,False
2022-03-23,1.0230720542507805,1.0230720542507805,0.0,0,False
2022-03-24,1.0230720542507805,1.0230720542507805,0.0,0,False
2022-03-25,1.0230720542507805,1.0230720542507805,0.0,0,False
2022-03-26,1.0230720542507805,1.024999453265629,0.18839328147419732,1,True
2022-03-27,1.024999453265629,1.024999453265629,0.0,0,False
2022-03-28,1.024999453265629,1.024999453265629,0.0,0,False
2022-03-29,1.024999453265629,1.024999453265629,0.0,0,False
2022-03-30,1.024999453265629,1.0234920765718656,-0.14706121929732863,1,True
2022-03-31,1.0234920765718656,1.0234920765718656,0.0,0,False
2022-04-01,1.0234920765718656,1.0234920765718656,0.0,0,False
2022-04-02,1.0234920765718656,1.0234920765718656,0.0,0,False
2022-04-03,1.0234920765718656,1.0234920765718656,0.0,0,False
2022-04-04,1.0234920765718656,1.0183801909880177,-0.4994553158603754,1,True
2022-04-05,1.0183801909880177,1.0183801909880177,0.0,0,False
2022-04-06,1.0183801909880177,1.019844113019438,0.14375004977267292,1,True
2022-04-07,1.019844113019438,1.016954455845017,-0.28334302640289355,1,True
2022-04-08,1.016954455845017,1.016954455845017,0.0,0,False
2022-04-09,1.016954455845017,1.016954455845017,0.0,0,False
2022-04-10,1.016954455845017,1.016954455845017,0.0,0,False
2022-04-11,1.016954455845017,1.016954455845017,0.0,0,False
2022-04-12,1.016954455845017,1.016954455845017,0.0,0,False
2022-04-13,1.016954455845017,1.016954455845017,0.0,0,False
2022-04-14,1.016954455845017,1.016954455845017,0.0,0,False
2022-04-15,1.016954455845017,1.016954455845017,0.0,0,False
2022-04-16,1.016954455845017,1.016954455845017,0.0,0,False
2022-04-17,1.016954455845017,1.016954455845017,0.0,0,False
2022-04-18,1.016954455845017,1.019994683847749,0.29895419458148,1,True
2022-04-19,1.019994683847749,1.0185031172657593,-0.14623277999479267,0,True
2022-04-20,1.0185031172657593,1.0185031172657593,0.0,0,False
2022-04-21,1.0185031172657593,1.0185031172657593,0.0,0,False
2022-04-22,1.0185031172657593,1.0185031172657593,0.0,0,False
2022-04-23,1.0185031172657593,1.0185031172657593,0.0,0,False
2022-04-24,1.0185031172657593,1.0185031172657593,0.0,0,False
2022-04-25,1.0185031172657593,1.0185031172657593,0.0,0,False
2022-04-26,1.0185031172657593,1.0185031172657593,0.0,0,False
2022-04-27,1.0185031172657593,1.0185031172657593,0.0,0,False
2022-04-28,1.0185031172657593,1.0185031172657593,0.0,0,False
2022-04-29,1.0185031172657593,1.0185031172657593,0.0,0,False
2022-04-30,1.0185031172657593,1.0185031172657593,0.0,0,False
2022-05-01,1.0185031172657593,1.0367766325592083,1.7941540859006455,4,True
2022-05-02,1.0367766325592083,1.0367766325592083,0.0,0,False
2022-05-03,1.0367766325592083,1.0367766325592083,0.0,0,False
2022-05-04,1.0367766325592083,1.0367766325592083,0.0,0,False
2022-05-05,1.0367766325592083,1.0367766325592083,0.0,0,False
2022-05-06,1.0367766325592083,1.032581711561197,-0.4046118388737585,2,True
2022-05-07,1.032581711561197,1.0315545278154752,-0.09947723596313018,0,True
2022-05-08,1.0315545278154752,1.0315545278154752,0.0,0,False
2022-05-09,1.0315545278154752,1.0315545278154752,0.0,0,False
2022-05-10,1.0315545278154752,1.0212458543244023,-0.9993338416054098,2,True
2022-05-11,1.0212458543244023,1.0063652683012247,-1.457101241602754,5,True
2022-05-12,1.0063652683012247,0.9908842741154298,-1.5383076774824866,1,True
2022-05-13,0.9908842741154298,0.9908842741154298,0.0,0,False
2022-05-14,0.9908842741154298,0.9908842741154298,0.0,0,False
2022-05-15,0.9908842741154298,0.9878601081486709,-0.30519870440557373,1,True
2022-05-16,0.9878601081486709,0.9971658298506323,0.9420080459976443,1,True
2022-05-17,0.9971658298506323,0.9971658298506323,0.0,0,False
2022-05-18,0.9971658298506323,0.9971658298506323,0.0,0,False
2022-05-19,0.9971658298506323,0.9971658298506323,0.0,0,False
2022-05-20,0.9971658298506323,0.9921870607223401,-0.4992919912867433,1,True
2022-05-21,0.9921870607223401,0.9921870607223401,0.0,0,False
2022-05-22,0.9921870607223401,0.9921870607223401,0.0,0,False
2022-05-23,0.9921870607223401,0.9919287534386215,-0.026034131460095367,1,True
2022-05-24,0.9919287534386215,0.986884342858015,-0.5085456554333789,1,True
2022-05-25,0.986884342858015,0.9868233080082639,-0.006184600069170099,1,True
2022-05-26,0.9868233080082639,0.9921733565371237,0.5421485777082014,1,True
2022-05-27,0.9921733565371237,0.9960563874107627,0.3913661708465632,0,True
2022-05-28,0.9960563874107627,0.9960563874107627,0.0,0,False
2022-05-29,0.9960563874107627,0.9960563874107627,0.0,0,False
2022-05-30,0.9960563874107627,0.9960563874107627,0.0,0,False
2022-05-31,0.9960563874107627,0.9960563874107627,0.0,0,False
2022-06-01,0.9960563874107627,0.9960563874107627,0.0,0,False
2022-06-02,0.9960563874107627,0.9910803813508908,-0.4995707193652943,1,True
2022-06-03,0.9910803813508908,0.9910803813508908,0.0,0,False
2022-06-04,0.9910803813508908,0.9910803813508908,0.0,0,False
2022-06-05,0.9910803813508908,0.9910803813508908,0.0,0,False
2022-06-06,0.9910803813508908,0.9910803813508908,0.0,0,False
2022-06-07,0.9910803813508908,0.9921171194707733,0.10460686533511065,1,True
2022-06-08,0.9921171194707733,0.9923536985719771,0.023845884378048687,1,True
2022-06-09,0.9923536985719771,0.9923536985719771,0.0,0,False
2022-06-10,0.9923536985719771,0.9992553604723325,0.6954840708798926,1,True
2022-06-11,0.9992553604723325,0.9992553604723325,0.0,0,False
2022-06-12,0.9992553604723325,1.000306567654215,0.1051990535618108,4,True
2022-06-13,1.000306567654215,1.000306567654215,0.0,0,False
2022-06-14,1.000306567654215,1.000306567654215,0.0,0,False
2022-06-15,1.000306567654215,1.000306567654215,0.0,0,False
2022-06-16,1.000306567654215,1.0101027646481635,0.9793194717216736,2,True
2022-06-17,1.0101027646481635,1.0134303015205748,0.32942557815593965,0,True
2022-06-18,1.0134303015205748,1.0031735832090616,-1.0120793009764761,4,True
2022-06-19,1.0031735832090616,1.011087475701805,0.7888856550057444,0,True
2022-06-20,1.011087475701805,1.011087475701805,0.0,0,False
2022-06-21,1.011087475701805,1.011087475701805,0.0,0,False
2022-06-22,1.011087475701805,1.011087475701805,0.0,0,False
2022-06-23,1.011087475701805,1.011087475701805,0.0,0,False
2022-06-24,1.011087475701805,1.011087475701805,0.0,0,False
2022-06-25,1.011087475701805,1.011087475701805,0.0,0,False
2022-06-26,1.011087475701805,1.011087475701805,0.0,0,False
2022-06-27,1.011087475701805,1.011087475701805,0.0,0,False
2022-06-28,1.011087475701805,1.0128184164032359,0.17119593932557464,1,True
2022-06-29,1.0128184164032359,1.0205050699549325,0.758936984873726,0,True
2022-06-30,1.0205050699549325,1.0205050699549325,0.0,0,False
2022-07-01,1.0205050699549325,1.0205050699549325,0.0,0,False
2022-07-02,1.0205050699549325,1.0205050699549325,0.0,0,False
2022-07-03,1.0205050699549325,1.0205050699549325,0.0,0,False
2022-07-04,1.0205050699549325,1.0205050699549325,0.0,0,False
2022-07-05,1.0205050699549325,1.0205050699549325,0.0,0,False
2022-07-06,1.0205050699549325,1.0205050699549325,0.0,0,False
2022-07-07,1.0205050699549325,1.0205050699549325,0.0,0,False
2022-07-08,1.0205050699549325,1.0205050699549325,0.0,0,False
2022-07-09,1.0205050699549325,1.0205050699549325,0.0,0,False
2022-07-10,1.0205050699549325,1.0205050699549325,0.0,0,False
2022-07-11,1.0205050699549325,1.0205050699549325,0.0,0,False
2022-07-12,1.0205050699549325,1.0205050699549325,0.0,0,False
2022-07-13,1.0205050699549325,1.0330329621673735,1.2276168518196906,4,True
2022-07-14,1.0330329621673735,1.0508615416233618,1.7258480715448554,0,True
2022-07-15,1.0508615416233618,1.0508615416233618,0.0,0,False
2022-07-16,1.0508615416233618,1.0508615416233618,0.0,0,False
2022-07-17,1.0508615416233618,1.0508615416233618,0.0,0,False
2022-07-18,1.0508615416233618,1.0508615416233618,0.0,0,False
2022-07-19,1.0508615416233618,1.0508615416233618,0.0,0,False
2022-07-20,1.0508615416233618,1.0508615416233618,0.0,0,False
2022-07-21,1.0508615416233618,1.0481153901221605,-0.2613238178798549,3,True
2022-07-22,1.0481153901221605,1.0481153901221605,0.0,0,False
2022-07-23,1.0481153901221605,1.0481153901221605,0.0,0,False
2022-07-24,1.0481153901221605,1.0544625636624618,0.60557965278627,1,True
2022-07-25,1.0544625636624618,1.055635732413732,0.11125750611717944,1,True
2022-07-26,1.055635732413732,1.055635732413732,0.0,0,False
2022-07-27,1.055635732413732,1.055635732413732,0.0,0,False
2022-07-28,1.055635732413732,1.055635732413732,0.0,0,False
2022-07-29,1.055635732413732,1.055635732413732,0.0,0,False
2022-07-30,1.055635732413732,1.055635732413732,0.0,0,False
2022-07-31,1.055635732413732,1.055635732413732,0.0,0,False
2022-08-01,1.055635732413732,1.055635732413732,0.0,0,False
2022-08-02,1.055635732413732,1.055635732413732,0.0,0,False
2022-08-03,1.055635732413732,1.055635732413732,0.0,0,False
2022-08-04,1.055635732413732,1.055635732413732,0.0,0,False
2022-08-05,1.055635732413732,1.055635732413732,0.0,0,False
2022-08-06,1.055635732413732,1.055635732413732,0.0,0,False
2022-08-07,1.055635732413732,1.055635732413732,0.0,0,False
2022-08-08,1.055635732413732,1.055635732413732,0.0,0,False
2022-08-09,1.055635732413732,1.0578160903940366,0.20654454120447863,1,True
2022-08-10,1.0578160903940366,1.0578160903940366,0.0,0,False
2022-08-11,1.0578160903940366,1.0578160903940366,0.0,0,False
2022-08-12,1.0578160903940366,1.0582079349091218,0.0370427826390296,1,True
2022-08-13,1.0582079349091218,1.0582079349091218,0.0,0,False
2022-08-14,1.0582079349091218,1.0582079349091218,0.0,0,False
2022-08-15,1.0582079349091218,1.0582079349091218,0.0,0,False
2022-08-16,1.0582079349091218,1.0582079349091218,0.0,0,False
2022-08-17,1.0582079349091218,1.0582079349091218,0.0,0,False
2022-08-18,1.0582079349091218,1.0582079349091218,0.0,0,False
2022-08-19,1.0582079349091218,1.0333511887225157,-2.3489472500261233,8,True
2022-08-20,1.0333511887225157,1.0333511887225157,0.0,0,False
2022-08-21,1.0333511887225157,1.0333511887225157,0.0,0,False
2022-08-22,1.0333511887225157,1.0333511887225157,0.0,0,False
2022-08-23,1.0333511887225157,1.0333511887225157,0.0,0,False
2022-08-24,1.0333511887225157,1.0333511887225157,0.0,0,False
2022-08-25,1.0333511887225157,1.0333511887225157,0.0,0,False
2022-08-26,1.0333511887225157,1.0333511887225157,0.0,0,False
2022-08-27,1.0333511887225157,1.0333511887225157,0.0,0,False
2022-08-28,1.0333511887225157,1.0333511887225157,0.0,0,False
2022-08-29,1.0333511887225157,1.0333511887225157,0.0,0,False
2022-08-30,1.0333511887225157,1.0333511887225157,0.0,0,False
2022-08-31,1.0333511887225157,1.0333511887225157,0.0,0,False
2022-09-01,1.0333511887225157,1.0333511887225157,0.0,0,False
2022-09-02,1.0333511887225157,1.0333511887225157,0.0,0,False
2022-09-03,1.0333511887225157,1.0333511887225157,0.0,0,False
2022-09-04,1.0333511887225157,1.0333511887225157,0.0,0,False
2022-09-05,1.0333511887225157,1.0333511887225157,0.0,0,False
2022-09-06,1.0333511887225157,1.0333511887225157,0.0,0,False
2022-09-07,1.0333511887225157,1.025336253151081,-0.7756255239173115,4,True
2022-09-08,1.025336253151081,1.025336253151081,0.0,0,False
2022-09-09,1.025336253151081,1.025336253151081,0.0,0,False
2022-09-10,1.025336253151081,1.025336253151081,0.0,0,False
2022-09-11,1.025336253151081,1.025336253151081,0.0,0,False
2022-09-12,1.025336253151081,1.025336253151081,0.0,0,False
2022-09-13,1.025336253151081,1.0169703510103085,-0.8159179113254034,4,True
2022-09-14,1.0169703510103085,1.0122014477919121,-0.46893237483853767,0,True
2022-09-15,1.0122014477919121,1.017375916570046,0.5112093832133846,1,True
2022-09-16,1.017375916570046,1.017375916570046,0.0,0,False
2022-09-17,1.017375916570046,1.017375916570046,0.0,0,False
2022-09-18,1.017375916570046,1.017375916570046,0.0,0,False
2022-09-19,1.017375916570046,1.0177215004836573,0.033968163388053974,5,True
2022-09-20,1.0177215004836573,1.0177215004836573,0.0,0,False
2022-09-21,1.0177215004836573,1.0177215004836573,0.0,0,False
2022-09-22,1.0177215004836573,1.0177215004836573,0.0,0,False
2022-09-23,1.0177215004836573,1.0177215004836573,0.0,0,False
2022-09-24,1.0177215004836573,1.0177215004836573,0.0,0,False
2022-09-25,1.0177215004836573,1.0177215004836573,0.0,0,False
2022-09-26,1.0177215004836573,1.0177215004836573,0.0,0,False
2022-09-27,1.0177215004836573,1.0177215004836573,0.0,0,False
2022-09-28,1.0177215004836573,1.0177215004836573,0.0,0,False
2022-09-29,1.0177215004836573,1.0177215004836573,0.0,0,False
2022-09-30,1.0177215004836573,1.0177215004836573,0.0,0,False
2022-10-01,1.0177215004836573,1.0177215004836573,0.0,0,False
2022-10-02,1.0177215004836573,1.0177215004836573,0.0,0,False
2022-10-03,1.0177215004836573,1.0177215004836573,0.0,0,False
2022-10-04,1.0177215004836573,1.0177215004836573,0.0,0,False
2022-10-05,1.0177215004836573,1.0177215004836573,0.0,0,False
2022-10-06,1.0177215004836573,1.0177215004836573,0.0,0,False
2022-10-07,1.0177215004836573,1.0177215004836573,0.0,0,False
2022-10-08,1.0177215004836573,1.0177215004836573,0.0,0,False
2022-10-09,1.0177215004836573,1.0177215004836573,0.0,0,False
2022-10-10,1.0177215004836573,1.0177215004836573,0.0,0,False
2022-10-11,1.0177215004836573,1.0445225337488007,2.6334349085095132,4,True
2022-10-12,1.0445225337488007,1.0445225337488007,0.0,0,False
2022-10-13,1.0445225337488007,1.0445225337488007,0.0,0,False
2022-10-14,1.0445225337488007,1.0445225337488007,0.0,0,False
2022-10-15,1.0445225337488007,1.0445225337488007,0.0,0,False
2022-10-16,1.0445225337488007,1.0445225337488007,0.0,0,False
2022-10-17,1.0445225337488007,1.0445225337488007,0.0,0,False
2022-10-18,1.0445225337488007,1.0445225337488007,0.0,0,False
2022-10-19,1.0445225337488007,1.0445225337488007,0.0,0,False
2022-10-20,1.0445225337488007,1.0489098868947586,0.42003432230530713,1,True
2022-10-21,1.0489098868947586,1.0489098868947586,0.0,0,False
2022-10-22,1.0489098868947586,1.0489098868947586,0.0,0,False
2022-10-23,1.0489098868947586,1.0489098868947586,0.0,0,False
2022-10-24,1.0489098868947586,1.0489098868947586,0.0,0,False
2022-10-25,1.0489098868947586,1.0489098868947586,0.0,0,False
2022-10-26,1.0489098868947586,1.0489098868947586,0.0,0,False
2022-10-27,1.0489098868947586,1.0489098868947586,0.0,0,False
2022-10-28,1.0489098868947586,1.0489098868947586,0.0,0,False
2022-10-29,1.0489098868947586,1.0489098868947586,0.0,0,False
2022-10-30,1.0489098868947586,1.0489098868947586,0.0,0,False
2022-10-31,1.0489098868947586,1.0489098868947586,0.0,0,False
2022-11-01,1.0489098868947586,1.0489098868947586,0.0,0,False
2022-11-02,1.0489098868947586,1.0586543333444542,0.9290070168509468,1,True
2022-11-03,1.0586543333444542,1.0586543333444542,0.0,0,False
2022-11-04,1.0586543333444542,1.0633688412960358,0.44533024643536034,2,True
2022-11-05,1.0633688412960358,1.0633688412960358,0.0,0,False
2022-11-06,1.0633688412960358,1.0633688412960358,0.0,0,False
2022-11-07,1.0633688412960358,1.0637975377281912,0.04031493264677888,1,True
2022-11-08,1.0637975377281912,1.0558915477332032,-0.7431855888547889,3,True
2022-11-09,1.0558915477332032,1.0526708893560695,-0.3050179143916698,4,True
2022-11-10,1.0526708893560695,1.061660654144992,0.8539957625713024,1,True
2022-11-11,1.061660654144992,1.068165741652914,0.6127275681287125,5,True
2022-11-12,1.068165741652914,1.078695668105114,0.9857951852964009,1,True
2022-11-13,1.078695668105114,1.072197137752866,-0.6024433530602447,1,True
2022-11-14,1.072197137752866,1.0775783567797528,0.5018870912269824,2,True
2022-11-15,1.0775783567797528,1.0775783567797528,0.0,0,False
2022-11-16,1.0775783567797528,1.0775783567797528,0.0,0,False
2022-11-17,1.0775783567797528,1.0775783567797528,0.0,0,False
2022-11-18,1.0775783567797528,1.0775783567797528,0.0,0,False
2022-11-19,1.0775783567797528,1.077929096099516,0.032548845989399666,2,True
2022-11-20,1.077929096099516,1.0731694905971072,-0.4415508886095987,1,True
2022-11-21,1.0731694905971072,1.0669053015751595,-0.5837091975529729,1,True
2022-11-22,1.0669053015751595,1.0669053015751595,0.0,0,False
2022-11-23,1.0669053015751595,1.0669053015751595,0.0,0,False
2022-11-24,1.0669053015751595,1.0669053015751595,0.0,0,False
2022-11-25,1.0669053015751595,1.0669053015751595,0.0,0,False
2022-11-26,1.0669053015751595,1.0669053015751595,0.0,0,False
2022-11-27,1.0669053015751595,1.0669053015751595,0.0,0,False
2022-11-28,1.0669053015751595,1.0632843642795407,-0.3393869437402719,2,True
2022-11-29,1.0632843642795407,1.0632843642795407,0.0,0,False
2022-11-30,1.0632843642795407,1.0632843642795407,0.0,0,False
2022-12-01,1.0632843642795407,1.0632151668066865,-0.00650789903235971,1,True
2022-12-02,1.0632151668066865,1.0632151668066865,0.0,0,False
2022-12-03,1.0632151668066865,1.0632151668066865,0.0,0,False
2022-12-04,1.0632151668066865,1.0632151668066865,0.0,0,False
2022-12-05,1.0632151668066865,1.0632151668066865,0.0,0,False
2022-12-06,1.0632151668066865,1.0632151668066865,0.0,0,False
2022-12-07,1.0632151668066865,1.0632151668066865,0.0,0,False
2022-12-08,1.0632151668066865,1.0579090719249853,-0.4990612481232559,1,True
2022-12-09,1.0579090719249853,1.0579090719249853,0.0,0,False
2022-12-10,1.0579090719249853,1.0579090719249853,0.0,0,False
2022-12-11,1.0579090719249853,1.0579090719249853,0.0,0,False
2022-12-12,1.0579090719249853,1.0579090719249853,0.0,0,False
2022-12-13,1.0579090719249853,1.0579090719249853,0.0,0,False
2022-12-14,1.0579090719249853,1.0579090719249853,0.0,0,False
2022-12-15,1.0579090719249853,1.0579090719249853,0.0,0,False
2022-12-16,1.0579090719249853,1.0579090719249853,0.0,0,False
2022-12-17,1.0579090719249853,1.0746273401007655,1.5803123935178576,4,True
2022-12-18,1.0746273401007655,1.0746273401007655,0.0,0,False
2022-12-19,1.0746273401007655,1.0746273401007655,0.0,0,False
2022-12-20,1.0746273401007655,1.0746273401007655,0.0,0,False
2022-12-21,1.0746273401007655,1.0746273401007655,0.0,0,False
2022-12-22,1.0746273401007655,1.0746273401007655,0.0,0,False
2022-12-23,1.0746273401007655,1.0746273401007655,0.0,0,False
2022-12-24,1.0746273401007655,1.0746273401007655,0.0,0,False
2022-12-25,1.0746273401007655,1.0746273401007655,0.0,0,False
2022-12-26,1.0746273401007655,1.0746273401007655,0.0,0,False
2022-12-27,1.0746273401007655,1.0746273401007655,0.0,0,False
2022-12-28,1.0746273401007655,1.0775266769265417,0.26979927995358643,1,True
2022-12-29,1.0775266769265417,1.076439101937643,-0.10093253486780362,0,True
2022-12-30,1.076439101937643,1.076439101937643,0.0,0,False
2022-12-31,1.076439101937643,1.076439101937643,0.0,0,False
2023-01-01,1.076439101937643,1.076439101937643,0.0,0,False
2023-01-02,1.076439101937643,1.0768327849490784,0.03657271560713049,1,True
2023-01-03,1.0768327849490784,1.0769289789480485,0.00893304887394919,0,True
2023-01-04,1.0769289789480485,1.0769289789480485,0.0,0,False
2023-01-05,1.0769289789480485,1.0769289789480485,0.0,0,False
2023-01-06,1.0769289789480485,1.0769289789480485,0.0,0,False
2023-01-07,1.0769289789480485,1.0769289789480485,0.0,0,False
2023-01-08,1.0769289789480485,1.0769289789480485,0.0,0,False
2023-01-09,1.0769289789480485,1.0769289789480485,0.0,0,False
2023-01-10,1.0769289789480485,1.0747522463238923,-0.20212406451188825,2,True
2023-01-11,1.0747522463238923,1.0755044512521883,0.069988681658395,0,True
2023-01-12,1.0755044512521883,1.0755044512521883,0.0,0,False
2023-01-13,1.0755044512521883,1.0755044512521883,0.0,0,False
2023-01-14,1.0755044512521883,1.0755044512521883,0.0,0,False
2023-01-15,1.0755044512521883,1.0772635360294842,0.16355904201492688,1,True
2023-01-16,1.0772635360294842,1.0772635360294842,0.0,0,False
2023-01-17,1.0772635360294842,1.0772635360294842,0.0,0,False
2023-01-18,1.0772635360294842,1.0772635360294842,0.0,0,False
2023-01-19,1.0772635360294842,1.0718835601565153,-0.4994113040155512,1,True
2023-01-20,1.0718835601565153,1.0718835601565153,0.0,0,False
2023-01-21,1.0718835601565153,1.073278742668267,0.1301617604386074,1,True
2023-01-22,1.073278742668267,1.0725381481057283,-0.0690030029568578,0,True
2023-01-23,1.0725381481057283,1.0725381481057283,0.0,0,False
2023-01-24,1.0725381481057283,1.07908811150433,0.6106974759051642,1,True
2023-01-25,1.07908811150433,1.0862707085327394,0.6656172885082023,5,True
2023-01-26,1.0862707085327394,1.0862707085327394,0.0,0,False
2023-01-27,1.0862707085327394,1.0862707085327394,0.0,0,False
2023-01-28,1.0862707085327394,1.0862707085327394,0.0,0,False
2023-01-29,1.0862707085327394,1.0862707085327394,0.0,0,False
2023-01-30,1.0862707085327394,1.0864613535374275,0.0175504138324456,2,True
2023-01-31,1.0864613535374275,1.0827828819376955,-0.33857362599739593,2,True
2023-02-01,1.0827828819376955,1.0827828819376955,0.0,0,False
2023-02-02,1.0827828819376955,1.0827828819376955,0.0,0,False
2023-02-03,1.0827828819376955,1.0827828819376955,0.0,0,False
2023-02-04,1.0827828819376955,1.0827828819376955,0.0,0,False
2023-02-05,1.0827828819376955,1.0861386673466213,0.30992228127217913,4,True
2023-02-06,1.0861386673466213,1.1021276175407568,1.4720910575070079,1,True
2023-02-07,1.1021276175407568,1.1016276935034104,-0.04535990473244489,0,True
2023-02-08,1.1016276935034104,1.1016276935034104,0.0,0,False
2023-02-09,1.1016276935034104,1.1016276935034104,0.0,0,False
2023-02-10,1.1016276935034104,1.1016276935034104,0.0,0,False
2023-02-11,1.1016276935034104,1.1016276935034104,0.0,0,False
2023-02-12,1.1016276935034104,1.1016276935034104,0.0,0,False
2023-02-13,1.1016276935034104,1.1016276935034104,0.0,0,False
2023-02-14,1.1016276935034104,1.1016276935034104,0.0,0,False
2023-02-15,1.1016276935034104,1.1016276935034104,0.0,0,False
2023-02-16,1.1016276935034104,1.1016276935034104,0.0,0,False
2023-02-17,1.1016276935034104,1.1016276935034104,0.0,0,False
2023-02-18,1.1016276935034104,1.1016276935034104,0.0,0,False
2023-02-19,1.1016276935034104,1.1016276935034104,0.0,0,False
2023-02-20,1.1016276935034104,1.1016276935034104,0.0,0,False
2023-02-21,1.1016276935034104,1.1002576740840797,-0.1243631970592296,2,True
2023-02-22,1.1002576740840797,1.100649376233461,0.03560094681525072,0,True
2023-02-23,1.100649376233461,1.110847247057727,0.9265321949451621,1,True
2023-02-24,1.110847247057727,1.110847247057727,0.0,0,False
2023-02-25,1.110847247057727,1.110847247057727,0.0,0,False
2023-02-26,1.110847247057727,1.110847247057727,0.0,0,False
2023-02-27,1.110847247057727,1.1052989570545866,-0.49946471198772935,1,True
2023-02-28,1.1052989570545866,1.1052989570545866,0.0,0,False
2023-03-01,1.1052989570545866,1.1052989570545866,0.0,0,False
2023-03-02,1.1052989570545866,1.1052989570545866,0.0,0,False
2023-03-03,1.1052989570545866,1.1000614820995678,-0.473851433731165,5,True
2023-03-04,1.1000614820995678,1.1000614820995678,0.0,0,False
2023-03-05,1.1000614820995678,1.1000614820995678,0.0,0,False
2023-03-06,1.1000614820995678,1.1000614820995678,0.0,0,False
2023-03-07,1.1000614820995678,1.1000614820995678,0.0,0,False
2023-03-08,1.1000614820995678,1.1000614820995678,0.0,0,False
2023-03-09,1.1000614820995678,1.1000614820995678,0.0,0,False
2023-03-10,1.1000614820995678,1.1000614820995678,0.0,0,False
2023-03-11,1.1000614820995678,1.1059377390810297,0.5341753235688751,1,True
2023-03-12,1.1059377390810297,1.10262010408701,-0.2999838848773084,0,True
2023-03-13,1.10262010408701,1.10262010408701,0.0,0,False
2023-03-14,1.10262010408701,1.10262010408701,0.0,0,False
2023-03-15,1.10262010408701,1.10262010408701,0.0,0,False
2023-03-16,1.10262010408701,1.1054242063424513,0.2543126363329984,1,True
2023-03-17,1.1054242063424513,1.099904014781644,-0.4993731392107126,1,True
2023-03-18,1.099904014781644,1.099904014781644,0.0,0,False
2023-03-19,1.099904014781644,1.099904014781644,0.0,0,False
2023-03-20,1.099904014781644,1.099904014781644,0.0,0,False
2023-03-21,1.099904014781644,1.0944123995305086,-0.49928131703614875,1,True
2023-03-22,1.0944123995305086,1.0944123995305086,0.0,0,False
2023-03-23,1.0944123995305086,1.1051711399230595,0.9830609007323243,3,True
2023-03-24,1.1051711399230595,1.106514735213473,0.1215735049421518,0,True
2023-03-25,1.106514735213473,1.1009873191478883,-0.4995338868685195,1,True
2023-03-26,1.1009873191478883,1.1009873191478883,0.0,0,False
2023-03-27,1.1009873191478883,1.1009873191478883,0.0,0,False
2023-03-28,1.1009873191478883,1.1009873191478883,0.0,0,False
2023-03-29,1.1009873191478883,1.1009873191478883,0.0,0,False
2023-03-30,1.1009873191478883,1.1009873191478883,0.0,0,False
2023-03-31,1.1009873191478883,1.1009873191478883,0.0,0,False
2023-04-01,1.1009873191478883,1.1009873191478883,0.0,0,False
2023-04-02,1.1009873191478883,1.1009873191478883,0.0,0,False
2023-04-03,1.1009873191478883,1.1009873191478883,0.0,0,False
2023-04-04,1.1009873191478883,1.1009873191478883,0.0,0,False
2023-04-05,1.1009873191478883,1.1009873191478883,0.0,0,False
2023-04-06,1.1009873191478883,1.0954838806033809,-0.49986393565066845,1,True
2023-04-07,1.0954838806033809,1.0913495229819468,-0.37740013291267527,1,True
2023-04-08,1.0913495229819468,1.0913495229819468,0.0,0,False
2023-04-09,1.0913495229819468,1.0913495229819468,0.0,0,False
2023-04-10,1.0913495229819468,1.0913495229819468,0.0,0,False
2023-04-11,1.0913495229819468,1.0913495229819468,0.0,0,False
2023-04-12,1.0913495229819468,1.0913495229819468,0.0,0,False
2023-04-13,1.0913495229819468,1.0913495229819468,0.0,0,False
2023-04-14,1.0913495229819468,1.0913495229819468,0.0,0,False
2023-04-15,1.0913495229819468,1.0913495229819468,0.0,0,False
2023-04-16,1.0913495229819468,1.0913495229819468,0.0,0,False
2023-04-17,1.0913495229819468,1.0913495229819468,0.0,0,False
2023-04-18,1.0913495229819468,1.0913495229819468,0.0,0,False
2023-04-19,1.0913495229819468,1.0804615140184755,-0.9976647017466478,2,True
2023-04-20,1.0804615140184755,1.0804615140184755,0.0,0,False
2023-04-21,1.0804615140184755,1.0804615140184755,0.0,0,False
2023-04-22,1.0804615140184755,1.0804615140184755,0.0,0,False
2023-04-23,1.0804615140184755,1.0804615140184755,0.0,0,False
2023-04-24,1.0804615140184755,1.0804615140184755,0.0,0,False
2023-04-25,1.0804615140184755,1.0804615140184755,0.0,0,False
2023-04-26,1.0804615140184755,1.0804615140184755,0.0,0,False
2023-04-27,1.0804615140184755,1.0804615140184755,0.0,0,False
2023-04-28,1.0804615140184755,1.0804615140184755,0.0,0,False
2023-04-29,1.0804615140184755,1.0804615140184755,0.0,0,False
2023-04-30,1.0804615140184755,1.0804615140184755,0.0,0,False
2023-05-01,1.0804615140184755,1.0804615140184755,0.0,0,False
2023-05-02,1.0804615140184755,1.0804615140184755,0.0,0,False
2023-05-03,1.0804615140184755,1.0804615140184755,0.0,0,False
2023-05-04,1.0804615140184755,1.0804615140184755,0.0,0,False
2023-05-05,1.0804615140184755,1.0804615140184755,0.0,0,False
2023-05-06,1.0804615140184755,1.0804615140184755,0.0,0,False
2023-05-07,1.0804615140184755,1.0804615140184755,0.0,0,False
2023-05-08,1.0804615140184755,1.07882612174467,-0.1513605299760412,5,True
2023-05-09,1.07882612174467,1.0766473281280349,-0.20195966455758274,2,True
2023-05-10,1.0766473281280349,1.0782651337698972,0.15026328488412233,1,True
2023-05-11,1.0782651337698972,1.079862564499053,0.1481482317406302,0,True
2023-05-12,1.079862564499053,1.079862564499053,0.0,0,False
2023-05-13,1.079862564499053,1.079862564499053,0.0,0,False
2023-05-14,1.079862564499053,1.079862564499053,0.0,0,False
2023-05-15,1.079862564499053,1.079862564499053,0.0,0,False
2023-05-16,1.079862564499053,1.079862564499053,0.0,0,False
2023-05-17,1.079862564499053,1.079862564499053,0.0,0,False
2023-05-18,1.079862564499053,1.079862564499053,0.0,0,False
2023-05-19,1.079862564499053,1.079862564499053,0.0,0,False
2023-05-20,1.079862564499053,1.079862564499053,0.0,0,False
2023-05-21,1.079862564499053,1.079862564499053,0.0,0,False
2023-05-22,1.079862564499053,1.079862564499053,0.0,0,False
2023-05-23,1.079862564499053,1.079862564499053,0.0,0,False
2023-05-24,1.079862564499053,1.079862564499053,0.0,0,False
2023-05-25,1.079862564499053,1.079862564499053,0.0,0,False
2023-05-26,1.079862564499053,1.0820005251270217,0.19798451194208422,1,True
2023-05-27,1.0820005251270217,1.0857130968248878,0.34312106248102214,0,True
2023-05-28,1.0857130968248878,1.0857130968248878,0.0,0,False
2023-05-29,1.0857130968248878,1.0857130968248878,0.0,0,False
2023-05-30,1.0857130968248878,1.0857130968248878,0.0,0,False
2023-05-31,1.0857130968248878,1.0857130968248878,0.0,0,False
2023-06-01,1.0857130968248878,1.0857130968248878,0.0,0,False
2023-06-02,1.0857130968248878,1.0959829414593294,0.9459077784430558,1,True
2023-06-03,1.0959829414593294,1.0959829414593294,0.0,0,False
2023-06-04,1.0959829414593294,1.0959829414593294,0.0,0,False
2023-06-05,1.0959829414593294,1.0959829414593294,0.0,0,False
2023-06-06,1.0959829414593294,1.088279872325232,-0.7028457143539613,4,True
2023-06-07,1.088279872325232,1.088279872325232,0.0,0,False
2023-06-08,1.088279872325232,1.0879827266012012,-0.02730416426759419,1,True
2023-06-09,1.0879827266012012,1.0879827266012012,0.0,0,False
2023-06-10,1.0879827266012012,1.1059002428480367,1.6468566833601095,5,True
2023-06-11,1.1059002428480367,1.1050890739782053,-0.07334918995427486,0,True
2023-06-12,1.1050890739782053,1.1050890739782053,0.0,0,False
2023-06-13,1.1050890739782053,1.1050890739782053,0.0,0,False
2023-06-14,1.1050890739782053,1.1050890739782053,0.0,0,False
2023-06-15,1.1050890739782053,1.1050890739782053,0.0,0,False
2023-06-16,1.1050890739782053,1.1050890739782053,0.0,0,False
2023-06-17,1.1050890739782053,1.1050890739782053,0.0,0,False
2023-06-18,1.1050890739782053,1.1050890739782053,0.0,0,False
2023-06-19,1.1050890739782053,1.110938548386914,0.5293215313088906,1,True
2023-06-20,1.110938548386914,1.1118561132907854,0.08259366867804374,0,True
2023-06-21,1.1118561132907854,1.1118561132907854,0.0,0,False
2023-06-22,1.1118561132907854,1.1062971903058516,-0.4999678392270446,1,True
2023-06-23,1.1062971903058516,1.1062971903058516,0.0,0,False
2023-06-24,1.1062971903058516,1.1062971903058516,0.0,0,False
2023-06-25,1.1062971903058516,1.1062971903058516,0.0,0,False
2023-06-26,1.1062971903058516,1.1062971903058516,0.0,0,False
2023-06-27,1.1062971903058516,1.1062971903058516,0.0,0,False
2023-06-28,1.1062971903058516,1.1062971903058516,0.0,0,False
2023-06-29,1.1062971903058516,1.1062971903058516,0.0,0,False
2023-06-30,1.1062971903058516,1.0842326460600755,-1.99444999400894,4,True
2023-07-01,1.0842326460600755,1.078818071035885,-0.4993923623187513,1,True
2023-07-02,1.078818071035885,1.078818071035885,0.0,0,False
2023-07-03,1.078818071035885,1.078818071035885,0.0,0,False
2023-07-04,1.078818071035885,1.078818071035885,0.0,0,False
2023-07-05,1.078818071035885,1.078818071035885,0.0,0,False
2023-07-06,1.078818071035885,1.078818071035885,0.0,0,False
2023-07-07,1.078818071035885,1.078818071035885,0.0,0,False
2023-07-08,1.078818071035885,1.078818071035885,0.0,0,False
2023-07-09,1.078818071035885,1.078818071035885,0.0,0,False
2023-07-10,1.078818071035885,1.078818071035885,0.0,0,False
2023-07-11,1.078818071035885,1.078818071035885,0.0,0,False
2023-07-12,1.078818071035885,1.078818071035885,0.0,0,False
2023-07-13,1.078818071035885,1.078818071035885,0.0,0,False
2023-07-14,1.078818071035885,1.078818071035885,0.0,0,False
2023-07-15,1.078818071035885,1.078818071035885,0.0,0,False
2023-07-16,1.078818071035885,1.078818071035885,0.0,0,False
2023-07-17,1.078818071035885,1.078818071035885,0.0,0,False
2023-07-18,1.078818071035885,1.078818071035885,0.0,0,False
2023-07-19,1.078818071035885,1.078818071035885,0.0,0,False
2023-07-20,1.078818071035885,1.078818071035885,0.0,0,False
2023-07-21,1.078818071035885,1.078818071035885,0.0,0,False
2023-07-22,1.078818071035885,1.078818071035885,0.0,0,False
2023-07-23,1.078818071035885,1.078818071035885,0.0,0,False
2023-07-24,1.078818071035885,1.0787798809171307,-0.0035399962032167664,1,True
2023-07-25,1.0787798809171307,1.0791546672937595,0.034741691355066884,0,True
2023-07-26,1.0791546672937595,1.0791546672937595,0.0,0,False
2023-07-27,1.0791546672937595,1.0791546672937595,0.0,0,False
2023-07-28,1.0791546672937595,1.0791546672937595,0.0,0,False
2023-07-29,1.0791546672937595,1.0791546672937595,0.0,0,False
2023-07-30,1.0791546672937595,1.0791546672937595,0.0,0,False
2023-07-31,1.0791546672937595,1.0791546672937595,0.0,0,False
2023-08-01,1.0791546672937595,1.0791546672937595,0.0,0,False
2023-08-02,1.0791546672937595,1.0791546672937595,0.0,0,False
2023-08-03,1.0791546672937595,1.0791546672937595,0.0,0,False
2023-08-04,1.0791546672937595,1.0791546672937595,0.0,0,False
2023-08-05,1.0791546672937595,1.0791546672937595,0.0,0,False
2023-08-06,1.0791546672937595,1.0791546672937595,0.0,0,False
2023-08-07,1.0791546672937595,1.0791546672937595,0.0,0,False
2023-08-08,1.0791546672937595,1.0791546672937595,0.0,0,False
2023-08-09,1.0791546672937595,1.0791546672937595,0.0,0,False
2023-08-10,1.0791546672937595,1.0791546672937595,0.0,0,False
2023-08-11,1.0791546672937595,1.0791546672937595,0.0,0,False
2023-08-12,1.0791546672937595,1.0791546672937595,0.0,0,False
2023-08-13,1.0791546672937595,1.0791546672937595,0.0,0,False
2023-08-14,1.0791546672937595,1.0791546672937595,0.0,0,False
2023-08-15,1.0791546672937595,1.0791546672937595,0.0,0,False
2023-08-16,1.0791546672937595,1.0879213609264482,0.8123667439323912,4,True
2023-08-17,1.0879213609264482,1.0879213609264482,0.0,0,False
2023-08-18,1.0879213609264482,1.1282936099482286,3.7109528750681298,4,True
2023-08-19,1.1282936099482286,1.1282936099482286,0.0,0,False
2023-08-20,1.1282936099482286,1.1282936099482286,0.0,0,False
2023-08-21,1.1282936099482286,1.1282936099482286,0.0,0,False
2023-08-22,1.1282936099482286,1.1282936099482286,0.0,0,False
2023-08-23,1.1282936099482286,1.1282936099482286,0.0,0,False
2023-08-24,1.1282936099482286,1.1282936099482286,0.0,0,False
2023-08-25,1.1282936099482286,1.111449288119462,-1.4929023509704598,3,True
2023-08-26,1.111449288119462,1.111449288119462,0.0,0,False
2023-08-27,1.111449288119462,1.111449288119462,0.0,0,False
2023-08-28,1.111449288119462,1.111449288119462,0.0,0,False
2023-08-29,1.111449288119462,1.111449288119462,0.0,0,False
2023-08-30,1.111449288119462,1.111449288119462,0.0,0,False
2023-08-31,1.111449288119462,1.111449288119462,0.0,0,False
2023-09-01,1.111449288119462,1.111449288119462,0.0,0,False
2023-09-02,1.111449288119462,1.1135911255389823,0.19270671567428455,1,True
2023-09-03,1.1135911255389823,1.1142413119955472,0.05838646175007067,0,True
2023-09-04,1.1142413119955472,1.1142413119955472,0.0,0,False
2023-09-05,1.1142413119955472,1.1142413119955472,0.0,0,False
2023-09-06,1.1142413119955472,1.1142413119955472,0.0,0,False
2023-09-07,1.1142413119955472,1.1142413119955472,0.0,0,False
2023-09-08,1.1142413119955472,1.1142413119955472,0.0,0,False
2023-09-09,1.1142413119955472,1.1142413119955472,0.0,0,False
2023-09-10,1.1142413119955472,1.112700140174414,-0.13831580327720028,2,True
2023-09-11,1.112700140174414,1.1097571616374262,-0.26448981452690257,1,True
2023-09-12,1.1097571616374262,1.1097571616374262,0.0,0,False
2023-09-13,1.1097571616374262,1.1201934801487887,0.9404146125053137,1,True
2023-09-14,1.1201934801487887,1.1201934801487887,0.0,0,False
2023-09-15,1.1201934801487887,1.1201934801487887,0.0,0,False
2023-09-16,1.1201934801487887,1.1201934801487887,0.0,0,False
2023-09-17,1.1201934801487887,1.1201934801487887,0.0,0,False
2023-09-18,1.1201934801487887,1.114598600047601,-0.4994565849860799,1,True
2023-09-19,1.114598600047601,1.114598600047601,0.0,0,False
2023-09-20,1.114598600047601,1.1173820296992065,0.24972484726668576,1,True
2023-09-21,1.1173820296992065,1.1207603137686917,0.3023392161044969,0,True
2023-09-22,1.1207603137686917,1.1207603137686917,0.0,0,False
2023-09-23,1.1207603137686917,1.1207603137686917,0.0,0,False
2023-09-24,1.1207603137686917,1.1207603137686917,0.0,0,False
2023-09-25,1.1207603137686917,1.1207603137686917,0.0,0,False
2023-09-26,1.1207603137686917,1.1218326818813804,0.09568219890681018,1,True
2023-09-27,1.1218326818813804,1.1203438546470113,-0.1327138403449224,0,True
2023-09-28,1.1203438546470113,1.1203438546470113,0.0,0,False
2023-09-29,1.1203438546470113,1.1203438546470113,0.0,0,False
2023-09-30,1.1203438546470113,1.1203438546470113,0.0,0,False
2023-10-01,1.1203438546470113,1.1203438546470113,0.0,0,False
2023-10-02,1.1203438546470113,1.1203438546470113,0.0,0,False
2023-10-03,1.1203438546470113,1.12077516936568,0.038498423218880085,1,True
2023-10-04,1.12077516936568,1.1147436847417491,-0.5381529488509673,0,True
2023-10-05,1.1147436847417491,1.1147436847417491,0.0,0,False
2023-10-06,1.1147436847417491,1.1147436847417491,0.0,0,False
2023-10-07,1.1147436847417491,1.1147436847417491,0.0,0,False
2023-10-08,1.1147436847417491,1.1147436847417491,0.0,0,False
2023-10-09,1.1147436847417491,1.1147436847417491,0.0,0,False
2023-10-10,1.1147436847417491,1.1147436847417491,0.0,0,False
2023-10-11,1.1147436847417491,1.1147436847417491,0.0,0,False
2023-10-12,1.1147436847417491,1.1147436847417491,0.0,0,False
2023-10-13,1.1147436847417491,1.1147436847417491,0.0,0,False
2023-10-14,1.1147436847417491,1.1147436847417491,0.0,0,False
2023-10-15,1.1147436847417491,1.114795270016475,0.004627545814517298,1,True
2023-10-16,1.114795270016475,1.115715595232352,0.08255553648550684,1,True
2023-10-17,1.115715595232352,1.1096079999949737,-0.5474150637919895,1,True
2023-10-18,1.1096079999949737,1.1096079999949737,0.0,0,False
2023-10-19,1.1096079999949737,1.098551910400055,-0.9963959880398221,2,True
2023-10-20,1.098551910400055,1.098551910400055,0.0,0,False
2023-10-21,1.098551910400055,1.099638328930609,0.09889551147004294,1,True
2023-10-22,1.099638328930609,1.099638328930609,0.0,0,False
2023-10-23,1.099638328930609,1.099638328930609,0.0,0,False
2023-10-24,1.099638328930609,1.099638328930609,0.0,0,False
2023-10-25,1.099638328930609,1.099638328930609,0.0,0,False
2023-10-26,1.099638328930609,1.1106744474277872,1.0036134797075213,2,True
2023-10-27,1.1106744474277872,1.111756393524997,0.09741343196609797,1,True
2023-10-28,1.111756393524997,1.113199394748554,0.1297947312883574,0,True
2023-10-29,1.113199394748554,1.113199394748554,0.0,0,False
2023-10-30,1.113199394748554,1.113199394748554,0.0,0,False
2023-10-31,1.113199394748554,1.113199394748554,0.0,0,False
2023-11-01,1.113199394748554,1.113199394748554,0.0,0,False
2023-11-02,1.113199394748554,1.113199394748554,0.0,0,False
2023-11-03,1.113199394748554,1.113199394748554,0.0,0,False
2023-11-04,1.113199394748554,1.113199394748554,0.0,0,False
2023-11-05,1.113199394748554,1.113199394748554,0.0,0,False
2023-11-06,1.113199394748554,1.113199394748554,0.0,0,False
2023-11-07,1.113199394748554,1.1076379951930202,-0.4995870085601206,1,True
2023-11-08,1.1076379951930202,1.1076379951930202,0.0,0,False
2023-11-09,1.1076379951930202,1.106953044538925,-0.06183885502913933,3,True
2023-11-10,1.106953044538925,1.1216246267373713,1.3254023981258634,4,True
2023-11-11,1.1216246267373713,1.1216246267373713,0.0,0,False
2023-11-12,1.1216246267373713,1.1216246267373713,0.0,0,False
2023-11-13,1.1216246267373713,1.1216246267373713,0.0,0,False
2023-11-14,1.1216246267373713,1.1216246267373713,0.0,0,False
2023-11-15,1.1216246267373713,1.1216246267373713,0.0,0,False
2023-11-16,1.1216246267373713,1.1216246267373713,0.0,0,False
2023-11-17,1.1216246267373713,1.1216246267373713,0.0,0,False
2023-11-18,1.1216246267373713,1.1216246267373713,0.0,0,False
2023-11-19,1.1216246267373713,1.1216246267373713,0.0,0,False
2023-11-20,1.1216246267373713,1.123566985353284,0.17317367768239222,1,True
2023-11-21,1.123566985353284,1.1195717929515807,-0.35558114948055497,0,True
2023-11-22,1.1195717929515807,1.117904285706735,-0.148941519904644,1,True
2023-11-23,1.117904285706735,1.117904285706735,0.0,0,False
2023-11-24,1.117904285706735,1.117904285706735,0.0,0,False
2023-11-25,1.117904285706735,1.1284104393778933,0.9398079786872238,1,True
2023-11-26,1.1284104393778933,1.1284104393778933,0.0,0,False
2023-11-27,1.1284104393778933,1.122775619769219,-0.4993590463219122,1,True
2023-11-28,1.122775619769219,1.122775619769219,0.0,0,False
2023-11-29,1.122775619769219,1.1171675770032603,-0.4994802761313366,1,True
2023-11-30,1.1171675770032603,1.1171675770032603,0.0,0,False
2023-12-01,1.1171675770032603,1.1171675770032603,0.0,0,False
2023-12-02,1.1171675770032603,1.1171675770032603,0.0,0,False
2023-12-03,1.1171675770032603,1.1180775915010237,0.08145729579840388,1,True
2023-12-04,1.1180775915010237,1.1286381000969306,0.9445237679550855,4,True
2023-12-05,1.1286381000969306,1.1348667682072995,0.5518746983496303,0,True
2023-12-06,1.1348667682072995,1.1348667682072995,0.0,0,False
2023-12-07,1.1348667682072995,1.1291983973787825,-0.49947456276925317,1,True
2023-12-08,1.1291983973787825,1.1291983973787825,0.0,0,False
2023-12-09,1.1291983973787825,1.1291983973787825,0.0,0,False
2023-12-10,1.1291983973787825,1.1291983973787825,0.0,0,False
2023-12-11,1.1291983973787825,1.146717814003907,1.5514914532107404,4,True
2023-12-12,1.146717814003907,1.146717814003907,0.0,0,False
2023-12-13,1.146717814003907,1.146039984081771,-0.05911043796984483,1,True
2023-12-14,1.146039984081771,1.146039984081771,0.0,0,False
2023-12-15,1.146039984081771,1.146039984081771,0.0,0,False
2023-12-16,1.146039984081771,1.146039984081771,0.0,0,False
2023-12-17,1.146039984081771,1.146039984081771,0.0,0,False
2023-12-18,1.146039984081771,1.1501925656618446,0.3623417714697652,1,True
2023-12-19,1.1501925656618446,1.1472960565039578,-0.2518281933269195,0,True
2023-12-20,1.1472960565039578,1.1472960565039578,0.0,0,False
2023-12-21,1.1472960565039578,1.1472960565039578,0.0,0,False
2023-12-22,1.1472960565039578,1.1472960565039578,0.0,0,False
2023-12-23,1.1472960565039578,1.1472960565039578,0.0,0,False
2023-12-24,1.1472960565039578,1.145666785162652,-0.14200966978571428,1,True
2023-12-25,1.145666785162652,1.1492726140237262,0.31473626605682536,0,True
2023-12-26,1.1492726140237262,1.1492726140237262,0.0,0,False
2023-12-27,1.1492726140237262,1.1408565372734076,-0.7322959450719813,2,True
2023-12-28,1.1408565372734076,1.1408565372734076,0.0,0,False
2023-12-29,1.1408565372734076,1.1408565372734076,0.0,0,False
2023-12-30,1.1408565372734076,1.1408565372734076,0.0,0,False
2023-12-31,1.1408565372734076,1.1408565372734076,0.0,0,False
