day,start_equity,end_equity,return_pct,entries,active
2021-09-02,1.0,1.0,0.0,0,False
2021-09-03,1.0,1.0,0.0,0,False
2021-09-04,1.0,1.0,0.0,0,False
2021-09-05,1.0,1.0,0.0,0,False
2021-09-06,1.0,1.0,0.0,0,False
2021-09-07,1.0,1.0,0.0,0,False
2021-09-08,1.0,1.0,0.0,0,False
2021-09-09,1.0,1.0,0.0,0,False
2021-09-10,1.0,1.0,0.0,0,False
2021-09-11,1.0,1.0,0.0,0,False
2021-09-12,1.0,1.0,0.0,0,False
2021-09-13,1.0,1.0,0.0,0,False
2021-09-14,1.0,1.0,0.0,0,False
2021-09-15,1.0,1.0,0.0,0,False
2021-09-16,1.0,1.0,0.0,0,False
2021-09-17,1.0,1.0,0.0,0,False
2021-09-18,1.0,1.0,0.0,0,False
2021-09-19,1.0,1.0,0.0,0,False
2021-09-20,1.0,1.0,0.0,0,False
2021-09-21,1.0,1.0,0.0,0,False
2021-09-22,1.0,1.0,0.0,0,False
2021-09-23,1.0,1.0,0.0,0,False
2021-09-24,1.0,1.0,0.0,0,False
2021-09-25,1.0,1.0,0.0,0,False
2021-09-26,1.0,1.0,0.0,0,False
2021-09-27,1.0,1.0,0.0,0,False
2021-09-28,1.0,1.0,0.0,0,False
2021-09-29,1.0,1.0,0.0,0,False
2021-09-30,1.0,1.0,0.0,0,False
2021-10-01,1.0,1.0,0.0,0,False
2021-10-02,1.0,1.0,0.0,0,False
2021-10-03,1.0,1.0,0.0,0,False
2021-10-04,1.0,1.0,0.0,0,False
2021-10-05,1.0,0.9993927768733932,-0.06072231266067707,1,True
2021-10-06,0.9993927768733932,1.001462836963209,0.2071317841912057,3,True
2021-10-07,1.001462836963209,0.9921245380864658,-0.9324658421734577,2,True
2021-10-08,0.9921245380864658,0.9915463266172426,-0.05828012986539566,1,True
2021-10-09,0.9915463266172426,0.9925648569534974,0.10272140684839393,3,True
2021-10-10,0.9925648569534974,0.9866416853011333,-0.5967541174633384,1,True
2021-10-11,0.9866416853011333,0.9866416853011333,0.0,0,False
2021-10-12,0.9866416853011333,0.9866416853011333,0.0,0,False
2021-10-13,0.9866416853011333,1.0008768443348255,1.442789134674305,4,True
2021-10-14,1.0008768443348255,1.0106902750496696,0.980483340222138,0,True
2021-10-15,1.0106902750496696,1.011103413213607,0.040876831818437154,4,True
2021-10-16,1.011103413213607,1.024957145279684,1.3701597566608381,2,True
2021-10-17,1.024957145279684,1.024957145279684,0.0,0,False
2021-10-18,1.024957145279684,1.0273204567103937,0.23057660913861078,1,True
2021-10-19,1.0273204567103937,1.0273204567103937,0.0,0,False
2021-10-20,1.0273204567103937,1.0273204567103937,0.0,0,False
2021-10-21,1.0273204567103937,1.0273204567103937,0.0,0,False
2021-10-22,1.0273204567103937,1.0273204567103937,0.0,0,False
2021-10-23,1.0273204567103937,1.0273204567103937,0.0,0,False
2021-10-24,1.0273204567103937,1.0273204567103937,0.0,0,False
2021-10-25,1.0273204567103937,1.03952867264258,1.1883551867815978,2,True
2021-10-26,1.03952867264258,1.04017203810824,0.061890112566542754,0,True
2021-10-27,1.04017203810824,1.0424934562998371,0.22317636953779196,7,True
2021-10-28,1.0424934562998371,1.0390270305390492,-0.332512951504893,3,True
2021-10-29,1.0390270305390492,1.0332907966550657,-0.5520774450889387,0,True
2021-10-30,1.0332907966550657,1.0347482474783547,0.14104943429351646,1,True
2021-10-31,1.0347482474783547,1.0290114892538613,-0.5544110114197975,1,True
2021-11-01,1.0290114892538613,1.038133544765469,0.8864872362331022,2,True
2021-11-02,1.038133544765469,1.034024924215004,-0.395769944163904,1,True
2021-11-03,1.034024924215004,1.0332065629867737,-0.07914327876105132,1,True
2021-11-04,1.0332065629867737,1.0551334530750904,2.1222174610400213,1,True
2021-11-05,1.0551334530750904,1.037793009463331,-1.643436056474401,3,True
2021-11-06,1.037793009463331,1.0305067232439094,-0.702094363035799,2,True
2021-11-07,1.0305067232439094,1.0305067232439094,0.0,0,False
2021-11-08,1.0305067232439094,1.0305067232439094,0.0,0,False
2021-11-09,1.0305067232439094,1.0305067232439094,0.0,0,False
2021-11-10,1.0305067232439094,1.0305067232439094,0.0,0,False
2021-11-11,1.0305067232439094,1.0086695127951055,-2.1190750100167133,8,True
2021-11-12,1.0086695127951055,1.0056290454918178,-0.30143344918420745,1,True
2021-11-13,1.0056290454918178,1.0048013732441499,-0.08230393218834342,1,True
2021-11-14,1.0048013732441499,1.0048013732441499,0.0,0,False
2021-11-15,1.0048013732441499,1.0048013732441499,0.0,0,False
2021-11-16,1.0048013732441499,1.0282289322745888,2.331561207445376,7,True
2021-11-17,1.0282289322745888,1.0176206243452268,-1.0317068112346228,0,True
2021-11-18,1.0176206243452268,1.0066026796277574,-1.0827163339539037,4,True
2021-11-19,1.0066026796277574,1.0214807472002871,1.4780476819346022,5,True
2021-11-20,1.0214807472002871,1.0205800092537483,-0.08817963030705034,0,True
2021-11-21,1.0205800092537483,1.018087620042673,-0.24421301499896186,1,True
2021-11-22,1.018087620042673,1.005527069737662,-1.2337396170758463,5,True
2021-11-23,1.005527069737662,1.0031417763468633,-0.23721821744897564,0,True
2021-11-24,1.0031417763468633,0.9986502443566905,-0.44774647971791426,2,True
2021-11-25,0.9986502443566905,0.9924274384700515,-0.6231216506282999,5,True
2021-11-26,0.9924274384700515,0.9638845359803181,-2.87606946193828,6,True
2021-11-27,0.9638845359803181,0.9638845359803181,0.0,0,False
2021-11-28,0.9638845359803181,0.959624471434899,-0.44196834645617855,6,True
2021-11-29,0.959624471434899,0.956885127522809,-0.28545998915534554,1,True
2021-11-30,0.956885127522809,0.9523145513457287,-0.47765150127399014,3,True
2021-12-01,0.9523145513457287,0.9535199651573347,0.1265772753238581,3,True
2021-12-02,0.9535199651573347,0.9528548724940898,-0.06975130962624254,5,True
2021-12-03,0.9528548724940898,0.9499679280027714,-0.3029784046506334,2,True
2021-12-04,0.9499679280027714,0.9288466441379172,-2.2233680993062555,12,True
2021-12-05,0.9288466441379172,0.9304869907370654,0.1766003688015383,3,True
2021-12-06,0.9304869907370654,0.9270494834829632,-0.3694309848845112,15,True
2021-12-07,0.9270494834829632,0.9402401959816779,1.4228703789528563,0,True
2021-12-08,0.9402401959816779,0.9415969905241169,0.14430297154255367,2,True
2021-12-09,0.9415969905241169,0.9392062441089845,-0.25390336196823293,2,True
2021-12-10,0.9392062441089845,0.9321404528923195,-0.7523151875303169,4,True
2021-12-11,0.9321404528923195,0.9287369823612569,-0.3651242171179292,2,True
2021-12-12,0.9287369823612569,0.9287369823612569,0.0,0,False
2021-12-13,0.9287369823612569,0.9257626514879376,-0.320255457660068,2,True
2021-12-14,0.9257626514879376,0.9250294608863834,-0.07919855055459335,1,True
2021-12-15,0.9250294608863834,0.9250741002446563,0.004825722872658922,1,True
2021-12-16,0.9250741002446563,0.9250741002446563,0.0,0,False
2021-12-17,0.9250741002446563,0.9228557713668689,-0.23980012814116547,5,True
2021-12-18,0.9228557713668689,0.9225948010526489,-0.028278559046501783,1,True
2021-12-19,0.9225948010526489,0.9201496841192712,-0.2650260906074786,1,True
2021-12-20,0.9201496841192712,0.9201496841192712,0.0,0,False
2021-12-21,0.9201496841192712,0.9185335559685112,-0.17563752709505165,1,True
2021-12-22,0.9185335559685112,0.9182714358432479,-0.028536804514112113,0,True
2021-12-23,0.9182714358432479,0.9182714358432479,0.0,0,False
2021-12-24,0.9182714358432479,0.9182714358432479,0.0,0,False
2021-12-25,0.9182714358432479,0.9200698222718571,0.19584475334983864,2,True
2021-12-26,0.9200698222718571,0.9194379551654625,-0.06867599513636913,0,True
2021-12-27,0.9194379551654625,0.9194379551654625,0.0,0,False
2021-12-28,0.9194379551654625,0.9180155448656323,-0.15470432690307678,1,True
2021-12-29,0.9180155448656323,0.9180155448656323,0.0,0,False
2021-12-30,0.9180155448656323,0.9180155448656323,0.0,0,False
2021-12-31,0.9180155448656323,0.9180155448656323,0.0,0,False
2022-01-01,0.9180155448656323,0.9180155448656323,0.0,0,False
2022-01-02,0.9180155448656323,0.9180155448656323,0.0,0,False
2022-01-03,0.9180155448656323,0.9180155448656323,0.0,0,False
2022-01-04,0.9180155448656323,0.9180155448656323,0.0,0,False
2022-01-05,0.9180155448656323,0.9180191832498376,0.00039633143746886645,1,True
2022-01-06,0.9180191832498376,0.9055710906196826,-1.3559730403550074,8,True
2022-01-07,0.9055710906196826,0.9010605384851619,-0.49808923686313067,5,True
2022-01-08,0.9010605384851619,0.9010605384851619,0.0,0,False
2022-01-09,0.9010605384851619,0.9013645171105735,0.03373564954056718,1,True
2022-01-10,0.9013645171105735,0.900919430511418,-0.049379201278332285,0,True
2022-01-11,0.900919430511418,0.900919430511418,0.0,0,False
2022-01-12,0.900919430511418,0.900919430511418,0.0,0,False
2022-01-13,0.900919430511418,0.900919430511418,0.0,0,False
2022-01-14,0.900919430511418,0.900919430511418,0.0,0,False
2022-01-15,0.900919430511418,0.9011254554946563,0.022868302787215633,1,True
2022-01-16,0.9011254554946563,0.9006938483995627,-0.04789644909727331,0,True
2022-01-17,0.9006938483995627,0.9019400765564997,0.13836312517858662,1,True
2022-01-18,0.9019400765564997,0.9019400765564997,0.0,0,False
2022-01-19,0.9019400765564997,0.9007264212772501,-0.13456052245545136,1,True
2022-01-20,0.9007264212772501,0.9007264212772501,0.0,0,False
2022-01-21,0.9007264212772501,0.8966966019375733,-0.4473965950685055,4,True
2022-01-22,0.8966966019375733,0.8966966019375733,0.0,0,False
2022-01-23,0.8966966019375733,0.8966966019375733,0.0,0,False
2022-01-24,0.8966966019375733,0.8966966019375733,0.0,0,False
2022-01-25,0.8966966019375733,0.8966966019375733,0.0,0,False
2022-01-26,0.8966966019375733,0.8966966019375733,0.0,0,False
2022-01-27,0.8966966019375733,0.8966966019375733,0.0,0,False
2022-01-28,0.8966966019375733,0.8966966019375733,0.0,0,False
2022-01-29,0.8966966019375733,0.8966966019375733,0.0,0,False
2022-01-30,0.8966966019375733,0.8966966019375733,0.0,0,False
2022-01-31,0.8966966019375733,0.8966966019375733,0.0,0,False
2022-02-01,0.8966966019375733,0.8966966019375733,0.0,0,False
2022-02-02,0.8966966019375733,0.8966966019375733,0.0,0,False
2022-02-03,0.8966966019375733,0.8966966019375733,0.0,0,False
2022-02-04,0.8966966019375733,0.8966966019375733,0.0,0,False
2022-02-05,0.8966966019375733,0.8966966019375733,0.0,0,False
2022-02-06,0.8966966019375733,0.8966966019375733,0.0,0,False
2022-02-07,0.8966966019375733,0.8966966019375733,0.0,0,False
2022-02-08,0.8966966019375733,0.8966966019375733,0.0,0,False
2022-02-09,0.8966966019375733,0.8966966019375733,0.0,0,False
2022-02-10,0.8966966019375733,0.8966966019375733,0.0,0,False
2022-02-11,0.8966966019375733,0.8966966019375733,0.0,0,False
2022-02-12,0.8966966019375733,0.8966966019375733,0.0,0,False
2022-02-13,0.8966966019375733,0.8966966019375733,0.0,0,False
2022-02-14,0.8966966019375733,0.8966966019375733,0.0,0,False
2022-02-15,0.8966966019375733,0.8966966019375733,0.0,0,False
2022-02-16,0.8966966019375733,0.8966966019375733,0.0,0,False
2022-02-17,0.8966966019375733,0.8966966019375733,0.0,0,False
2022-02-18,0.8966966019375733,0.8966966019375733,0.0,0,False
2022-02-19,0.8966966019375733,0.8966966019375733,0.0,0,False
2022-02-20,0.8966966019375733,0.8966966019375733,0.0,0,False
2022-02-21,0.8966966019375733,0.8966966019375733,0.0,0,False
2022-02-22,0.8966966019375733,0.8966966019375733,0.0,0,False
2022-02-23,0.8966966019375733,0.8966966019375733,0.0,0,False
2022-02-24,0.8966966019375733,0.8966966019375733,0.0,0,False
2022-02-25,0.8966966019375733,0.8966966019375733,0.0,0,False
2022-02-26,0.8966966019375733,0.8966966019375733,0.0,0,False
2022-02-27,0.8966966019375733,0.8966966019375733,0.0,0,False
2022-02-28,0.8966966019375733,0.8966966019375733,0.0,0,False
2022-03-01,0.8966966019375733,0.8966966019375733,0.0,0,False
2022-03-02,0.8966966019375733,0.8966966019375733,0.0,0,False
2022-03-03,0.8966966019375733,0.8966966019375733,0.0,0,False
2022-03-04,0.8966966019375733,0.8966966019375733,0.0,0,False
2022-03-05,0.8966966019375733,0.8966966019375733,0.0,0,False
2022-03-06,0.8966966019375733,0.8966966019375733,0.0,0,False
2022-03-07,0.8966966019375733,0.8966966019375733,0.0,0,False
2022-03-08,0.8966966019375733,0.8966966019375733,0.0,0,False
2022-03-09,0.8966966019375733,0.8966966019375733,0.0,0,False
2022-03-10,0.8966966019375733,0.8966966019375733,0.0,0,False
2022-03-11,0.8966966019375733,0.8966966019375733,0.0,0,False
2022-03-12,0.8966966019375733,0.8966966019375733,0.0,0,False
2022-03-13,0.8966966019375733,0.8966966019375733,0.0,0,False
2022-03-14,0.8966966019375733,0.8966966019375733,0.0,0,False
2022-03-15,0.8966966019375733,0.8966966019375733,0.0,0,False
2022-03-16,0.8966966019375733,0.8966966019375733,0.0,0,False
2022-03-17,0.8966966019375733,0.8966966019375733,0.0,0,False
2022-03-18,0.8966966019375733,0.8966966019375733,0.0,0,False
2022-03-19,0.8966966019375733,0.8966966019375733,0.0,0,False
2022-03-20,0.8966966019375733,0.8966966019375733,0.0,0,False
2022-03-21,0.8966966019375733,0.8966966019375733,0.0,0,False
2022-03-22,0.8966966019375733,0.8966966019375733,0.0,0,False
2022-03-23,0.8966966019375733,0.8966966019375733,0.0,0,False
2022-03-24,0.8966966019375733,0.8966966019375733,0.0,0,False
2022-03-25,0.8966966019375733,0.8966966019375733,0.0,0,False
2022-03-26,0.8966966019375733,0.8966966019375733,0.0,0,False
2022-03-27,0.8966966019375733,0.8966966019375733,0.0,0,False
2022-03-28,0.8966966019375733,0.8966966019375733,0.0,0,False
2022-03-29,0.8966966019375733,0.8966966019375733,0.0,0,False
2022-03-30,0.8966966019375733,0.8966966019375733,0.0,0,False
2022-03-31,0.8966966019375733,0.8966966019375733,0.0,0,False
2022-04-01,0.8966966019375733,0.8966966019375733,0.0,0,False
2022-04-02,0.8966966019375733,0.8966966019375733,0.0,0,False
2022-04-03,0.8966966019375733,0.8966966019375733,0.0,0,False
2022-04-04,0.8966966019375733,0.8966966019375733,0.0,0,False
2022-04-05,0.8966966019375733,0.8966966019375733,0.0,0,False
2022-04-06,0.8966966019375733,0.8966966019375733,0.0,0,False
2022-04-07,0.8966966019375733,0.8966966019375733,0.0,0,False
2022-04-08,0.8966966019375733,0.8966966019375733,0.0,0,False
2022-04-09,0.8966966019375733,0.8966966019375733,0.0,0,False
2022-04-10,0.8966966019375733,0.8966966019375733,0.0,0,False
2022-04-11,0.8966966019375733,0.8966966019375733,0.0,0,False
2022-04-12,0.8966966019375733,0.8966966019375733,0.0,0,False
2022-04-13,0.8966966019375733,0.8966966019375733,0.0,0,False
2022-04-14,0.8966966019375733,0.8966966019375733,0.0,0,False
2022-04-15,0.8966966019375733,0.8966966019375733,0.0,0,False
2022-04-16,0.8966966019375733,0.8966966019375733,0.0,0,False
2022-04-17,0.8966966019375733,0.8966966019375733,0.0,0,False
2022-04-18,0.8966966019375733,0.8966966019375733,0.0,0,False
2022-04-19,0.8966966019375733,0.8966966019375733,0.0,0,False
2022-04-20,0.8966966019375733,0.8966966019375733,0.0,0,False
2022-04-21,0.8966966019375733,0.8966966019375733,0.0,0,False
2022-04-22,0.8966966019375733,0.8966966019375733,0.0,0,False
2022-04-23,0.8966966019375733,0.8966966019375733,0.0,0,False
2022-04-24,0.8966966019375733,0.8966966019375733,0.0,0,False
2022-04-25,0.8966966019375733,0.8966966019375733,0.0,0,False
2022-04-26,0.8966966019375733,0.8966966019375733,0.0,0,False
2022-04-27,0.8966966019375733,0.8966966019375733,0.0,0,False
2022-04-28,0.8966966019375733,0.8966966019375733,0.0,0,False
2022-04-29,0.8966966019375733,0.8966966019375733,0.0,0,False
2022-04-30,0.8966966019375733,0.8966966019375733,0.0,0,False
2022-05-01,0.8966966019375733,0.8966966019375733,0.0,0,False
2022-05-02,0.8966966019375733,0.8966966019375733,0.0,0,False
2022-05-03,0.8966966019375733,0.8966966019375733,0.0,0,False
2022-05-04,0.8966966019375733,0.8966966019375733,0.0,0,False
2022-05-05,0.8966966019375733,0.8966966019375733,0.0,0,False
2022-05-06,0.8966966019375733,0.8966966019375733,0.0,0,False
2022-05-07,0.8966966019375733,0.8966966019375733,0.0,0,False
2022-05-08,0.8966966019375733,0.8966966019375733,0.0,0,False
2022-05-09,0.8966966019375733,0.8966966019375733,0.0,0,False
2022-05-10,0.8966966019375733,0.8966966019375733,0.0,0,False
2022-05-11,0.8966966019375733,0.8966966019375733,0.0,0,False
2022-05-12,0.8966966019375733,0.8966966019375733,0.0,0,False
2022-05-13,0.8966966019375733,0.8966966019375733,0.0,0,False
2022-05-14,0.8966966019375733,0.8966966019375733,0.0,0,False
2022-05-15,0.8966966019375733,0.8966966019375733,0.0,0,False
2022-05-16,0.8966966019375733,0.8966966019375733,0.0,0,False
2022-05-17,0.8966966019375733,0.8966966019375733,0.0,0,False
2022-05-18,0.8966966019375733,0.8966966019375733,0.0,0,False
2022-05-19,0.8966966019375733,0.8966966019375733,0.0,0,False
2022-05-20,0.8966966019375733,0.8966966019375733,0.0,0,False
2022-05-21,0.8966966019375733,0.8966966019375733,0.0,0,False
2022-05-22,0.8966966019375733,0.8966966019375733,0.0,0,False
2022-05-23,0.8966966019375733,0.8966966019375733,0.0,0,False
2022-05-24,0.8966966019375733,0.8966966019375733,0.0,0,False
2022-05-25,0.8966966019375733,0.8966966019375733,0.0,0,False
2022-05-26,0.8966966019375733,0.8966966019375733,0.0,0,False
2022-05-27,0.8966966019375733,0.8966966019375733,0.0,0,False
2022-05-28,0.8966966019375733,0.8966966019375733,0.0,0,False
2022-05-29,0.8966966019375733,0.8966966019375733,0.0,0,False
2022-05-30,0.8966966019375733,0.8966966019375733,0.0,0,False
2022-05-31,0.8966966019375733,0.8966966019375733,0.0,0,False
2022-06-01,0.8966966019375733,0.8966966019375733,0.0,0,False
2022-06-02,0.8966966019375733,0.8966966019375733,0.0,0,False
2022-06-03,0.8966966019375733,0.8966966019375733,0.0,0,False
2022-06-04,0.8966966019375733,0.8966966019375733,0.0,0,False
2022-06-05,0.8966966019375733,0.8966966019375733,0.0,0,False
2022-06-06,0.8966966019375733,0.8966966019375733,0.0,0,False
2022-06-07,0.8966966019375733,0.8966966019375733,0.0,0,False
2022-06-08,0.8966966019375733,0.8966966019375733,0.0,0,False
2022-06-09,0.8966966019375733,0.8966966019375733,0.0,0,False
2022-06-10,0.8966966019375733,0.8966966019375733,0.0,0,False
2022-06-11,0.8966966019375733,0.8966966019375733,0.0,0,False
2022-06-12,0.8966966019375733,0.8966966019375733,0.0,0,False
2022-06-13,0.8966966019375733,0.8966966019375733,0.0,0,False
2022-06-14,0.8966966019375733,0.8966966019375733,0.0,0,False
2022-06-15,0.8966966019375733,0.8966966019375733,0.0,0,False
2022-06-16,0.8966966019375733,0.8966966019375733,0.0,0,False
2022-06-17,0.8966966019375733,0.8966966019375733,0.0,0,False
2022-06-18,0.8966966019375733,0.8966966019375733,0.0,0,False
2022-06-19,0.8966966019375733,0.8966966019375733,0.0,0,False
2022-06-20,0.8966966019375733,0.8966966019375733,0.0,0,False
2022-06-21,0.8966966019375733,0.8966966019375733,0.0,0,False
2022-06-22,0.8966966019375733,0.8966966019375733,0.0,0,False
2022-06-23,0.8966966019375733,0.8966966019375733,0.0,0,False
2022-06-24,0.8966966019375733,0.8966966019375733,0.0,0,False
2022-06-25,0.8966966019375733,0.8966966019375733,0.0,0,False
2022-06-26,0.8966966019375733,0.8966966019375733,0.0,0,False
2022-06-27,0.8966966019375733,0.8966966019375733,0.0,0,False
2022-06-28,0.8966966019375733,0.8966966019375733,0.0,0,False
2022-06-29,0.8966966019375733,0.8966966019375733,0.0,0,False
2022-06-30,0.8966966019375733,0.8966966019375733,0.0,0,False
2022-07-01,0.8966966019375733,0.8966966019375733,0.0,0,False
2022-07-02,0.8966966019375733,0.8966966019375733,0.0,0,False
2022-07-03,0.8966966019375733,0.8966966019375733,0.0,0,False
2022-07-04,0.8966966019375733,0.8966966019375733,0.0,0,False
2022-07-05,0.8966966019375733,0.8966966019375733,0.0,0,False
2022-07-06,0.8966966019375733,0.8966966019375733,0.0,0,False
2022-07-07,0.8966966019375733,0.8966966019375733,0.0,0,False
2022-07-08,0.8966966019375733,0.8966966019375733,0.0,0,False
2022-07-09,0.8966966019375733,0.8966966019375733,0.0,0,False
2022-07-10,0.8966966019375733,0.8966966019375733,0.0,0,False
2022-07-11,0.8966966019375733,0.8966966019375733,0.0,0,False
2022-07-12,0.8966966019375733,0.8966966019375733,0.0,0,False
2022-07-13,0.8966966019375733,0.8966966019375733,0.0,0,False
2022-07-14,0.8966966019375733,0.8966966019375733,0.0,0,False
2022-07-15,0.8966966019375733,0.8966966019375733,0.0,0,False
2022-07-16,0.8966966019375733,0.8966966019375733,0.0,0,False
2022-07-17,0.8966966019375733,0.8966966019375733,0.0,0,False
2022-07-18,0.8966966019375733,0.8966966019375733,0.0,0,False
2022-07-19,0.8966966019375733,0.8966966019375733,0.0,0,False
2022-07-20,0.8966966019375733,0.8966966019375733,0.0,0,False
2022-07-21,0.8966966019375733,0.8966966019375733,0.0,0,False
2022-07-22,0.8966966019375733,0.8966966019375733,0.0,0,False
2022-07-23,0.8966966019375733,0.8966966019375733,0.0,0,False
2022-07-24,0.8966966019375733,0.8966966019375733,0.0,0,False
2022-07-25,0.8966966019375733,0.8966966019375733,0.0,0,False
2022-07-26,0.8966966019375733,0.8966966019375733,0.0,0,False
2022-07-27,0.8966966019375733,0.8966966019375733,0.0,0,False
2022-07-28,0.8966966019375733,0.8966966019375733,0.0,0,False
2022-07-29,0.8966966019375733,0.8966966019375733,0.0,0,False
2022-07-30,0.8966966019375733,0.8966966019375733,0.0,0,False
2022-07-31,0.8966966019375733,0.8966966019375733,0.0,0,False
2022-08-01,0.8966966019375733,0.8966966019375733,0.0,0,False
2022-08-02,0.8966966019375733,0.8966966019375733,0.0,0,False
2022-08-03,0.8966966019375733,0.8966966019375733,0.0,0,False
2022-08-04,0.8966966019375733,0.8966966019375733,0.0,0,False
2022-08-05,0.8966966019375733,0.8966966019375733,0.0,0,False
2022-08-06,0.8966966019375733,0.8966966019375733,0.0,0,False
2022-08-07,0.8966966019375733,0.8966966019375733,0.0,0,False
2022-08-08,0.8966966019375733,0.8966966019375733,0.0,0,False
2022-08-09,0.8966966019375733,0.8966966019375733,0.0,0,False
2022-08-10,0.8966966019375733,0.8966966019375733,0.0,0,False
2022-08-11,0.8966966019375733,0.8966966019375733,0.0,0,False
2022-08-12,0.8966966019375733,0.8966966019375733,0.0,0,False
2022-08-13,0.8966966019375733,0.8966966019375733,0.0,0,False
2022-08-14,0.8966966019375733,0.8966966019375733,0.0,0,False
2022-08-15,0.8966966019375733,0.8966966019375733,0.0,0,False
2022-08-16,0.8966966019375733,0.8966966019375733,0.0,0,False
2022-08-17,0.8966966019375733,0.8966966019375733,0.0,0,False
2022-08-18,0.8966966019375733,0.8966966019375733,0.0,0,False
2022-08-19,0.8966966019375733,0.8966966019375733,0.0,0,False
2022-08-20,0.8966966019375733,0.8966966019375733,0.0,0,False
2022-08-21,0.8966966019375733,0.8966966019375733,0.0,0,False
2022-08-22,0.8966966019375733,0.8966966019375733,0.0,0,False
2022-08-23,0.8966966019375733,0.8966966019375733,0.0,0,False
2022-08-24,0.8966966019375733,0.8966966019375733,0.0,0,False
2022-08-25,0.8966966019375733,0.8966966019375733,0.0,0,False
2022-08-26,0.8966966019375733,0.8966966019375733,0.0,0,False
2022-08-27,0.8966966019375733,0.8966966019375733,0.0,0,False
2022-08-28,0.8966966019375733,0.8966966019375733,0.0,0,False
2022-08-29,0.8966966019375733,0.8966966019375733,0.0,0,False
2022-08-30,0.8966966019375733,0.8966966019375733,0.0,0,False
2022-08-31,0.8966966019375733,0.8966966019375733,0.0,0,False
2022-09-01,0.8966966019375733,0.8966966019375733,0.0,0,False
2022-09-02,0.8966966019375733,0.8966966019375733,0.0,0,False
2022-09-03,0.8966966019375733,0.8966966019375733,0.0,0,False
2022-09-04,0.8966966019375733,0.8966966019375733,0.0,0,False
2022-09-05,0.8966966019375733,0.8966966019375733,0.0,0,False
2022-09-06,0.8966966019375733,0.8966966019375733,0.0,0,False
2022-09-07,0.8966966019375733,0.8966966019375733,0.0,0,False
2022-09-08,0.8966966019375733,0.8966966019375733,0.0,0,False
2022-09-09,0.8966966019375733,0.8966966019375733,0.0,0,False
2022-09-10,0.8966966019375733,0.8966966019375733,0.0,0,False
2022-09-11,0.8966966019375733,0.8966966019375733,0.0,0,False
2022-09-12,0.8966966019375733,0.8966966019375733,0.0,0,False
2022-09-13,0.8966966019375733,0.8966966019375733,0.0,0,False
2022-09-14,0.8966966019375733,0.8966966019375733,0.0,0,False
2022-09-15,0.8966966019375733,0.8966966019375733,0.0,0,False
2022-09-16,0.8966966019375733,0.8966966019375733,0.0,0,False
2022-09-17,0.8966966019375733,0.8966966019375733,0.0,0,False
2022-09-18,0.8966966019375733,0.8966966019375733,0.0,0,False
2022-09-19,0.8966966019375733,0.8966966019375733,0.0,0,False
2022-09-20,0.8966966019375733,0.8966966019375733,0.0,0,False
2022-09-21,0.8966966019375733,0.8966966019375733,0.0,0,False
2022-09-22,0.8966966019375733,0.8966966019375733,0.0,0,False
2022-09-23,0.8966966019375733,0.8966966019375733,0.0,0,False
2022-09-24,0.8966966019375733,0.8966966019375733,0.0,0,False
2022-09-25,0.8966966019375733,0.8966966019375733,0.0,0,False
2022-09-26,0.8966966019375733,0.8966966019375733,0.0,0,False
2022-09-27,0.8966966019375733,0.8966966019375733,0.0,0,False
2022-09-28,0.8966966019375733,0.8966966019375733,0.0,0,False
2022-09-29,0.8966966019375733,0.8966966019375733,0.0,0,False
2022-09-30,0.8966966019375733,0.8966966019375733,0.0,0,False
2022-10-01,0.8966966019375733,0.8966966019375733,0.0,0,False
2022-10-02,0.8966966019375733,0.8966966019375733,0.0,0,False
2022-10-03,0.8966966019375733,0.8966966019375733,0.0,0,False
2022-10-04,0.8966966019375733,0.8966966019375733,0.0,0,False
2022-10-05,0.8966966019375733,0.8966966019375733,0.0,0,False
2022-10-06,0.8966966019375733,0.8966966019375733,0.0,0,False
2022-10-07,0.8966966019375733,0.8966966019375733,0.0,0,False
2022-10-08,0.8966966019375733,0.8966966019375733,0.0,0,False
2022-10-09,0.8966966019375733,0.8966966019375733,0.0,0,False
2022-10-10,0.8966966019375733,0.8966966019375733,0.0,0,False
2022-10-11,0.8966966019375733,0.8966966019375733,0.0,0,False
2022-10-12,0.8966966019375733,0.8966966019375733,0.0,0,False
2022-10-13,0.8966966019375733,0.8966966019375733,0.0,0,False
2022-10-14,0.8966966019375733,0.8966966019375733,0.0,0,False
2022-10-15,0.8966966019375733,0.8966966019375733,0.0,0,False
2022-10-16,0.8966966019375733,0.8966966019375733,0.0,0,False
2022-10-17,0.8966966019375733,0.8966966019375733,0.0,0,False
2022-10-18,0.8966966019375733,0.8966966019375733,0.0,0,False
2022-10-19,0.8966966019375733,0.8966966019375733,0.0,0,False
2022-10-20,0.8966966019375733,0.8966966019375733,0.0,0,False
2022-10-21,0.8966966019375733,0.8966966019375733,0.0,0,False
2022-10-22,0.8966966019375733,0.8966966019375733,0.0,0,False
2022-10-23,0.8966966019375733,0.8966966019375733,0.0,0,False
2022-10-24,0.8966966019375733,0.8966966019375733,0.0,0,False
2022-10-25,0.8966966019375733,0.8966966019375733,0.0,0,False
2022-10-26,0.8966966019375733,0.8966966019375733,0.0,0,False
2022-10-27,0.8966966019375733,0.8966966019375733,0.0,0,False
2022-10-28,0.8966966019375733,0.8966966019375733,0.0,0,False
2022-10-29,0.8966966019375733,0.8966966019375733,0.0,0,False
2022-10-30,0.8966966019375733,0.8966966019375733,0.0,0,False
2022-10-31,0.8966966019375733,0.8966966019375733,0.0,0,False
2022-11-01,0.8966966019375733,0.8966966019375733,0.0,0,False
2022-11-02,0.8966966019375733,0.8966966019375733,0.0,0,False
2022-11-03,0.8966966019375733,0.8966966019375733,0.0,0,False
2022-11-04,0.8966966019375733,0.8966966019375733,0.0,0,False
2022-11-05,0.8966966019375733,0.8966966019375733,0.0,0,False
2022-11-06,0.8966966019375733,0.8966966019375733,0.0,0,False
2022-11-07,0.8966966019375733,0.8966966019375733,0.0,0,False
2022-11-08,0.8966966019375733,0.8966966019375733,0.0,0,False
2022-11-09,0.8966966019375733,0.8966966019375733,0.0,0,False
2022-11-10,0.8966966019375733,0.8966966019375733,0.0,0,False
2022-11-11,0.8966966019375733,0.8966966019375733,0.0,0,False
2022-11-12,0.8966966019375733,0.8966966019375733,0.0,0,False
2022-11-13,0.8966966019375733,0.8966966019375733,0.0,0,False
2022-11-14,0.8966966019375733,0.8966966019375733,0.0,0,False
2022-11-15,0.8966966019375733,0.8966966019375733,0.0,0,False
2022-11-16,0.8966966019375733,0.8966966019375733,0.0,0,False
2022-11-17,0.8966966019375733,0.8966966019375733,0.0,0,False
2022-11-18,0.8966966019375733,0.8966966019375733,0.0,0,False
2022-11-19,0.8966966019375733,0.8966966019375733,0.0,0,False
2022-11-20,0.8966966019375733,0.8966966019375733,0.0,0,False
2022-11-21,0.8966966019375733,0.8966966019375733,0.0,0,False
2022-11-22,0.8966966019375733,0.8966966019375733,0.0,0,False
2022-11-23,0.8966966019375733,0.8966966019375733,0.0,0,False
2022-11-24,0.8966966019375733,0.8966966019375733,0.0,0,False
2022-11-25,0.8966966019375733,0.8966966019375733,0.0,0,False
2022-11-26,0.8966966019375733,0.8966966019375733,0.0,0,False
2022-11-27,0.8966966019375733,0.8966966019375733,0.0,0,False
2022-11-28,0.8966966019375733,0.8966966019375733,0.0,0,False
2022-11-29,0.8966966019375733,0.8966966019375733,0.0,0,False
2022-11-30,0.8966966019375733,0.8966966019375733,0.0,0,False
2022-12-01,0.8966966019375733,0.8966966019375733,0.0,0,False
2022-12-02,0.8966966019375733,0.8966966019375733,0.0,0,False
2022-12-03,0.8966966019375733,0.8966966019375733,0.0,0,False
2022-12-04,0.8966966019375733,0.8966966019375733,0.0,0,False
2022-12-05,0.8966966019375733,0.8966966019375733,0.0,0,False
2022-12-06,0.8966966019375733,0.8966966019375733,0.0,0,False
2022-12-07,0.8966966019375733,0.8966966019375733,0.0,0,False
2022-12-08,0.8966966019375733,0.8966966019375733,0.0,0,False
2022-12-09,0.8966966019375733,0.8966966019375733,0.0,0,False
2022-12-10,0.8966966019375733,0.8966966019375733,0.0,0,False
2022-12-11,0.8966966019375733,0.8966966019375733,0.0,0,False
2022-12-12,0.8966966019375733,0.8966966019375733,0.0,0,False
2022-12-13,0.8966966019375733,0.8966966019375733,0.0,0,False
2022-12-14,0.8966966019375733,0.8966966019375733,0.0,0,False
2022-12-15,0.8966966019375733,0.8966966019375733,0.0,0,False
2022-12-16,0.8966966019375733,0.8966966019375733,0.0,0,False
2022-12-17,0.8966966019375733,0.8966966019375733,0.0,0,False
2022-12-18,0.8966966019375733,0.8966966019375733,0.0,0,False
2022-12-19,0.8966966019375733,0.8966966019375733,0.0,0,False
2022-12-20,0.8966966019375733,0.8966966019375733,0.0,0,False
2022-12-21,0.8966966019375733,0.8966966019375733,0.0,0,False
2022-12-22,0.8966966019375733,0.8966966019375733,0.0,0,False
2022-12-23,0.8966966019375733,0.8966966019375733,0.0,0,False
2022-12-24,0.8966966019375733,0.8966966019375733,0.0,0,False
2022-12-25,0.8966966019375733,0.8966966019375733,0.0,0,False
2022-12-26,0.8966966019375733,0.8966966019375733,0.0,0,False
2022-12-27,0.8966966019375733,0.8966966019375733,0.0,0,False
2022-12-28,0.8966966019375733,0.8966966019375733,0.0,0,False
2022-12-29,0.8966966019375733,0.8966966019375733,0.0,0,False
2022-12-30,0.8966966019375733,0.8966966019375733,0.0,0,False
2022-12-31,0.8966966019375733,0.8966966019375733,0.0,0,False
2023-01-01,0.8966966019375733,0.8966966019375733,0.0,0,False
2023-01-02,0.8966966019375733,0.8966966019375733,0.0,0,False
2023-01-03,0.8966966019375733,0.8966966019375733,0.0,0,False
2023-01-04,0.8966966019375733,0.8966966019375733,0.0,0,False
2023-01-05,0.8966966019375733,0.8966966019375733,0.0,0,False
2023-01-06,0.8966966019375733,0.8966966019375733,0.0,0,False
2023-01-07,0.8966966019375733,0.8966966019375733,0.0,0,False
2023-01-08,0.8966966019375733,0.8966966019375733,0.0,0,False
2023-01-09,0.8966966019375733,0.8966966019375733,0.0,0,False
2023-01-10,0.8966966019375733,0.8966966019375733,0.0,0,False
2023-01-11,0.8966966019375733,0.8966966019375733,0.0,0,False
2023-01-12,0.8966966019375733,0.8966966019375733,0.0,0,False
2023-01-13,0.8966966019375733,0.8966966019375733,0.0,0,False
2023-01-14,0.8966966019375733,0.8966966019375733,0.0,0,False
2023-01-15,0.8966966019375733,0.8966966019375733,0.0,0,False
2023-01-16,0.8966966019375733,0.8966966019375733,0.0,0,False
2023-01-17,0.8966966019375733,0.8966966019375733,0.0,0,False
2023-01-18,0.8966966019375733,0.8966966019375733,0.0,0,False
2023-01-19,0.8966966019375733,0.8966966019375733,0.0,0,False
2023-01-20,0.8966966019375733,0.8966966019375733,0.0,0,False
2023-01-21,0.8966966019375733,0.8966966019375733,0.0,0,False
2023-01-22,0.8966966019375733,0.8966966019375733,0.0,0,False
2023-01-23,0.8966966019375733,0.8966966019375733,0.0,0,False
2023-01-24,0.8966966019375733,0.8966966019375733,0.0,0,False
2023-01-25,0.8966966019375733,0.8966966019375733,0.0,0,False
2023-01-26,0.8966966019375733,0.8966966019375733,0.0,0,False
2023-01-27,0.8966966019375733,0.8966966019375733,0.0,0,False
2023-01-28,0.8966966019375733,0.8966966019375733,0.0,0,False
2023-01-29,0.8966966019375733,0.8966966019375733,0.0,0,False
2023-01-30,0.8966966019375733,0.8966966019375733,0.0,0,False
2023-01-31,0.8966966019375733,0.8966966019375733,0.0,0,False
2023-02-01,0.8966966019375733,0.8966966019375733,0.0,0,False
2023-02-02,0.8966966019375733,0.8966966019375733,0.0,0,False
2023-02-03,0.8966966019375733,0.8966966019375733,0.0,0,False
2023-02-04,0.8966966019375733,0.8966966019375733,0.0,0,False
2023-02-05,0.8966966019375733,0.8966966019375733,0.0,0,False
2023-02-06,0.8966966019375733,0.8966966019375733,0.0,0,False
2023-02-07,0.8966966019375733,0.8966966019375733,0.0,0,False
2023-02-08,0.8966966019375733,0.8966966019375733,0.0,0,False
2023-02-09,0.8966966019375733,0.8966966019375733,0.0,0,False
2023-02-10,0.8966966019375733,0.8966966019375733,0.0,0,False
2023-02-11,0.8966966019375733,0.8966966019375733,0.0,0,False
2023-02-12,0.8966966019375733,0.8966966019375733,0.0,0,False
2023-02-13,0.8966966019375733,0.8966966019375733,0.0,0,False
2023-02-14,0.8966966019375733,0.8966966019375733,0.0,0,False
2023-02-15,0.8966966019375733,0.8966966019375733,0.0,0,False
2023-02-16,0.8966966019375733,0.8966966019375733,0.0,0,False
2023-02-17,0.8966966019375733,0.8966966019375733,0.0,0,False
2023-02-18,0.8966966019375733,0.8966966019375733,0.0,0,False
2023-02-19,0.8966966019375733,0.8966966019375733,0.0,0,False
2023-02-20,0.8966966019375733,0.8966966019375733,0.0,0,False
2023-02-21,0.8966966019375733,0.8966966019375733,0.0,0,False
2023-02-22,0.8966966019375733,0.8966966019375733,0.0,0,False
2023-02-23,0.8966966019375733,0.8966966019375733,0.0,0,False
2023-02-24,0.8966966019375733,0.8966966019375733,0.0,0,False
2023-02-25,0.8966966019375733,0.8966966019375733,0.0,0,False
2023-02-26,0.8966966019375733,0.8966966019375733,0.0,0,False
2023-02-27,0.8966966019375733,0.8966966019375733,0.0,0,False
2023-02-28,0.8966966019375733,0.8966966019375733,0.0,0,False
2023-03-01,0.8966966019375733,0.8966966019375733,0.0,0,False
2023-03-02,0.8966966019375733,0.8966966019375733,0.0,0,False
2023-03-03,0.8966966019375733,0.8966966019375733,0.0,0,False
2023-03-04,0.8966966019375733,0.8966966019375733,0.0,0,False
2023-03-05,0.8966966019375733,0.8966966019375733,0.0,0,False
2023-03-06,0.8966966019375733,0.8966966019375733,0.0,0,False
2023-03-07,0.8966966019375733,0.8966966019375733,0.0,0,False
2023-03-08,0.8966966019375733,0.8966966019375733,0.0,0,False
2023-03-09,0.8966966019375733,0.8966966019375733,0.0,0,False
2023-03-10,0.8966966019375733,0.8966966019375733,0.0,0,False
2023-03-11,0.8966966019375733,0.8966966019375733,0.0,0,False
2023-03-12,0.8966966019375733,0.8966966019375733,0.0,0,False
2023-03-13,0.8966966019375733,0.8966966019375733,0.0,0,False
2023-03-14,0.8966966019375733,0.8966966019375733,0.0,0,False
2023-03-15,0.8966966019375733,0.8966966019375733,0.0,0,False
2023-03-16,0.8966966019375733,0.8966966019375733,0.0,0,False
2023-03-17,0.8966966019375733,0.8966966019375733,0.0,0,False
2023-03-18,0.8966966019375733,0.8966966019375733,0.0,0,False
2023-03-19,0.8966966019375733,0.8966966019375733,0.0,0,False
2023-03-20,0.8966966019375733,0.8966966019375733,0.0,0,False
2023-03-21,0.8966966019375733,0.8966966019375733,0.0,0,False
2023-03-22,0.8966966019375733,0.8966966019375733,0.0,0,False
2023-03-23,0.8966966019375733,0.8966966019375733,0.0,0,False
2023-03-24,0.8966966019375733,0.8966966019375733,0.0,0,False
2023-03-25,0.8966966019375733,0.8966966019375733,0.0,0,False
2023-03-26,0.8966966019375733,0.8966966019375733,0.0,0,False
2023-03-27,0.8966966019375733,0.8966966019375733,0.0,0,False
2023-03-28,0.8966966019375733,0.8966966019375733,0.0,0,False
2023-03-29,0.8966966019375733,0.8966966019375733,0.0,0,False
2023-03-30,0.8966966019375733,0.8966966019375733,0.0,0,False
2023-03-31,0.8966966019375733,0.8966966019375733,0.0,0,False
2023-04-01,0.8966966019375733,0.8966966019375733,0.0,0,False
2023-04-02,0.8966966019375733,0.8966966019375733,0.0,0,False
2023-04-03,0.8966966019375733,0.8966966019375733,0.0,0,False
2023-04-04,0.8966966019375733,0.8966966019375733,0.0,0,False
2023-04-05,0.8966966019375733,0.8966966019375733,0.0,0,False
2023-04-06,0.8966966019375733,0.8966966019375733,0.0,0,False
2023-04-07,0.8966966019375733,0.8966966019375733,0.0,0,False
2023-04-08,0.8966966019375733,0.8966966019375733,0.0,0,False
2023-04-09,0.8966966019375733,0.8966966019375733,0.0,0,False
2023-04-10,0.8966966019375733,0.8966966019375733,0.0,0,False
2023-04-11,0.8966966019375733,0.8966966019375733,0.0,0,False
2023-04-12,0.8966966019375733,0.8966966019375733,0.0,0,False
2023-04-13,0.8966966019375733,0.8966966019375733,0.0,0,False
2023-04-14,0.8966966019375733,0.8966966019375733,0.0,0,False
2023-04-15,0.8966966019375733,0.8966966019375733,0.0,0,False
2023-04-16,0.8966966019375733,0.8966966019375733,0.0,0,False
2023-04-17,0.8966966019375733,0.8966966019375733,0.0,0,False
2023-04-18,0.8966966019375733,0.8966966019375733,0.0,0,False
2023-04-19,0.8966966019375733,0.8966966019375733,0.0,0,False
2023-04-20,0.8966966019375733,0.8966966019375733,0.0,0,False
2023-04-21,0.8966966019375733,0.8966966019375733,0.0,0,False
2023-04-22,0.8966966019375733,0.8966966019375733,0.0,0,False
2023-04-23,0.8966966019375733,0.8966966019375733,0.0,0,False
2023-04-24,0.8966966019375733,0.8966966019375733,0.0,0,False
2023-04-25,0.8966966019375733,0.8966966019375733,0.0,0,False
2023-04-26,0.8966966019375733,0.8966966019375733,0.0,0,False
2023-04-27,0.8966966019375733,0.8966966019375733,0.0,0,False
2023-04-28,0.8966966019375733,0.8966966019375733,0.0,0,False
2023-04-29,0.8966966019375733,0.8966966019375733,0.0,0,False
2023-04-30,0.8966966019375733,0.8966966019375733,0.0,0,False
2023-05-01,0.8966966019375733,0.8966966019375733,0.0,0,False
2023-05-02,0.8966966019375733,0.8966966019375733,0.0,0,False
2023-05-03,0.8966966019375733,0.8966966019375733,0.0,0,False
2023-05-04,0.8966966019375733,0.8966966019375733,0.0,0,False
2023-05-05,0.8966966019375733,0.8966966019375733,0.0,0,False
2023-05-06,0.8966966019375733,0.8966966019375733,0.0,0,False
2023-05-07,0.8966966019375733,0.8966966019375733,0.0,0,False
2023-05-08,0.8966966019375733,0.8966966019375733,0.0,0,False
2023-05-09,0.8966966019375733,0.8966966019375733,0.0,0,False
2023-05-10,0.8966966019375733,0.8966966019375733,0.0,0,False
2023-05-11,0.8966966019375733,0.8966966019375733,0.0,0,False
2023-05-12,0.8966966019375733,0.8966966019375733,0.0,0,False
2023-05-13,0.8966966019375733,0.8966966019375733,0.0,0,False
2023-05-14,0.8966966019375733,0.8966966019375733,0.0,0,False
2023-05-15,0.8966966019375733,0.8966966019375733,0.0,0,False
2023-05-16,0.8966966019375733,0.8966966019375733,0.0,0,False
2023-05-17,0.8966966019375733,0.8966966019375733,0.0,0,False
2023-05-18,0.8966966019375733,0.8966966019375733,0.0,0,False
2023-05-19,0.8966966019375733,0.8966966019375733,0.0,0,False
2023-05-20,0.8966966019375733,0.8966966019375733,0.0,0,False
2023-05-21,0.8966966019375733,0.8966966019375733,0.0,0,False
2023-05-22,0.8966966019375733,0.8966966019375733,0.0,0,False
2023-05-23,0.8966966019375733,0.8966966019375733,0.0,0,False
2023-05-24,0.8966966019375733,0.8966966019375733,0.0,0,False
2023-05-25,0.8966966019375733,0.8966966019375733,0.0,0,False
2023-05-26,0.8966966019375733,0.8966966019375733,0.0,0,False
2023-05-27,0.8966966019375733,0.8966966019375733,0.0,0,False
2023-05-28,0.8966966019375733,0.8966966019375733,0.0,0,False
2023-05-29,0.8966966019375733,0.8966966019375733,0.0,0,False
2023-05-30,0.8966966019375733,0.8966966019375733,0.0,0,False
2023-05-31,0.8966966019375733,0.8966966019375733,0.0,0,False
2023-06-01,0.8966966019375733,0.8966966019375733,0.0,0,False
2023-06-02,0.8966966019375733,0.8966966019375733,0.0,0,False
2023-06-03,0.8966966019375733,0.8966966019375733,0.0,0,False
2023-06-04,0.8966966019375733,0.8966966019375733,0.0,0,False
2023-06-05,0.8966966019375733,0.8966966019375733,0.0,0,False
2023-06-06,0.8966966019375733,0.8966966019375733,0.0,0,False
2023-06-07,0.8966966019375733,0.8966966019375733,0.0,0,False
2023-06-08,0.8966966019375733,0.8966966019375733,0.0,0,False
2023-06-09,0.8966966019375733,0.8966966019375733,0.0,0,False
2023-06-10,0.8966966019375733,0.8966966019375733,0.0,0,False
2023-06-11,0.8966966019375733,0.8966966019375733,0.0,0,False
2023-06-12,0.8966966019375733,0.8966966019375733,0.0,0,False
2023-06-13,0.8966966019375733,0.8966966019375733,0.0,0,False
2023-06-14,0.8966966019375733,0.8966966019375733,0.0,0,False
2023-06-15,0.8966966019375733,0.8966966019375733,0.0,0,False
2023-06-16,0.8966966019375733,0.8966966019375733,0.0,0,False
2023-06-17,0.8966966019375733,0.8966966019375733,0.0,0,False
2023-06-18,0.8966966019375733,0.8966966019375733,0.0,0,False
2023-06-19,0.8966966019375733,0.8966966019375733,0.0,0,False
2023-06-20,0.8966966019375733,0.8966966019375733,0.0,0,False
2023-06-21,0.8966966019375733,0.8966966019375733,0.0,0,False
2023-06-22,0.8966966019375733,0.8966966019375733,0.0,0,False
2023-06-23,0.8966966019375733,0.8966966019375733,0.0,0,False
2023-06-24,0.8966966019375733,0.8966966019375733,0.0,0,False
2023-06-25,0.8966966019375733,0.8966966019375733,0.0,0,False
2023-06-26,0.8966966019375733,0.8966966019375733,0.0,0,False
2023-06-27,0.8966966019375733,0.8966966019375733,0.0,0,False
2023-06-28,0.8966966019375733,0.8966966019375733,0.0,0,False
2023-06-29,0.8966966019375733,0.8966966019375733,0.0,0,False
2023-06-30,0.8966966019375733,0.8966966019375733,0.0,0,False
2023-07-01,0.8966966019375733,0.8966966019375733,0.0,0,False
2023-07-02,0.8966966019375733,0.8966966019375733,0.0,0,False
2023-07-03,0.8966966019375733,0.8966966019375733,0.0,0,False
2023-07-04,0.8966966019375733,0.8966966019375733,0.0,0,False
2023-07-05,0.8966966019375733,0.8966966019375733,0.0,0,False
2023-07-06,0.8966966019375733,0.8966966019375733,0.0,0,False
2023-07-07,0.8966966019375733,0.8966966019375733,0.0,0,False
2023-07-08,0.8966966019375733,0.8966966019375733,0.0,0,False
2023-07-09,0.8966966019375733,0.8966966019375733,0.0,0,False
2023-07-10,0.8966966019375733,0.8966966019375733,0.0,0,False
2023-07-11,0.8966966019375733,0.8966966019375733,0.0,0,False
2023-07-12,0.8966966019375733,0.8966966019375733,0.0,0,False
2023-07-13,0.8966966019375733,0.8966966019375733,0.0,0,False
2023-07-14,0.8966966019375733,0.8966966019375733,0.0,0,False
2023-07-15,0.8966966019375733,0.8966966019375733,0.0,0,False
2023-07-16,0.8966966019375733,0.8966966019375733,0.0,0,False
2023-07-17,0.8966966019375733,0.8966966019375733,0.0,0,False
2023-07-18,0.8966966019375733,0.8966966019375733,0.0,0,False
2023-07-19,0.8966966019375733,0.8966966019375733,0.0,0,False
2023-07-20,0.8966966019375733,0.8966966019375733,0.0,0,False
2023-07-21,0.8966966019375733,0.8966966019375733,0.0,0,False
2023-07-22,0.8966966019375733,0.8966966019375733,0.0,0,False
2023-07-23,0.8966966019375733,0.8966966019375733,0.0,0,False
2023-07-24,0.8966966019375733,0.8966966019375733,0.0,0,False
2023-07-25,0.8966966019375733,0.8966966019375733,0.0,0,False
2023-07-26,0.8966966019375733,0.8966966019375733,0.0,0,False
2023-07-27,0.8966966019375733,0.8966966019375733,0.0,0,False
2023-07-28,0.8966966019375733,0.8966966019375733,0.0,0,False
2023-07-29,0.8966966019375733,0.8966966019375733,0.0,0,False
2023-07-30,0.8966966019375733,0.8966966019375733,0.0,0,False
2023-07-31,0.8966966019375733,0.8966966019375733,0.0,0,False
2023-08-01,0.8966966019375733,0.8966966019375733,0.0,0,False
2023-08-02,0.8966966019375733,0.8966966019375733,0.0,0,False
2023-08-03,0.8966966019375733,0.8966966019375733,0.0,0,False
2023-08-04,0.8966966019375733,0.8966966019375733,0.0,0,False
2023-08-05,0.8966966019375733,0.8966966019375733,0.0,0,False
2023-08-06,0.8966966019375733,0.8966966019375733,0.0,0,False
2023-08-07,0.8966966019375733,0.8966966019375733,0.0,0,False
2023-08-08,0.8966966019375733,0.8966966019375733,0.0,0,False
2023-08-09,0.8966966019375733,0.8966966019375733,0.0,0,False
2023-08-10,0.8966966019375733,0.8966966019375733,0.0,0,False
2023-08-11,0.8966966019375733,0.8966966019375733,0.0,0,False
2023-08-12,0.8966966019375733,0.8966966019375733,0.0,0,False
2023-08-13,0.8966966019375733,0.8966966019375733,0.0,0,False
2023-08-14,0.8966966019375733,0.8966966019375733,0.0,0,False
2023-08-15,0.8966966019375733,0.8966966019375733,0.0,0,False
2023-08-16,0.8966966019375733,0.8966966019375733,0.0,0,False
2023-08-17,0.8966966019375733,0.8966966019375733,0.0,0,False
2023-08-18,0.8966966019375733,0.8966966019375733,0.0,0,False
2023-08-19,0.8966966019375733,0.8966966019375733,0.0,0,False
2023-08-20,0.8966966019375733,0.8966966019375733,0.0,0,False
2023-08-21,0.8966966019375733,0.8966966019375733,0.0,0,False
2023-08-22,0.8966966019375733,0.8966966019375733,0.0,0,False
2023-08-23,0.8966966019375733,0.8966966019375733,0.0,0,False
2023-08-24,0.8966966019375733,0.8966966019375733,0.0,0,False
2023-08-25,0.8966966019375733,0.8966966019375733,0.0,0,False
2023-08-26,0.8966966019375733,0.8966966019375733,0.0,0,False
2023-08-27,0.8966966019375733,0.8966966019375733,0.0,0,False
2023-08-28,0.8966966019375733,0.8966966019375733,0.0,0,False
2023-08-29,0.8966966019375733,0.8966966019375733,0.0,0,False
2023-08-30,0.8966966019375733,0.8966966019375733,0.0,0,False
2023-08-31,0.8966966019375733,0.8966966019375733,0.0,0,False
2023-09-01,0.8966966019375733,0.8966966019375733,0.0,0,False
2023-09-02,0.8966966019375733,0.8966966019375733,0.0,0,False
2023-09-03,0.8966966019375733,0.8966966019375733,0.0,0,False
2023-09-04,0.8966966019375733,0.8966966019375733,0.0,0,False
2023-09-05,0.8966966019375733,0.8966966019375733,0.0,0,False
2023-09-06,0.8966966019375733,0.8966966019375733,0.0,0,False
2023-09-07,0.8966966019375733,0.8966966019375733,0.0,0,False
2023-09-08,0.8966966019375733,0.8966966019375733,0.0,0,False
2023-09-09,0.8966966019375733,0.8966966019375733,0.0,0,False
2023-09-10,0.8966966019375733,0.8966966019375733,0.0,0,False
2023-09-11,0.8966966019375733,0.8966966019375733,0.0,0,False
2023-09-12,0.8966966019375733,0.8966966019375733,0.0,0,False
2023-09-13,0.8966966019375733,0.8966966019375733,0.0,0,False
2023-09-14,0.8966966019375733,0.8966966019375733,0.0,0,False
2023-09-15,0.8966966019375733,0.8966966019375733,0.0,0,False
2023-09-16,0.8966966019375733,0.8966966019375733,0.0,0,False
2023-09-17,0.8966966019375733,0.8966966019375733,0.0,0,False
2023-09-18,0.8966966019375733,0.8966966019375733,0.0,0,False
2023-09-19,0.8966966019375733,0.8966966019375733,0.0,0,False
2023-09-20,0.8966966019375733,0.8966966019375733,0.0,0,False
2023-09-21,0.8966966019375733,0.8966966019375733,0.0,0,False
2023-09-22,0.8966966019375733,0.8966966019375733,0.0,0,False
2023-09-23,0.8966966019375733,0.8966966019375733,0.0,0,False
2023-09-24,0.8966966019375733,0.8966966019375733,0.0,0,False
2023-09-25,0.8966966019375733,0.8966966019375733,0.0,0,False
2023-09-26,0.8966966019375733,0.8966966019375733,0.0,0,False
2023-09-27,0.8966966019375733,0.8966966019375733,0.0,0,False
2023-09-28,0.8966966019375733,0.8966966019375733,0.0,0,False
2023-09-29,0.8966966019375733,0.8966966019375733,0.0,0,False
2023-09-30,0.8966966019375733,0.8966966019375733,0.0,0,False
2023-10-01,0.8966966019375733,0.8966966019375733,0.0,0,False
2023-10-02,0.8966966019375733,0.8966966019375733,0.0,0,False
2023-10-03,0.8966966019375733,0.8966966019375733,0.0,0,False
2023-10-04,0.8966966019375733,0.8966966019375733,0.0,0,False
2023-10-05,0.8966966019375733,0.8966966019375733,0.0,0,False
2023-10-06,0.8966966019375733,0.8966966019375733,0.0,0,False
2023-10-07,0.8966966019375733,0.8966966019375733,0.0,0,False
2023-10-08,0.8966966019375733,0.8966966019375733,0.0,0,False
2023-10-09,0.8966966019375733,0.8966966019375733,0.0,0,False
2023-10-10,0.8966966019375733,0.8966966019375733,0.0,0,False
2023-10-11,0.8966966019375733,0.8966966019375733,0.0,0,False
2023-10-12,0.8966966019375733,0.8966966019375733,0.0,0,False
2023-10-13,0.8966966019375733,0.8966966019375733,0.0,0,False
2023-10-14,0.8966966019375733,0.8966966019375733,0.0,0,False
2023-10-15,0.8966966019375733,0.8966966019375733,0.0,0,False
2023-10-16,0.8966966019375733,0.8966966019375733,0.0,0,False
2023-10-17,0.8966966019375733,0.8966966019375733,0.0,0,False
2023-10-18,0.8966966019375733,0.8966966019375733,0.0,0,False
2023-10-19,0.8966966019375733,0.8966966019375733,0.0,0,False
2023-10-20,0.8966966019375733,0.8966966019375733,0.0,0,False
2023-10-21,0.8966966019375733,0.8966966019375733,0.0,0,False
2023-10-22,0.8966966019375733,0.8966966019375733,0.0,0,False
2023-10-23,0.8966966019375733,0.8966966019375733,0.0,0,False
2023-10-24,0.8966966019375733,0.8966966019375733,0.0,0,False
2023-10-25,0.8966966019375733,0.8966966019375733,0.0,0,False
2023-10-26,0.8966966019375733,0.8966966019375733,0.0,0,False
2023-10-27,0.8966966019375733,0.8966966019375733,0.0,0,False
2023-10-28,0.8966966019375733,0.8966966019375733,0.0,0,False
2023-10-29,0.8966966019375733,0.8966966019375733,0.0,0,False
2023-10-30,0.8966966019375733,0.8966966019375733,0.0,0,False
2023-10-31,0.8966966019375733,0.8966966019375733,0.0,0,False
2023-11-01,0.8966966019375733,0.8966966019375733,0.0,0,False
2023-11-02,0.8966966019375733,0.8966966019375733,0.0,0,False
2023-11-03,0.8966966019375733,0.8966966019375733,0.0,0,False
2023-11-04,0.8966966019375733,0.8966966019375733,0.0,0,False
2023-11-05,0.8966966019375733,0.8966966019375733,0.0,0,False
2023-11-06,0.8966966019375733,0.8966966019375733,0.0,0,False
2023-11-07,0.8966966019375733,0.8966966019375733,0.0,0,False
2023-11-08,0.8966966019375733,0.8966966019375733,0.0,0,False
2023-11-09,0.8966966019375733,0.8966966019375733,0.0,0,False
2023-11-10,0.8966966019375733,0.8966966019375733,0.0,0,False
2023-11-11,0.8966966019375733,0.8966966019375733,0.0,0,False
2023-11-12,0.8966966019375733,0.8966966019375733,0.0,0,False
2023-11-13,0.8966966019375733,0.8966966019375733,0.0,0,False
2023-11-14,0.8966966019375733,0.8966966019375733,0.0,0,False
2023-11-15,0.8966966019375733,0.8966966019375733,0.0,0,False
2023-11-16,0.8966966019375733,0.8966966019375733,0.0,0,False
2023-11-17,0.8966966019375733,0.8966966019375733,0.0,0,False
2023-11-18,0.8966966019375733,0.8966966019375733,0.0,0,False
2023-11-19,0.8966966019375733,0.8966966019375733,0.0,0,False
2023-11-20,0.8966966019375733,0.8966966019375733,0.0,0,False
2023-11-21,0.8966966019375733,0.8966966019375733,0.0,0,False
2023-11-22,0.8966966019375733,0.8966966019375733,0.0,0,False
2023-11-23,0.8966966019375733,0.8966966019375733,0.0,0,False
2023-11-24,0.8966966019375733,0.8966966019375733,0.0,0,False
2023-11-25,0.8966966019375733,0.8966966019375733,0.0,0,False
2023-11-26,0.8966966019375733,0.8966966019375733,0.0,0,False
2023-11-27,0.8966966019375733,0.8966966019375733,0.0,0,False
2023-11-28,0.8966966019375733,0.8966966019375733,0.0,0,False
2023-11-29,0.8966966019375733,0.8966966019375733,0.0,0,False
2023-11-30,0.8966966019375733,0.8966966019375733,0.0,0,False
2023-12-01,0.8966966019375733,0.8966966019375733,0.0,0,False
2023-12-02,0.8966966019375733,0.8966966019375733,0.0,0,False
2023-12-03,0.8966966019375733,0.8966966019375733,0.0,0,False
2023-12-04,0.8966966019375733,0.8966966019375733,0.0,0,False
2023-12-05,0.8966966019375733,0.8966966019375733,0.0,0,False
2023-12-06,0.8966966019375733,0.8966966019375733,0.0,0,False
2023-12-07,0.8966966019375733,0.8966966019375733,0.0,0,False
2023-12-08,0.8966966019375733,0.8966966019375733,0.0,0,False
2023-12-09,0.8966966019375733,0.8966966019375733,0.0,0,False
2023-12-10,0.8966966019375733,0.8966966019375733,0.0,0,False
2023-12-11,0.8966966019375733,0.8966966019375733,0.0,0,False
2023-12-12,0.8966966019375733,0.8966966019375733,0.0,0,False
2023-12-13,0.8966966019375733,0.8966966019375733,0.0,0,False
2023-12-14,0.8966966019375733,0.8966966019375733,0.0,0,False
2023-12-15,0.8966966019375733,0.8966966019375733,0.0,0,False
2023-12-16,0.8966966019375733,0.8966966019375733,0.0,0,False
2023-12-17,0.8966966019375733,0.8966966019375733,0.0,0,False
2023-12-18,0.8966966019375733,0.8966966019375733,0.0,0,False
2023-12-19,0.8966966019375733,0.8966966019375733,0.0,0,False
2023-12-20,0.8966966019375733,0.8966966019375733,0.0,0,False
2023-12-21,0.8966966019375733,0.8966966019375733,0.0,0,False
2023-12-22,0.8966966019375733,0.8966966019375733,0.0,0,False
2023-12-23,0.8966966019375733,0.8966966019375733,0.0,0,False
2023-12-24,0.8966966019375733,0.8966966019375733,0.0,0,False
2023-12-25,0.8966966019375733,0.8966966019375733,0.0,0,False
2023-12-26,0.8966966019375733,0.8966966019375733,0.0,0,False
2023-12-27,0.8966966019375733,0.8966966019375733,0.0,0,False
2023-12-28,0.8966966019375733,0.8966966019375733,0.0,0,False
2023-12-29,0.8966966019375733,0.8966966019375733,0.0,0,False
2023-12-30,0.8966966019375733,0.8966966019375733,0.0,0,False
2023-12-31,0.8966966019375733,0.8966966019375733,0.0,0,False
