day,start_equity,end_equity,return_pct,entries,active
2021-09-02,1.0,1.0,0.0,0,False
2021-09-03,1.0,1.0,0.0,0,False
2021-09-04,1.0,1.0,0.0,0,False
2021-09-05,1.0,1.0,0.0,0,False
2021-09-06,1.0,1.0,0.0,0,False
2021-09-07,1.0,1.0,0.0,0,False
2021-09-08,1.0,1.0,0.0,0,False
2021-09-09,1.0,1.0,0.0,0,False
2021-09-10,1.0,1.0,0.0,0,False
2021-09-11,1.0,1.0,0.0,0,False
2021-09-12,1.0,1.0,0.0,0,False
2021-09-13,1.0,1.0,0.0,0,False
2021-09-14,1.0,1.0,0.0,0,False
2021-09-15,1.0,1.0,0.0,0,False
2021-09-16,1.0,1.0,0.0,0,False
2021-09-17,1.0,1.0,0.0,0,False
2021-09-18,1.0,1.0,0.0,0,False
2021-09-19,1.0,1.0,0.0,0,False
2021-09-20,1.0,1.0,0.0,0,False
2021-09-21,1.0,1.0,0.0,0,False
2021-09-22,1.0,1.0,0.0,0,False
2021-09-23,1.0,1.0,0.0,0,False
2021-09-24,1.0,1.0,0.0,0,False
2021-09-25,1.0,1.0,0.0,0,False
2021-09-26,1.0,1.0,0.0,0,False
2021-09-27,1.0,1.0,0.0,0,False
2021-09-28,1.0,1.0,0.0,0,False
2021-09-29,1.0,1.0,0.0,0,False
2021-09-30,1.0,1.0,0.0,0,False
2021-10-01,1.0,1.0,0.0,0,False
2021-10-02,1.0,1.0,0.0,0,False
2021-10-03,1.0,1.0,0.0,0,False
2021-10-04,1.0,1.0,0.0,0,False
2021-10-05,1.0,0.9995269898820623,-0.04730101179376556,1,True
2021-10-06,0.9995269898820623,1.0056427254528877,0.6118629744602533,3,True
2021-10-07,1.0056427254528877,1.0021688361039471,-0.3454397134306397,2,True
2021-10-08,1.0021688361039471,1.0017162051081354,-0.045165143786685125,1,True
2021-10-09,1.0017162051081354,1.0030233166455422,0.1304872109227473,2,True
2021-10-10,1.0030233166455422,1.0103719913524045,0.7326524303980175,1,True
2021-10-11,1.0103719913524045,1.00700488777491,-0.33325385168164745,0,True
2021-10-12,1.00700488777491,1.00700488777491,0.0,0,False
2021-10-13,1.00700488777491,1.0251713803346236,1.8040123519017293,4,True
2021-10-14,1.0251713803346236,1.0413608569298323,1.5791970889710516,0,True
2021-10-15,1.0413608569298323,1.0467751702943178,0.5199267216983827,4,True
2021-10-16,1.0467751702943178,1.0445340038447493,-0.2141019880074535,2,True
2021-10-17,1.0445340038447493,1.0449227251647768,0.03721480761724738,0,True
2021-10-18,1.0449227251647768,1.0436612305997657,-0.12072611061380023,1,True
2021-10-19,1.0436612305997657,1.0464539387393168,0.2675876096256191,0,True
2021-10-20,1.0464539387393168,1.0464539387393168,0.0,0,False
2021-10-21,1.0464539387393168,1.0464539387393168,0.0,0,False
2021-10-22,1.0464539387393168,1.0464539387393168,0.0,0,False
2021-10-23,1.0464539387393168,1.0464539387393168,0.0,0,False
2021-10-24,1.0464539387393168,1.0464539387393168,0.0,0,False
2021-10-25,1.0464539387393168,1.0597986908088346,1.275235495371585,2,True
2021-10-26,1.0597986908088346,1.0658981680836197,0.575531686129005,0,True
2021-10-27,1.0658981680836197,1.0693603921266268,0.3248175244762619,7,True
2021-10-28,1.0693603921266268,1.0696620478193586,0.028208983141020383,1,True
2021-10-29,1.0696620478193586,1.063884089487319,-0.5401667137596156,0,True
2021-10-30,1.063884089487319,1.0655714994463683,0.15860844012269837,1,True
2021-10-31,1.0655714994463683,1.0582397543203033,-0.6880575475108341,1,True
2021-11-01,1.0582397543203033,1.06985379500498,1.0974867119915022,2,True
2021-11-02,1.06985379500498,1.0715381392831056,0.15743686529781087,1,True
2021-11-03,1.0715381392831056,1.0698635677414123,-0.15627736244774315,1,True
2021-11-04,1.0698635677414123,1.0894029466475548,1.8263430492723387,1,True
2021-11-05,1.0894029466475548,1.0763936846331363,-1.1941643865065799,3,True
2021-11-06,1.0763936846331363,1.0656338927058948,-0.9996149253615139,2,True
2021-11-07,1.0656338927058948,1.0661688117369819,0.05019726143740133,0,True
2021-11-08,1.0661688117369819,1.0661688117369819,0.0,0,False
2021-11-09,1.0661688117369819,1.0661688117369819,0.0,0,False
2021-11-10,1.0661688117369819,1.0661688117369819,0.0,0,False
2021-11-11,1.0661688117369819,1.0515264608079025,-1.3733614009234008,13,True
2021-11-12,1.0515264608079025,1.0473485367679793,-0.39731991496563257,1,True
2021-11-13,1.0473485367679793,1.0459145694237868,-0.13691405428585268,1,True
2021-11-14,1.0459145694237868,1.046363781130041,0.04294917762754924,0,True
2021-11-15,1.046363781130041,1.046363781130041,0.0,0,False
2021-11-16,1.046363781130041,1.0665898103337652,1.9329825409171386,7,True
2021-11-17,1.0665898103337652,1.06041208809138,-0.579203193442468,0,True
2021-11-18,1.06041208809138,1.0510873787285944,-0.8793477052462806,4,True
2021-11-19,1.0510873787285944,1.0671234690513915,1.5256667188026318,4,True
2021-11-20,1.0671234690513915,1.0678399951836128,0.06714556965541352,0,True
2021-11-21,1.0678399951836128,1.0637619435543308,-0.3818972549891053,1,True
2021-11-22,1.0637619435543308,1.0482703725767646,-1.4563005446316835,4,True
2021-11-23,1.0482703725767646,1.0452124218068188,-0.291713936589566,0,True
2021-11-24,1.0452124218068188,1.0404210921196972,-0.4584072660406169,2,True
2021-11-25,1.0404210921196972,1.0503593229582409,0.9552123571712645,5,True
2021-11-26,1.0503593229582409,1.0237706090350274,-2.5313921952278995,8,True
2021-11-27,1.0237706090350274,1.0339754095352833,0.9967858434493104,0,True
2021-11-28,1.0339754095352833,1.0281130570582786,-0.5669721371458492,7,True
2021-11-29,1.0281130570582786,1.0193352242658087,-0.8537808884156894,1,True
2021-11-30,1.0193352242658087,1.00878795425048,-1.0347204495876672,3,True
2021-12-01,1.00878795425048,1.0027306363171342,-0.6004550220711558,1,True
2021-12-02,1.0027306363171342,1.0005281659963343,-0.2196472553076867,5,True
2021-12-03,1.0005281659963343,0.987410189597005,-1.3111051587704536,2,True
2021-12-04,0.987410189597005,0.9156960019042819,-7.2628567588503445,18,True
2021-12-05,0.9156960019042819,0.908641053276904,-0.7704465906486879,3,True
2021-12-06,0.908641053276904,0.8980802396426484,-1.1622646364226386,12,True
2021-12-07,0.8980802396426484,0.9195640532137489,2.3921931051115175,0,True
2021-12-08,0.9195640532137489,0.92542455325501,0.6373128680682516,2,True
2021-12-09,0.92542455325501,0.9242056913179888,-0.13170840699375796,2,True
2021-12-10,0.9242056913179888,0.9066441497987581,-1.900176733837966,3,True
2021-12-11,0.9066441497987581,0.8976085776201014,-0.9965952111048448,2,True
2021-12-12,0.8976085776201014,0.8976085776201014,0.0,0,False
2021-12-13,0.8976085776201014,0.8886505798228712,-0.9979848700846006,2,True
2021-12-14,0.8886505798228712,0.8881681924330699,-0.0542831345361261,1,True
2021-12-15,0.8881681924330699,0.8849858526841361,-0.35830372851070047,1,True
2021-12-16,0.8849858526841361,0.8858376264490901,0.09624716173379788,0,True
2021-12-17,0.8858376264490901,0.8819160476724718,-0.4426972460334633,4,True
2021-12-18,0.8819160476724718,0.8828171641149896,0.10217712274269708,1,True
2021-12-19,0.8828171641149896,0.878132052657297,-0.530700086964131,1,True
2021-12-20,0.878132052657297,0.878132052657297,0.0,0,False
2021-12-21,0.878132052657297,0.8750913277198774,-0.34627194488779933,1,True
2021-12-22,0.8750913277198774,0.8756251312410499,0.06099974988478252,0,True
2021-12-23,0.8756251312410499,0.8756251312410499,0.0,0,False
2021-12-24,0.8756251312410499,0.8756251312410499,0.0,0,False
2021-12-25,0.8756251312410499,0.883438167926795,0.8922810009657223,2,True
2021-12-26,0.883438167926795,0.8793546684049299,-0.4622281071971268,0,True
2021-12-27,0.8793546684049299,0.8793546684049299,0.0,0,False
2021-12-28,0.8793546684049299,0.8813647603828845,0.2285871730914435,1,True
2021-12-29,0.8813647603828845,0.8811411637363781,-0.025369365392968746,0,True
2021-12-30,0.8811411637363781,0.8811411637363781,0.0,0,False
2021-12-31,0.8811411637363781,0.8811411637363781,0.0,0,False
2022-01-01,0.8811411637363781,0.8811411637363781,0.0,0,False
2022-01-02,0.8811411637363781,0.8811411637363781,0.0,0,False
2022-01-03,0.8811411637363781,0.8811411637363781,0.0,0,False
2022-01-04,0.8811411637363781,0.8811411637363781,0.0,0,False
2022-01-05,0.8811411637363781,0.8828382704296298,0.19260326983878695,1,True
2022-01-06,0.8828382704296298,0.8588618295076064,-2.7158361531331665,8,True
2022-01-07,0.8588618295076064,0.8635918431437253,0.5507304520484535,5,True
2022-01-08,0.8635918431437253,0.8538005707391921,-1.1337847250722177,0,True
2022-01-09,0.8538005707391921,0.8545715725910955,0.09030233503308782,1,True
2022-01-10,0.8545715725910955,0.8562801656520208,0.19993563040539009,0,True
2022-01-11,0.8562801656520208,0.8562801656520208,0.0,0,False
2022-01-12,0.8562801656520208,0.8562801656520208,0.0,0,False
2022-01-13,0.8562801656520208,0.8562801656520208,0.0,0,False
2022-01-14,0.8562801656520208,0.8562801656520208,0.0,0,False
2022-01-15,0.8562801656520208,0.8568236955630872,0.06347570957137005,1,True
2022-01-16,0.8568236955630872,0.8556514266560213,-0.13681564983978323,0,True
2022-01-17,0.8556514266560213,0.8581702627571924,0.2943764274448757,1,True
2022-01-18,0.8581702627571924,0.8636105210833858,0.6339369426195729,0,True
2022-01-19,0.8636105210833858,0.859296808936073,-0.4994974056014678,1,True
2022-01-20,0.859296808936073,0.859296808936073,0.0,0,False
2022-01-21,0.859296808936073,0.8254670933581192,-3.936906925075123,8,True
2022-01-22,0.8254670933581192,0.7945396054617161,-3.746665148163042,17,True
2022-01-23,0.7945396054617161,0.8040942468271395,1.2025380861752089,0,True
2022-01-24,0.8040942468271395,0.7930531806901767,-1.3731059736504125,5,True
2022-01-25,0.7930531806901767,0.8039784223218801,1.3776177812180768,0,True
2022-01-26,0.8039784223218801,0.8048770856812978,0.11177704954099532,1,True
2022-01-27,0.8048770856812978,0.8028511751786637,-0.25170433332926123,7,True
2022-01-28,0.8028511751786637,0.7890350133752657,-1.720887037416785,0,True
2022-01-29,0.7890350133752657,0.7890350133752657,0.0,0,False
2022-01-30,0.7890350133752657,0.7963521823741407,0.927356692014758,1,True
2022-01-31,0.7963521823741407,0.7963521823741407,0.0,0,False
2022-02-01,0.7963521823741407,0.7963521823741407,0.0,0,False
2022-02-02,0.7963521823741407,0.7958615275146825,-0.06161279774425932,1,True
2022-02-03,0.7958615275146825,0.7953808000606856,-0.06040340403162814,4,True
2022-02-04,0.7953808000606856,0.8086915063741675,1.6735010843191622,0,True
2022-02-05,0.8086915063741675,0.8086915063741675,0.0,0,False
2022-02-06,0.8086915063741675,0.8086915063741675,0.0,0,False
2022-02-07,0.8086915063741675,0.8086915063741675,0.0,0,False
2022-02-08,0.8086915063741675,0.8043781030755627,-0.533380561636454,3,True
2022-02-09,0.8043781030755627,0.8153545898314339,1.364592933833264,2,True
2022-02-10,0.8153545898314339,0.8225973808804381,0.8882995373217462,5,True
2022-02-11,0.8225973808804381,0.8120436915452601,-1.2829714244752655,0,True
2022-02-12,0.8120436915452601,0.7920446472224626,-2.4628039760694165,5,True
2022-02-13,0.7920446472224626,0.7920446472224626,0.0,0,False
2022-02-14,0.7920446472224626,0.7920446472224626,0.0,0,False
2022-02-15,0.7920446472224626,0.7920446472224626,0.0,0,False
2022-02-16,0.7920446472224626,0.7920446472224626,0.0,0,False
2022-02-17,0.7920446472224626,0.7920446472224626,0.0,0,False
2022-02-18,0.7920446472224626,0.7920446472224626,0.0,0,False
2022-02-19,0.7920446472224626,0.7920446472224626,0.0,0,False
2022-02-20,0.7920446472224626,0.7920446472224626,0.0,0,False
2022-02-21,0.7920446472224626,0.7920446472224626,0.0,0,False
2022-02-22,0.7920446472224626,0.7841620047247657,-0.9952270399578689,2,True
2022-02-23,0.7841620047247657,0.7841620047247657,0.0,0,False
2022-02-24,0.7841620047247657,0.7676503041557445,-2.1056491476932337,9,True
2022-02-25,0.7676503041557445,0.7800886074870818,1.6203085264216543,0,True
2022-02-26,0.7800886074870818,0.7800886074870818,0.0,0,False
2022-02-27,0.7800886074870818,0.7800886074870818,0.0,0,False
2022-02-28,0.7800886074870818,0.785035506184449,0.6341457431743303,2,True
2022-03-01,0.785035506184449,0.7930745206127613,1.024031953329696,0,True
2022-03-02,0.7930745206127613,0.7930745206127613,0.0,0,False
2022-03-03,0.7930745206127613,0.7930745206127613,0.0,0,False
2022-03-04,0.7930745206127613,0.8021305864463203,1.1418934284462834,3,True
2022-03-05,0.8021305864463203,0.7955884148118695,-0.8155993232267345,2,True
2022-03-06,0.7955884148118695,0.79084047057498,-0.5967839838407207,4,True
2022-03-07,0.79084047057498,0.791293849800014,0.05732878398401198,0,True
2022-03-08,0.791293849800014,0.7873518184257119,-0.4981754092109325,1,True
2022-03-09,0.7873518184257119,0.8019096947819223,1.8489671345801373,2,True
2022-03-10,0.8019096947819223,0.8001176857761721,-0.22346768188623578,3,True
2022-03-11,0.8001176857761721,0.7937900960836671,-0.790832374410877,1,True
2022-03-12,0.7937900960836671,0.7932202267615758,-0.07179093376232792,0,True
2022-03-13,0.7932202267615758,0.7932202267615758,0.0,0,False
2022-03-14,0.7932202267615758,0.7892645760252898,-0.4986825351687596,1,True
2022-03-15,0.7892645760252898,0.7903866629210161,0.1421686630580954,1,True
2022-03-16,0.7903866629210161,0.7975480919790959,0.9060665360437037,1,True
2022-03-17,0.7975480919790959,0.7990833057422352,0.1924916852762637,1,True
2022-03-18,0.7990833057422352,0.7980564074866887,-0.1285095368864786,0,True
2022-03-19,0.7980564074866887,0.7980564074866887,0.0,0,False
2022-03-20,0.7980564074866887,0.7940731638621626,-0.4991180557111785,1,True
2022-03-21,0.7940731638621626,0.7994517180041013,0.6773373521123505,4,True
2022-03-22,0.7994517180041013,0.7948759992617465,-0.5723571091670876,0,True
2022-03-23,0.7948759992617465,0.7943420749420405,-0.0671707687993961,2,True
2022-03-24,0.7943420749420405,0.7900830958135847,-0.5361643632897706,0,True
2022-03-25,0.7900830958135847,0.7900830958135847,0.0,0,False
2022-03-26,0.7900830958135847,0.7914839574666583,0.17730561006765733,1,True
2022-03-27,0.7914839574666583,0.7900831415128389,-0.17698601981815942,1,True
2022-03-28,0.7900831415128389,0.78985444309008,-0.028946121077955134,1,True
2022-03-29,0.78985444309008,0.7947541416729175,0.6203293056969761,1,True
2022-03-30,0.7947541416729175,0.8066023403871052,1.4908004995416446,6,True
2022-03-31,0.8066023403871052,0.8110188676297312,0.5475470404048721,6,True
2022-04-01,0.8110188676297312,0.8040608034803741,-0.8579410944769439,7,True
2022-04-02,0.8040608034803741,0.8084768098450341,0.5492129880657393,1,True
2022-04-03,0.8084768098450341,0.8029639356701809,-0.6818840203851928,2,True
2022-04-04,0.8029639356701809,0.8021518578905502,-0.1011350253175336,0,True
2022-04-05,0.8021518578905502,0.7935485462598153,-1.0725290412415656,6,True
2022-04-06,0.7935485462598153,0.7617650052664787,-4.005242167368339,12,True
2022-04-07,0.7617650052664787,0.7649678888218786,0.4204555910624297,2,True
2022-04-08,0.7649678888218786,0.7656096006920945,0.08388742581131314,0,True
2022-04-09,0.7656096006920945,0.7656096006920945,0.0,0,False
2022-04-10,0.7656096006920945,0.7656096006920945,0.0,0,False
2022-04-11,0.7656096006920945,0.7583544751654954,-0.9476272920350803,6,True
2022-04-12,0.7583544751654954,0.7465823288003677,-1.5523276713780398,0,True
2022-04-13,0.7465823288003677,0.7476591441708383,0.14423263569618427,1,True
2022-04-14,0.7476591441708383,0.7476812972178744,0.002962987506904824,0,True
2022-04-15,0.7476812972178744,0.7489668212477807,0.17193475812351533,1,True
2022-04-16,0.7489668212477807,0.7486619904707057,-0.04070017101253098,0,True
2022-04-17,0.7486619904707057,0.7531503736727786,0.599520646059637,1,True
2022-04-18,0.7531503736727786,0.7670928121004046,1.8512157618185698,6,True
2022-04-19,0.7670928121004046,0.7852126054105432,2.3621383259379236,1,True
2022-04-20,0.7852126054105432,0.7852126054105432,0.0,0,False
2022-04-21,0.7852126054105432,0.7841508647793055,-0.13521696212231982,3,True
2022-04-22,0.7841508647793055,0.7795543097842632,-0.5861824811397742,1,True
2022-04-23,0.7795543097842632,0.7797966341214025,0.031084984599272225,2,True
2022-04-24,0.7797966341214025,0.7802946139287033,0.0638602150241141,0,True
2022-04-25,0.7802946139287033,0.7755902458705116,-0.6028963899296524,3,True
2022-04-26,0.7755902458705116,0.7795412324989462,0.5094167505936165,2,True
2022-04-27,0.7795412324989462,0.7763713837154222,-0.40663003461183234,0,True
2022-04-28,0.7763713837154222,0.7782565637154322,0.24281935676044863,1,True
2022-04-29,0.7782565637154322,0.7667585842530318,-1.4774021830935125,2,True
2022-04-30,0.7667585842530318,0.7580974363685162,-1.1295795133422826,2,True
2022-05-01,0.7580974363685162,0.7690679782347272,1.447115019774059,7,True
2022-05-02,0.7690679782347272,0.7769719107548201,1.0277287240895383,1,True
2022-05-03,0.7769719107548201,0.7847858630493236,1.0056930226618244,3,True
2022-05-04,0.7847858630493236,0.7790495155490155,-0.7309442958132961,1,True
2022-05-05,0.7790495155490155,0.7790495155490155,0.0,0,False
2022-05-06,0.7790495155490155,0.760682722959684,-2.3575898864898193,8,True
2022-05-07,0.760682722959684,0.7617703675671417,0.14298268839678663,2,True
2022-05-08,0.7617703675671417,0.7530688567129117,-1.1422747884011208,3,True
2022-05-09,0.7530688567129117,0.7419235162832508,-1.4799895561090404,5,True
2022-05-10,0.7419235162832508,0.7370441670997914,-0.657662019921279,14,True
2022-05-11,0.7370441670997914,0.7130602490108418,-3.254067959498874,22,True
2022-05-12,0.7130602490108418,0.6781387175314636,-4.897416666799382,1,True
2022-05-13,0.6781387175314636,0.7072437501298492,4.291899554759637,6,True
2022-05-14,0.7072437501298492,0.6829714353717192,-3.4319588902232967,8,True
2022-05-15,0.6829714353717192,0.6860876065194205,0.4562666879333266,2,True
2022-05-16,0.6860876065194205,0.694157587668467,1.1762318794805493,8,True
2022-05-17,0.694157587668467,0.7062201511239753,1.7377269469925238,4,True
2022-05-18,0.7062201511239753,0.6857390542667957,-2.900100885620893,2,True
2022-05-19,0.6857390542667957,0.6909319383616591,0.7572682440284417,6,True
2022-05-20,0.6909319383616591,0.694263184473233,0.48213809879349423,1,True
2022-05-21,0.694263184473233,0.6949449789296346,0.09820403438487446,0,True
2022-05-22,0.6949449789296346,0.6949449789296346,0.0,0,False
2022-05-23,0.6949449789296346,0.6978348636925209,0.4158436783495256,4,True
2022-05-24,0.6978348636925209,0.6702535088612103,-3.9524185830107084,8,True
2022-05-25,0.6702535088612103,0.6650548308935402,-0.7756286090173314,1,True
2022-05-26,0.6650548308935402,0.6583169756272325,-1.0131277833520969,13,True
2022-05-27,0.6583169756272325,0.6451272868241739,-2.0035468158012604,4,True
2022-05-28,0.6451272868241739,0.6460882976369681,0.14896452722144016,0,True
2022-05-29,0.6460882976369681,0.6477290072140667,0.2539451005534987,3,True
2022-05-30,0.6477290072140667,0.6484282222503155,0.10794869898698156,0,True
2022-05-31,0.6484282222503155,0.6409669788267438,-1.1506660517764167,5,True
2022-06-01,0.6409669788267438,0.6356231244135668,-0.8337175844781664,2,True
2022-06-02,0.6356231244135668,0.630151319312085,-0.8608568334467326,6,True
2022-06-03,0.630151319312085,0.6316568900253393,0.2389220917442314,0,True
2022-06-04,0.6316568900253393,0.6316568900253393,0.0,0,False
2022-06-05,0.6316568900253393,0.6316568900253393,0.0,0,False
2022-06-06,0.6316568900253393,0.6334346840483465,0.2814493202054402,1,True
2022-06-07,0.6334346840483465,0.6283019343555328,-0.8103044910660273,4,True
2022-06-08,0.6283019343555328,0.6441264844469626,2.51862189596177,4,True
2022-06-09,0.6441264844469626,0.6444323713801123,0.04748864400636599,3,True
2022-06-10,0.6444323713801123,0.643333117596477,-0.17057705857964622,4,True
2022-06-11,0.643333117596477,0.638150316362246,-0.8056170423177189,7,True
2022-06-12,0.638150316362246,0.6325937767008222,-0.8707258335463375,13,True
2022-06-13,0.6325937767008222,0.5937167149637068,-6.145659848231766,7,True
2022-06-14,0.5937167149637068,0.6008223318277227,1.196802563399313,6,True
2022-06-15,0.6008223318277227,0.5940456673770698,-1.1278982307528551,7,True
2022-06-16,0.5940456673770698,0.6089877248117982,2.515304505241689,6,True
2022-06-17,0.6089877248117982,0.6145864917441562,0.9193562865472016,1,True
2022-06-18,0.6145864917441562,0.6092104042242245,-0.8747487281529409,6,True
2022-06-19,0.6092104042242245,0.6227106214679528,2.2160188253711244,3,True
2022-06-20,0.6227106214679528,0.6263100615957784,0.5780277393278466,1,True
2022-06-21,0.6263100615957784,0.6249148058508556,-0.22277396300609542,0,True
2022-06-22,0.6249148058508556,0.6235387914395862,-0.2201923203589029,5,True
2022-06-23,0.6235387914395862,0.6332647045282395,1.5597927862994077,1,True
2022-06-24,0.6332647045282395,0.62872966054469,-0.7161371778848569,2,True
2022-06-25,0.62872966054469,0.6287950449644192,0.010399448893894103,4,True
2022-06-26,0.6287950449644192,0.63340320814595,0.7328561537554013,0,True
2022-06-27,0.63340320814595,0.6305807729958485,-0.44559849299834475,5,True
2022-06-28,0.6305807729958485,0.6252807517986323,-0.8404983824730539,3,True
2022-06-29,0.6252807517986323,0.6218204655567805,-0.5533972110765006,4,True
2022-06-30,0.6218204655567805,0.6170501960980438,-0.7671457796850412,2,True
2022-07-01,0.6170501960980438,0.6172872510796527,0.0384174550316807,1,True
2022-07-02,0.6172872510796527,0.6168611912399021,-0.069021324999885,1,True
2022-07-03,0.6168611912399021,0.6179862517348867,0.18238471003877432,1,True
2022-07-04,0.6179862517348867,0.6210444990285822,0.494873030768872,0,True
2022-07-05,0.6210444990285822,0.6213860525408675,0.054996624689485074,1,True
2022-07-06,0.6213860525408675,0.6223860299670512,0.16092691847438,0,True
2022-07-07,0.6223860299670512,0.6223860299670512,0.0,0,False
2022-07-08,0.6223860299670512,0.6223860299670512,0.0,0,False
2022-07-09,0.6223860299670512,0.6223860299670512,0.0,0,False
2022-07-10,0.6223860299670512,0.6223860299670512,0.0,0,False
2022-07-11,0.6223860299670512,0.6192822146263818,-0.4986961774887,1,True
2022-07-12,0.6192822146263818,0.6218886030584664,0.4208724827754029,2,True
2022-07-13,0.6218886030584664,0.6252465996145556,0.5399675343099375,5,True
2022-07-14,0.6252465996145556,0.6352240981946288,1.5957701467267382,0,True
2022-07-15,0.6352240981946288,0.6352240981946288,0.0,0,False
2022-07-16,0.6352240981946288,0.6352240981946288,0.0,0,False
2022-07-17,0.6352240981946288,0.6352240981946288,0.0,0,False
2022-07-18,0.6352240981946288,0.636281833309841,0.1665136946501944,1,True
2022-07-19,0.636281833309841,0.6387248470030028,0.38395150784891197,0,True
2022-07-20,0.6387248470030028,0.6397712519682759,0.16382718946710284,2,True
2022-07-21,0.6397712519682759,0.6297801591337524,-1.561666424333008,6,True
2022-07-22,0.6297801591337524,0.635568703678131,0.9191373307696038,0,True
2022-07-23,0.635568703678131,0.6401854404060724,0.7263945976609065,2,True
2022-07-24,0.6401854404060724,0.6451089197189593,0.7690708038851968,3,True
2022-07-25,0.6451089197189593,0.6459975478517628,0.1377485422447089,1,True
2022-07-26,0.6459975478517628,0.643199399085054,-0.43315160808488073,1,True
2022-07-27,0.643199399085054,0.6440242222875635,0.1282375580081041,1,True
2022-07-28,0.6440242222875635,0.6442738264429518,0.038756951485718893,0,True
2022-07-29,0.6442738264429518,0.646909799073289,0.4091385560221372,2,True
2022-07-30,0.646909799073289,0.6508345463525919,0.6066915797109607,1,True
2022-07-31,0.6508345463525919,0.6504216868283702,-0.06343540405705506,1,True
2022-08-01,0.6504216868283702,0.6490040250784854,-0.21796040608634826,1,True
2022-08-02,0.6490040250784854,0.6424594682822271,-1.0084000319515507,5,True
2022-08-03,0.6424594682822271,0.6438109776528594,0.21036492375867688,1,True
2022-08-04,0.6438109776528594,0.6416023989362388,-0.34304769463118223,0,True
2022-08-05,0.6416023989362388,0.6494703855181335,1.2263025504486214,2,True
2022-08-06,0.6494703855181335,0.649341766622206,-0.01980365830305253,0,True
2022-08-07,0.649341766622206,0.6503016793847255,0.14782858763464635,2,True
2022-08-08,0.6503016793847255,0.6508881602612168,0.0901859698480445,0,True
2022-08-09,0.6508881602612168,0.6511783950164428,0.044590572228186964,6,True
2022-08-10,0.6511783950164428,0.6682996862216759,2.6292781419446243,2,True
2022-08-11,0.6682996862216759,0.6710175756015215,0.40668721471524005,1,True
2022-08-12,0.6710175756015215,0.6676629402544711,-0.4999325604911564,3,True
2022-08-13,0.6676629402544711,0.6666293268896063,-0.1548106540810723,0,True
2022-08-14,0.6666293268896063,0.6666293268896063,0.0,0,False
2022-08-15,0.6666293268896063,0.6666293268896063,0.0,0,False
2022-08-16,0.6666293268896063,0.6627470132138968,-0.5823796702469908,2,True
2022-08-17,0.6627470132138968,0.6599418360507177,-0.4232651535577503,1,True
2022-08-18,0.6599418360507177,0.6568113696815022,-0.4743548898110572,1,True
2022-08-19,0.6568113696815022,0.6369444415357245,-3.0247539952622193,12,True
2022-08-20,0.6369444415357245,0.6394022110718042,0.3858687470690292,1,True
2022-08-21,0.6394022110718042,0.6437767283104855,0.6841573524352551,0,True
2022-08-22,0.6437767283104855,0.6437767283104855,0.0,0,False
2022-08-23,0.6437767283104855,0.6437767283104855,0.0,0,False
2022-08-24,0.6437767283104855,0.6437767283104855,0.0,0,False
2022-08-25,0.6437767283104855,0.6422609373098837,-0.23545290376989492,1,True
2022-08-26,0.6422609373098837,0.6412179370092425,-0.1623951014380287,1,True
2022-08-27,0.6412179370092425,0.6403799130387533,-0.13069253402328007,6,True
2022-08-28,0.6403799130387533,0.6397454937680247,-0.0990692021737738,0,True
2022-08-29,0.6397454937680247,0.6437361979668105,0.6237955933508843,2,True
2022-08-30,0.6437361979668105,0.6442274765874837,0.07631676177677349,1,True
2022-08-31,0.6442274765874837,0.6423880273711632,-0.2855279048425863,2,True
2022-09-01,0.6423880273711632,0.6365796612854963,-0.9041834278008642,1,True
2022-09-02,0.6365796612854963,0.6366641699792255,0.013275431005532745,0,True
2022-09-03,0.6366641699792255,0.6366641699792255,0.0,0,False
2022-09-04,0.6366641699792255,0.6366641699792255,0.0,0,False
2022-09-05,0.6366641699792255,0.6366641699792255,0.0,0,False
2022-09-06,0.6366641699792255,0.6349287949764616,-0.2725730588577835,1,True
2022-09-07,0.6349287949764616,0.6270230045873023,-1.2451459835669199,5,True
2022-09-08,0.6270230045873023,0.6268048619325576,-0.03479021553416395,0,True
2022-09-09,0.6268048619325576,0.6268048619325576,0.0,0,False
2022-09-10,0.6268048619325576,0.6280467817809979,0.1981350056238007,1,True
2022-09-11,0.6280467817809979,0.6327023855719676,0.7412829626747497,0,True
2022-09-12,0.6327023855719676,0.6327023855719676,0.0,0,False
2022-09-13,0.6327023855719676,0.6274751719857594,-0.826172574247952,4,True
2022-09-14,0.6274751719857594,0.6361269122460791,1.378817943176891,2,True
2022-09-15,0.6361269122460791,0.6341891683639188,-0.30461592566778384,3,True
2022-09-16,0.6341891683639188,0.6214148497895432,-2.014275741626237,2,True
2022-09-17,0.6214148497895432,0.620790360885123,-0.10049468638088088,1,True
2022-09-18,0.620790360885123,0.6219398930464788,0.18517235991177827,0,True
2022-09-19,0.6219398930464788,0.6286989415077152,1.0867687596189057,8,True
2022-09-20,0.6286989415077152,0.6298813256089036,0.18806840971496985,0,True
2022-09-21,0.6298813256089036,0.6298813256089036,0.0,0,False
2022-09-22,0.6298813256089036,0.6295313662868789,-0.055559564603135936,2,True
2022-09-23,0.6295313662868789,0.6289966223560741,-0.08494317510481242,2,True
2022-09-24,0.6289966223560741,0.6309140690580674,0.30484213012320627,0,True
2022-09-25,0.6309140690580674,0.6309140690580674,0.0,0,False
2022-09-26,0.6309140690580674,0.6309140690580674,0.0,0,False
2022-09-27,0.6309140690580674,0.6309140690580674,0.0,0,False
2022-09-28,0.6309140690580674,0.6309140690580674,0.0,0,False
2022-09-29,0.6309140690580674,0.6309140690580674,0.0,0,False
2022-09-30,0.6309140690580674,0.6294177977902705,-0.2371592806656997,1,True
2022-10-01,0.6294177977902705,0.6291755992197914,-0.0384797778724133,0,True
2022-10-02,0.6291755992197914,0.6291755992197914,0.0,0,False
2022-10-03,0.6291755992197914,0.6291755992197914,0.0,0,False
2022-10-04,0.6291755992197914,0.6291755992197914,0.0,0,False
2022-10-05,0.6291755992197914,0.6291755992197914,0.0,0,False
2022-10-06,0.6291755992197914,0.6291755992197914,0.0,0,False
2022-10-07,0.6291755992197914,0.6291755992197914,0.0,0,False
2022-10-08,0.6291755992197914,0.6274805821377842,-0.2694028637011736,1,True
2022-10-09,0.6274805821377842,0.6264502573811944,-0.164200261477343,0,True
2022-10-10,0.6264502573811944,0.6264502573811944,0.0,0,False
2022-10-11,0.6264502573811944,0.6409079109156707,2.3078693582017085,6,True
2022-10-12,0.6409079109156707,0.6409633333225901,0.00864748366740109,2,True
2022-10-13,0.6409633333225901,0.640772992646642,-0.02969603190270398,1,True
2022-10-14,0.640772992646642,0.6434019822531698,0.4102840844881772,0,True
2022-10-15,0.6434019822531698,0.6434019822531698,0.0,0,False
2022-10-16,0.6434019822531698,0.6434019822531698,0.0,0,False
2022-10-17,0.6434019822531698,0.6434019822531698,0.0,0,False
2022-10-18,0.6434019822531698,0.6434019822531698,0.0,0,False
2022-10-19,0.6434019822531698,0.6434019822531698,0.0,0,False
2022-10-20,0.6434019822531698,0.6473058287360189,0.606750770207154,2,True
2022-10-21,0.6473058287360189,0.6409186703388366,-0.9867296281966698,0,True
2022-10-22,0.6409186703388366,0.6409186703388366,0.0,0,False
2022-10-23,0.6409186703388366,0.6409186703388366,0.0,0,False
2022-10-24,0.6409186703388366,0.6409186703388366,0.0,0,False
2022-10-25,0.6409186703388366,0.6388788091460321,-0.31827145739506957,1,True
2022-10-26,0.6388788091460321,0.6377151256402647,-0.1821446398140636,0,True
2022-10-27,0.6377151256402647,0.6377151256402647,0.0,0,False
2022-10-28,0.6377151256402647,0.634534713917719,-0.4987198193476372,1,True
2022-10-29,0.634534713917719,0.634534713917719,0.0,0,False
2022-10-30,0.634534713917719,0.6314414248391285,-0.4874893383676415,2,True
2022-10-31,0.6314414248391285,0.6325569043834262,0.17665606031183057,1,True
2022-11-01,0.6325569043834262,0.635985449280236,0.5420136707150247,0,True
2022-11-02,0.635985449280236,0.6435474735612257,1.1890247315481606,3,True
2022-11-03,0.6435474735612257,0.6534486417347712,1.5385295693501888,3,True
2022-11-04,0.6534486417347712,0.6626389568311206,1.4064326573471675,4,True
2022-11-05,0.6626389568311206,0.6626386331376252,-4.884914961422737e-05,2,True
2022-11-06,0.6626386331376252,0.6609060807624155,-0.2614626266213782,2,True
2022-11-07,0.6609060807624155,0.6546715134575275,-0.9433363508618231,7,True
2022-11-08,0.6546715134575275,0.6399308321854101,-2.251614889162834,12,True
2022-11-09,0.6399308321854101,0.60654203143298,-5.217564004285425,13,True
2022-11-10,0.60654203143298,0.6197434836884067,2.176510706807533,10,True
2022-11-11,0.6197434836884067,0.6180217705528401,-0.2778106072725106,8,True
2022-11-12,0.6180217705528401,0.6110445589960377,-1.1289588634654568,4,True
2022-11-13,0.6110445589960377,0.6073504471750074,-0.604556863594341,1,True
2022-11-14,0.6073504471750074,0.6055585396975802,-0.29503682524018027,6,True
2022-11-15,0.6055585396975802,0.6080087317637457,0.40461687938364577,1,True
2022-11-16,0.6080087317637457,0.6045922805474714,-0.5619082486469695,2,True
2022-11-17,0.6045922805474714,0.6058503572337842,0.20808679283395026,1,True
2022-11-18,0.6058503572337842,0.6076617821284416,0.29898883000218923,0,True
2022-11-19,0.6076617821284416,0.6075977792446371,-0.01053264919512742,3,True
2022-11-20,0.6075977792446371,0.5963422460359833,-1.8524645074652235,3,True
2022-11-21,0.5963422460359833,0.5855422774601249,-1.8110352985467926,6,True
2022-11-22,0.5855422774601249,0.5763081079898439,-1.5770286494658503,3,True
2022-11-23,0.5763081079898439,0.5825583797729175,1.0845364999070517,1,True
2022-11-24,0.5825583797729175,0.5790014494955827,-0.6105706141796841,2,True
2022-11-25,0.5790014494955827,0.5763297253524482,-0.46143652066192864,2,True
2022-11-26,0.5763297253524482,0.5774493833761773,0.1942738634632235,0,True
2022-11-27,0.5774493833761773,0.5774493833761773,0.0,0,False
2022-11-28,0.5774493833761773,0.5725101740008917,-0.8553493202135831,5,True
2022-11-29,0.5725101740008917,0.5753940639170145,0.5037272780620272,0,True
2022-11-30,0.5753940639170145,0.5753940639170145,0.0,0,False
2022-12-01,0.5753940639170145,0.5757180844066052,0.05631279672662082,1,True
2022-12-02,0.5757180844066052,0.5760651882046021,0.06029058447150071,1,True
2022-12-03,0.5760651882046021,0.5759230408179419,-0.02467557310713575,0,True
2022-12-04,0.5759230408179419,0.5759230408179419,0.0,0,False
2022-12-05,0.5759230408179419,0.5759230408179419,0.0,0,False
2022-12-06,0.5759230408179419,0.5769142188622834,0.17210251615109584,2,True
2022-12-07,0.5769142188622834,0.5740568509670145,-0.49528470643415146,1,True
2022-12-08,0.5740568509670145,0.5724774074419635,-0.27513712664353207,2,True
2022-12-09,0.5724774074419635,0.5744686736465309,0.3478331509124688,0,True
2022-12-10,0.5744686736465309,0.5744686736465309,0.0,0,False
2022-12-11,0.5744686736465309,0.5744686736465309,0.0,0,False
2022-12-12,0.5744686736465309,0.5740739363848125,-0.06871345293951725,1,True
2022-12-13,0.5740739363848125,0.5748005766216183,0.12657607160877493,1,True
2022-12-14,0.5748005766216183,0.5746464252925575,-0.02681822797861999,0,True
2022-12-15,0.5746464252925575,0.5746464252925575,0.0,0,False
2022-12-16,0.5746464252925575,0.5759215043021948,0.22188931376161403,5,True
2022-12-17,0.5759215043021948,0.5728982174986308,-0.5249477196075714,5,True
2022-12-18,0.5728982174986308,0.5741566253823993,0.21965644949339946,0,True
2022-12-19,0.5741566253823993,0.571293870105204,-0.49860180143155297,1,True
2022-12-20,0.571293870105204,0.571293870105204,0.0,0,False
2022-12-21,0.571293870105204,0.571293870105204,0.0,0,False
2022-12-22,0.571293870105204,0.571293870105204,0.0,0,False
2022-12-23,0.571293870105204,0.571293870105204,0.0,0,False
2022-12-24,0.571293870105204,0.571293870105204,0.0,0,False
2022-12-25,0.571293870105204,0.571293870105204,0.0,0,False
2022-12-26,0.571293870105204,0.571293870105204,0.0,0,False
2022-12-27,0.571293870105204,0.571293870105204,0.0,0,False
2022-12-28,0.571293870105204,0.5736826215100386,0.41813006052289214,4,True
2022-12-29,0.5736826215100386,0.568403320170426,-0.9202477365823691,0,True
2022-12-30,0.568403320170426,0.5737369983372068,0.9383615432051906,1,True
2022-12-31,0.5737369983372068,0.5737369983372068,0.0,0,False
2023-01-01,0.5737369983372068,0.5737369983372068,0.0,0,False
2023-01-02,0.5737369983372068,0.5732071206562284,-0.09235550130358705,1,True
2023-01-03,0.5732071206562284,0.5756443292260975,0.425188118228359,0,True
2023-01-04,0.5756443292260975,0.5756443292260975,0.0,0,False
2023-01-05,0.5756443292260975,0.5756443292260975,0.0,0,False
2023-01-06,0.5756443292260975,0.5750156339357516,-0.10921592699282279,1,True
2023-01-07,0.5750156339357516,0.5763307624395756,0.2287117821166751,0,True
2023-01-08,0.5763307624395756,0.5763307624395756,0.0,0,False
2023-01-09,0.5763307624395756,0.576444363314079,0.019711055162585644,1,True
2023-01-10,0.576444363314079,0.5772057632344257,0.13208558688462269,1,True
2023-01-11,0.5772057632344257,0.5696541166209129,-1.308311020873465,3,True
2023-01-12,0.5696541166209129,0.5669402984890677,-0.47639752837091986,0,True
2023-01-13,0.5669402984890677,0.5669280765101654,-0.002155778824475263,1,True
2023-01-14,0.5669280765101654,0.5702289201209252,0.5822332227888083,4,True
2023-01-15,0.5702289201209252,0.5689394686463883,-0.22612874041243458,2,True
2023-01-16,0.5689394686463883,0.5685118989100796,-0.07515206096107008,1,True
2023-01-17,0.5685118989100796,0.568148049696538,-0.0640002811267748,0,True
2023-01-18,0.568148049696538,0.568148049696538,0.0,0,False
2023-01-19,0.568148049696538,0.559888459572057,-1.453774263397123,7,True
2023-01-20,0.559888459572057,0.5608754395389192,0.17628153429283255,0,True
2023-01-21,0.5608754395389192,0.5588081594831638,-0.36858095577422256,2,True
2023-01-22,0.5588081594831638,0.5639799264910298,0.9254995511607023,1,True
2023-01-23,0.5639799264910298,0.5626251899422976,-0.24021006512786602,1,True
2023-01-24,0.5626251899422976,0.5705777392581469,1.4134719628648318,4,True
2023-01-25,0.5705777392581469,0.5697714293199758,-0.1413146505188645,8,True
2023-01-26,0.5697714293199758,0.5834110412590893,2.393874321742029,0,True
2023-01-27,0.5834110412590893,0.5820958422983357,-0.22543264829462117,2,True
2023-01-28,0.5820958422983357,0.5878908807681693,0.9955471330894028,0,True
2023-01-29,0.5878908807681693,0.5868662389830837,-0.1742911514032719,1,True
2023-01-30,0.5868662389830837,0.5865650413629426,-0.05132304435554458,5,True
2023-01-31,0.5865650413629426,0.5960086133303132,1.6099786556368123,5,True
2023-02-01,0.5960086133303132,0.5966736436185595,0.1115806505765482,2,True
2023-02-02,0.5966736436185595,0.6027524986533268,1.0187906068553243,0,True
2023-02-03,0.6027524986533268,0.6085196163157128,0.9567969730977399,2,True
2023-02-04,0.6085196163157128,0.6104494845461367,0.31714149859427554,0,True
2023-02-05,0.6104494845461367,0.6128605091117897,0.3949588994158315,5,True
2023-02-06,0.6128605091117897,0.6035803664481967,-1.514234075392229,1,True
2023-02-07,0.6035803664481967,0.6018847183000576,-0.28093162773288327,0,True
2023-02-08,0.6018847183000576,0.5968117958629168,-0.84283954765767,3,True
2023-02-09,0.5968117958629168,0.5929812013625897,-0.6418429606922404,9,True
2023-02-10,0.5929812013625897,0.5728954879945556,-3.38724285388472,8,True
2023-02-11,0.5728954879945556,0.577076314803354,0.7297712927419875,2,True
2023-02-12,0.577076314803354,0.5807215645299122,0.6316755051366751,1,True
2023-02-13,0.5807215645299122,0.584341925766424,0.6234246250941933,2,True
2023-02-14,0.584341925766424,0.5837482172048777,-0.10160293748691096,1,True
2023-02-15,0.5837482172048777,0.584608260594394,0.1473312233199353,0,True
2023-02-16,0.584608260594394,0.584608260594394,0.0,0,False
2023-02-17,0.584608260594394,0.5900152151370968,0.924885073845072,1,True
2023-02-18,0.5900152151370968,0.5906163047675506,0.10187697114119043,1,True
2023-02-19,0.5906163047675506,0.5917142952074922,0.1859058801930269,1,True
2023-02-20,0.5917142952074922,0.5960667227504891,0.7355623445721715,3,True
2023-02-21,0.5960667227504891,0.5950673939981357,-0.16765384045298592,5,True
2023-02-22,0.5950673939981357,0.5908553393664465,-0.7078281677289078,1,True
2023-02-23,0.5908553393664465,0.5956568299243422,0.8126338611146533,1,True
2023-02-24,0.5956568299243422,0.5956568299243422,0.0,0,False
2023-02-25,0.5956568299243422,0.5933601502711496,-0.3855709424979259,2,True
2023-02-26,0.5933601502711496,0.5930169013656679,-0.05784832455042466,0,True
2023-02-27,0.5930169013656679,0.5900589912085249,-0.49879019473663133,1,True
2023-02-28,0.5900589912085249,0.5888656378029169,-0.20224306779290657,1,True
2023-03-01,0.5888656378029169,0.588274571989019,-0.1003736295605906,1,True
2023-03-02,0.588274571989019,0.585022595436502,-0.5527991022154288,1,True
2023-03-03,0.585022595436502,0.581776393749261,-0.5548848390751315,9,True
2023-03-04,0.581776393749261,0.5837519100460736,0.3395662522642784,0,True
2023-03-05,0.5837519100460736,0.594580266421602,1.8549586201223267,4,True
2023-03-06,0.594580266421602,0.5966143774624929,0.34210873716562507,0,True
2023-03-07,0.5966143774624929,0.5966143774624929,0.0,0,False
2023-03-08,0.5966143774624929,0.5966143774624929,0.0,0,False
2023-03-09,0.5966143774624929,0.5966143774624929,0.0,0,False
2023-03-10,0.5966143774624929,0.5824099054685588,-2.380846411101978,10,True
2023-03-11,0.5824099054685588,0.575832619407766,-1.129322492463658,4,True
2023-03-12,0.575832619407766,0.5776361890940653,0.3132107535266604,0,True
2023-03-13,0.5776361890940653,0.5776361890940653,0.0,0,False
2023-03-14,0.5776361890940653,0.5830518966034314,0.9375637488814093,1,True
2023-03-15,0.5830518966034314,0.5756244299897787,-1.2738945978773675,4,True
2023-03-16,0.5756244299897787,0.5745941860037674,-0.17897850270697235,5,True
2023-03-17,0.5745941860037674,0.5725086155647308,-0.3629640692227598,2,True
2023-03-18,0.5725086155647308,0.5787950283415961,1.0980468426076584,2,True
2023-03-19,0.5787950283415961,0.5760868048103035,-0.4679071862542461,2,True
2023-03-20,0.5760868048103035,0.5792686641333773,0.5523228958735693,4,True
2023-03-21,0.5792686641333773,0.5679996671708609,-1.9453834913330748,0,True
2023-03-22,0.5679996671708609,0.5679996671708609,0.0,0,False
2023-03-23,0.5679996671708609,0.5746216241297382,1.165838175902545,6,True
2023-03-24,0.5746216241297382,0.5690239764432259,-0.9741449767035615,1,True
2023-03-25,0.5690239764432259,0.5661863924324944,-0.49867564956899146,1,True
2023-03-26,0.5661863924324944,0.5661863924324944,0.0,0,False
2023-03-27,0.5661863924324944,0.5633637693201875,-0.4985324885997455,1,True
2023-03-28,0.5633637693201875,0.5735026893344353,1.7997110510820535,4,True
2023-03-29,0.5735026893344353,0.5736056667575059,0.017955874485986456,0,True
2023-03-30,0.5736056667575059,0.5722032304689592,-0.24449484547014455,1,True
2023-03-31,0.5722032304689592,0.570737958000962,-0.25607553225385216,0,True
2023-04-01,0.570737958000962,0.5703206618508061,-0.07311519135989597,1,True
2023-04-02,0.5703206618508061,0.5690758958506215,-0.21825721623781602,0,True
2023-04-03,0.5690758958506215,0.5690758958506215,0.0,0,False
2023-04-04,0.5690758958506215,0.5693712379504702,0.051898543235129324,1,True
2023-04-05,0.5693712379504702,0.5685403611978187,-0.14592882416090136,1,True
2023-04-06,0.5685403611978187,0.5634070258370675,-0.9028972630784171,2,True
2023-04-07,0.5634070258370675,0.5608123320134483,-0.46053629163821386,1,True
2023-04-08,0.5608123320134483,0.5620152871579618,0.21450226320711696,1,True
2023-04-09,0.5620152871579618,0.5621448306775264,0.023049821334875098,0,True
2023-04-10,0.5621448306775264,0.5621448306775264,0.0,0,False
2023-04-11,0.5621448306775264,0.5621448306775264,0.0,0,False
2023-04-12,0.5621448306775264,0.5672805653897335,0.9135963602150854,1,True
2023-04-13,0.5672805653897335,0.5672805653897335,0.0,0,False
2023-04-14,0.5672805653897335,0.5724203229538197,0.9060344876357762,1,True
2023-04-15,0.5724203229538197,0.5713049159832401,-0.19485803103983512,1,True
2023-04-16,0.5713049159832401,0.5732906914306956,0.34758591986521203,0,True
2023-04-17,0.5732906914306956,0.5704274123971658,-0.49944628027784876,1,True
2023-04-18,0.5704274123971658,0.5704274123971658,0.0,0,False
2023-04-19,0.5704274123971658,0.5614204013028494,-1.5789933826050317,9,True
2023-04-20,0.5614204013028494,0.5534424381219676,-1.4210319329985066,0,True
2023-04-21,0.5534424381219676,0.5534424381219676,0.0,0,False
2023-04-22,0.5534424381219676,0.5529092799525862,-0.09633489097630177,1,True
2023-04-23,0.5529092799525862,0.5529621652393399,0.00956491212416033,0,True
2023-04-24,0.5529621652393399,0.5529621652393399,0.0,0,False
2023-04-25,0.5529621652393399,0.5529621652393399,0.0,0,False
2023-04-26,0.5529621652393399,0.5529621652393399,0.0,0,False
2023-04-27,0.5529621652393399,0.5580768087994874,0.9249536191926699,9,True
2023-04-28,0.5580768087994874,0.5590298085558979,0.17076498098183013,0,True
2023-04-29,0.5590298085558979,0.5562413588005947,-0.4988016224942382,1,True
2023-04-30,0.5562413588005947,0.5562413588005947,0.0,0,False
2023-05-01,0.5562413588005947,0.5562413588005947,0.0,0,False
2023-05-02,0.5562413588005947,0.5562413588005947,0.0,0,False
2023-05-03,0.5562413588005947,0.5562413588005947,0.0,0,False
2023-05-04,0.5562413588005947,0.5562413588005947,0.0,0,False
2023-05-05,0.5562413588005947,0.5562413588005947,0.0,0,False
2023-05-06,0.5562413588005947,0.5534699672479656,-0.4982354348128548,1,True
2023-05-07,0.5534699672479656,0.5534699672479656,0.0,0,False
2023-05-08,0.5534699672479656,0.5606543270507308,1.2980577498157952,6,True
2023-05-09,0.5606543270507308,0.5505803713947124,-1.7968211730410633,6,True
2023-05-10,0.5505803713947124,0.5471912656346706,-0.6155515045799143,2,True
2023-05-11,0.5471912656346706,0.5432119316650798,-0.7272290731788811,4,True
2023-05-12,0.5432119316650798,0.5395517452692478,-0.6738044918513819,0,True
2023-05-13,0.5395517452692478,0.5395517452692478,0.0,0,False
2023-05-14,0.5395517452692478,0.5395517452692478,0.0,0,False
2023-05-15,0.5395517452692478,0.5395517452692478,0.0,0,False
2023-05-16,0.5395517452692478,0.5395517452692478,0.0,0,False
2023-05-17,0.5395517452692478,0.5395517452692478,0.0,0,False
2023-05-18,0.5395517452692478,0.5378739328419813,-0.31096413680011814,1,True
2023-05-19,0.5378739328419813,0.5368561263530035,-0.1892277031534051,0,True
2023-05-20,0.5368561263530035,0.5368561263530035,0.0,0,False
2023-05-21,0.5368561263530035,0.5368561263530035,0.0,0,False
2023-05-22,0.5368561263530035,0.5341744475993033,-0.49951534909687956,1,True
2023-05-23,0.5341744475993033,0.5341744475993033,0.0,0,False
2023-05-24,0.5341744475993033,0.532621217827218,-0.2907720088569987,1,True
2023-05-25,0.532621217827218,0.5352391208299605,0.49151308943755634,0,True
2023-05-26,0.5352391208299605,0.5366465083348059,0.2629455602316533,1,True
2023-05-27,0.5366465083348059,0.5401833873197082,0.6590705296633859,0,True
2023-05-28,0.5401833873197082,0.5401833873197082,0.0,0,False
2023-05-29,0.5401833873197082,0.5401833873197082,0.0,0,False
2023-05-30,0.5401833873197082,0.5429647698747533,0.5148959816861254,2,True
2023-05-31,0.5429647698747533,0.5373511207197385,-1.0338882864001975,1,True
2023-06-01,0.5373511207197385,0.5373511207197385,0.0,0,False
2023-06-02,0.5373511207197385,0.542433527589265,0.9458260481003622,1,True
2023-06-03,0.542433527589265,0.542433527589265,0.0,0,False
2023-06-04,0.542433527589265,0.5386452395737049,-0.6983875116267857,3,True
2023-06-05,0.5386452395737049,0.5413181260433672,0.4962239101523602,1,True
2023-06-06,0.5413181260433672,0.5262443301383708,-2.7846464361307444,11,True
2023-06-07,0.5262443301383708,0.5242144101309559,-0.38573717400073315,1,True
2023-06-08,0.5242144101309559,0.5229617644406624,-0.2389567448137453,1,True
2023-06-09,0.5229617644406624,0.5212695157191762,-0.32358937814433997,1,True
2023-06-10,0.5212695157191762,0.5288822581548742,1.4604234865326804,7,True
2023-06-11,0.5288822581548742,0.5284695385514117,-0.07803619748986135,0,True
2023-06-12,0.5284695385514117,0.5284695385514117,0.0,0,False
2023-06-13,0.5284695385514117,0.5290070091375345,0.10170322921470021,1,True
2023-06-14,0.5290070091375345,0.5289777316656271,-0.005534420414410324,0,True
2023-06-15,0.5289777316656271,0.5321215244360146,0.5943147664247306,5,True
2023-06-16,0.5321215244360146,0.5374427579313745,1.0000034298555782,0,True
2023-06-17,0.5374427579313745,0.5383353161533936,0.16607503010266367,1,True
2023-06-18,0.5383353161533936,0.5390258889064542,0.12827929588477005,0,True
2023-06-19,0.5390258889064542,0.5418753794268163,0.5286370430449994,1,True
2023-06-20,0.5418753794268163,0.5414192026143967,-0.08418481993076599,1,True
2023-06-21,0.5414192026143967,0.5414192026143967,0.0,0,False
2023-06-22,0.5414192026143967,0.5387165125414407,-0.4991862238918121,1,True
2023-06-23,0.5387165125414407,0.5387165125414407,0.0,0,False
2023-06-24,0.5387165125414407,0.5387925163130981,0.014108305553661715,1,True
2023-06-25,0.5387925163130981,0.5380308167779974,-0.1413715877705557,4,True
2023-06-26,0.5380308167779974,0.5360248817324661,-0.37282902446812427,0,True
2023-06-27,0.5360248817324661,0.5360248817324661,0.0,0,False
2023-06-28,0.5360248817324661,0.5360248817324661,0.0,0,False
2023-06-29,0.5360248817324661,0.534597253918832,-0.2663361090664229,2,True
2023-06-30,0.534597253918832,0.531533590520104,-0.5730787758953082,9,True
2023-07-01,0.531533590520104,0.5388512352725394,1.3767041035497307,1,True
2023-07-02,0.5388512352725394,0.5388439811159416,-0.0013462262166252792,0,True
2023-07-03,0.5388439811159416,0.5388439811159416,0.0,0,False
2023-07-04,0.5388439811159416,0.538202937335221,-0.11896649182069341,1,True
2023-07-05,0.538202937335221,0.5385734487720344,0.06884232900101761,1,True
2023-07-06,0.5385734487720344,0.5361422439134849,-0.4514156544650927,2,True
2023-07-07,0.5361422439134849,0.5355877959179377,-0.10341434606981892,0,True
2023-07-08,0.5355877959179377,0.5355877959179377,0.0,0,False
2023-07-09,0.5355877959179377,0.5355877959179377,0.0,0,False
2023-07-10,0.5355877959179377,0.5355877959179377,0.0,0,False
2023-07-11,0.5355877959179377,0.5355877959179377,0.0,0,False
2023-07-12,0.5355877959179377,0.5345457047245019,-0.19456963011074135,1,True
2023-07-13,0.5345457047245019,0.5341037506553336,-0.08267844363207821,0,True
2023-07-14,0.5341037506553336,0.5341037506553336,0.0,0,False
2023-07-15,0.5341037506553336,0.5365701628369033,0.4617852202954076,6,True
2023-07-16,0.5365701628369033,0.5362054290411797,-0.06797504240547703,2,True
2023-07-17,0.5362054290411797,0.5370808326976372,0.16325900653837433,0,True
2023-07-18,0.5370808326976372,0.5371445048938435,0.011855235251356788,2,True
2023-07-19,0.5371445048938435,0.5370743546226021,-0.013059850859908906,1,True
2023-07-20,0.5370743546226021,0.535760511953318,-0.24462956720533446,2,True
2023-07-21,0.535760511953318,0.5346497847026648,-0.20731786420832288,0,True
2023-07-22,0.5346497847026648,0.5346497847026648,0.0,0,False
2023-07-23,0.5346497847026648,0.5346497847026648,0.0,0,False
2023-07-24,0.5346497847026648,0.5303485607801622,-0.804493716366983,4,True
2023-07-25,0.5303485607801622,0.5291096536621195,-0.23360242860285263,0,True
2023-07-26,0.5291096536621195,0.5291096536621195,0.0,0,False
2023-07-27,0.5291096536621195,0.5291096536621195,0.0,0,False
2023-07-28,0.5291096536621195,0.5291096536621195,0.0,0,False
2023-07-29,0.5291096536621195,0.5291096536621195,0.0,0,False
2023-07-30,0.5291096536621195,0.5291096536621195,0.0,0,False
2023-07-31,0.5291096536621195,0.5264725839677913,-0.4983975771517879,1,True
2023-08-01,0.5264725839677913,0.524064869667103,-0.4573294743180023,2,True
2023-08-02,0.524064869667103,0.5285411831318896,0.854152553219234,0,True
2023-08-03,0.5285411831318896,0.5285411831318896,0.0,0,False
2023-08-04,0.5285411831318896,0.5285411831318896,0.0,0,False
2023-08-05,0.5285411831318896,0.5285411831318896,0.0,0,False
2023-08-06,0.5285411831318896,0.5285411831318896,0.0,0,False
2023-08-07,0.5285411831318896,0.5270806503975725,-0.2763328158579159,2,True
2023-08-08,0.5270806503975725,0.5268726525035371,-0.039462251911248636,5,True
2023-08-09,0.5268726525035371,0.5240885805670451,-0.528414584295267,0,True
2023-08-10,0.5240885805670451,0.5214747659157931,-0.49873528028867575,1,True
2023-08-11,0.5214747659157931,0.5214747659157931,0.0,0,False
2023-08-12,0.5214747659157931,0.5214747659157931,0.0,0,False
2023-08-13,0.5214747659157931,0.523429896932417,0.3749234180469685,1,True
2023-08-14,0.523429896932417,0.5202465842671381,-0.6081640891998807,1,True
2023-08-15,0.5202465842671381,0.5202465842671381,0.0,0,False
2023-08-16,0.5202465842671381,0.5202893037190641,0.008211385373368962,6,True
2023-08-17,0.5202893037190641,0.5262863213537375,1.1526313517895348,6,True
2023-08-18,0.5262863213537375,0.5396395584787987,2.5372571133358335,7,True
2023-08-19,0.5396395584787987,0.5396750114889022,0.006569757451324598,0,True
2023-08-20,0.5396750114889022,0.5388651519064811,-0.15006431003480314,1,True
2023-08-21,0.5388651519064811,0.5375281231107832,-0.24811936547900482,1,True
2023-08-22,0.5375281231107832,0.544634809948738,1.322105120161332,1,True
2023-08-23,0.544634809948738,0.5452869830431516,0.11974502593306013,0,True
2023-08-24,0.5452869830431516,0.5452869830431516,0.0,0,False
2023-08-25,0.5452869830431516,0.5345354533200422,-1.9717194903694613,6,True
2023-08-26,0.5345354533200422,0.53388639844195,-0.12142410275330917,0,True
2023-08-27,0.53388639844195,0.53388639844195,0.0,0,False
2023-08-28,0.53388639844195,0.5303587241899069,-0.6607537225780447,2,True
2023-08-29,0.5303587241899069,0.5342074767712619,0.7256885586701234,1,True
2023-08-30,0.5342074767712619,0.5319821181562238,-0.416571970966817,2,True
2023-08-31,0.5319821181562238,0.5354049584961521,0.6434126680406882,2,True
2023-09-01,0.5354049584961521,0.5319913693350776,-0.6375714507132257,1,True
2023-09-02,0.5319913693350776,0.5252784263421517,-1.2618518607390605,3,True
2023-09-03,0.5252784263421517,0.5243759017222412,-0.17181832998459656,0,True
2023-09-04,0.5243759017222412,0.5236263459055637,-0.1429424605928209,3,True
2023-09-05,0.5236263459055637,0.5237779151795614,0.028946074845714875,0,True
2023-09-06,0.5237779151795614,0.5248877857949248,0.21189717687559728,4,True
2023-09-07,0.5248877857949248,0.5282054557561836,0.6320722354463459,3,True
2023-09-08,0.5282054557561836,0.5224277703085599,-1.0938329743967357,4,True
2023-09-09,0.5224277703085599,0.5243716275887211,0.37208153751342454,4,True
2023-09-10,0.5243716275887211,0.5171708768468155,-1.373215170892761,5,True
2023-09-11,0.5171708768468155,0.5117736600715754,-1.0436041580970001,1,True
2023-09-12,0.5117736600715754,0.5103697880414478,-0.2743150223736168,2,True
2023-09-13,0.5103697880414478,0.5156700115635144,1.038506519440796,2,True
2023-09-14,0.5156700115635144,0.5173804879894943,0.3316998056167142,4,True
2023-09-15,0.5173804879894943,0.5227977391253991,1.0470536213987858,0,True
2023-09-16,0.5227977391253991,0.5229596711730464,0.030974129291050367,5,True
2023-09-17,0.5229596711730464,0.5235219979234578,0.1075277466711766,2,True
2023-09-18,0.5235219979234578,0.5181006234849761,-1.0355580968871347,1,True
2023-09-19,0.5181006234849761,0.5181006234849761,0.0,0,False
2023-09-20,0.5181006234849761,0.5189923482179971,0.17211419801483885,3,True
2023-09-21,0.5189923482179971,0.513278095218256,-1.1010283714897762,1,True
2023-09-22,0.513278095218256,0.5175100922557516,0.8245037294444035,0,True
2023-09-23,0.5175100922557516,0.5175100922557516,0.0,0,False
2023-09-24,0.5175100922557516,0.5149282885242317,-0.49888954247563344,1,True
2023-09-25,0.5149282885242317,0.5148164536271537,-0.02171853820626124,1,True
2023-09-26,0.5148164536271537,0.5154150516571978,0.11627406735481571,1,True
2023-09-27,0.5154150516571978,0.5139814878049522,-0.27813775473499724,0,True
2023-09-28,0.5139814878049522,0.5139814878049522,0.0,0,False
2023-09-29,0.5139814878049522,0.5088717267269978,-0.994152746585597,2,True
2023-09-30,0.5088717267269978,0.5088717267269978,0.0,0,False
2023-10-01,0.5088717267269978,0.5085269467464619,-0.06775380954123777,1,True
2023-10-02,0.5085269467464619,0.5120224128705367,0.6873708751205188,1,True
2023-10-03,0.5120224128705367,0.515765342795418,0.7310090009336356,2,True
2023-10-04,0.515765342795418,0.5099441003580142,-1.1286610313622436,5,True
2023-10-05,0.5099441003580142,0.5057169821531552,-0.8289375643117158,1,True
2023-10-06,0.5057169821531552,0.5057049716627131,-0.002374943074079372,0,True
2023-10-07,0.5057049716627131,0.5031840979491355,-0.49848703391013327,1,True
2023-10-08,0.5031840979491355,0.5022909735580077,-0.17749455810865955,1,True
2023-10-09,0.5022909735580077,0.5011250356425646,-0.23212400318167736,1,True
2023-10-10,0.5011250356425646,0.49817811866728545,-0.5880602176461802,1,True
2023-10-11,0.49817811866728545,0.49807258814728733,-0.02118329088407478,0,True
2023-10-12,0.49807258814728733,0.49807258814728733,0.0,0,False
2023-10-13,0.49807258814728733,0.49807258814728733,0.0,0,False
2023-10-14,0.49807258814728733,0.49807258814728733,0.0,0,False
2023-10-15,0.49807258814728733,0.4980956062780499,0.0046214409928024835,1,True
2023-10-16,0.4980956062780499,0.499586728062816,0.29936457297994323,2,True
2023-10-17,0.499586728062816,0.5016919472576239,0.4213921380519903,2,True
2023-10-18,0.5016919472576239,0.49575183849265975,-1.1840151705512336,3,True
2023-10-19,0.49575183849265975,0.48816335227172813,-1.530702587811783,4,True
2023-10-20,0.48816335227172813,0.4869126201356563,-0.25621180497295004,0,True
2023-10-21,0.4869126201356563,0.48728346210063006,0.07616191276176298,2,True
2023-10-22,0.48728346210063006,0.4914216454345876,0.8492353333967584,1,True
2023-10-23,0.4914216454345876,0.4914216454345876,0.0,0,False
2023-10-24,0.4914216454345876,0.49013084330368356,-0.2626669262324688,4,True
2023-10-25,0.49013084330368356,0.5045674815407523,2.9454661820014882,7,True
2023-10-26,0.5045674815407523,0.5080607775896636,0.69233475733399,3,True
2023-10-27,0.5080607775896636,0.50819857786203,0.027122792871381307,4,True
2023-10-28,0.50819857786203,0.5080567060082722,-0.027916617625067808,1,True
2023-10-29,0.5080567060082722,0.5090217050798149,0.18993924499581816,0,True
2023-10-30,0.5090217050798149,0.5076880726389559,-0.26199913040052536,2,True
2023-10-31,0.5076880726389559,0.4973152686187346,-2.0431451080391905,5,True
2023-11-01,0.4973152686187346,0.49337445458275797,-0.7924176643363534,4,True
2023-11-02,0.49337445458275797,0.4926193880021454,-0.1530412800255565,3,True
2023-11-03,0.4926193880021454,0.48974050648277007,-0.5844028045771443,1,True
2023-11-04,0.48974050648277007,0.49073886690465074,0.20385498211097364,1,True
2023-11-05,0.49073886690465074,0.4919023025370569,0.2370783548783395,4,True
2023-11-06,0.4919023025370569,0.488135725818937,-0.7657164235038705,3,True
2023-11-07,0.488135725818937,0.48317892386598177,-1.015455679798749,5,True
2023-11-08,0.48317892386598177,0.48395457866142877,0.1605315871894497,0,True
2023-11-09,0.48395457866142877,0.48822652953189255,0.8827173166291002,3,True
2023-11-10,0.48822652953189255,0.48244416370725346,-1.1843612493125266,6,True
2023-11-11,0.48244416370725346,0.48415245932201084,0.35409188114750023,3,True
2023-11-12,0.48415245932201084,0.4881714085838523,0.8300999374183604,4,True
2023-11-13,0.4881714085838523,0.48560543221430125,-0.5256302037423111,3,True
2023-11-14,0.48560543221430125,0.4887202895499198,0.641437910077558,4,True
2023-11-15,0.4887202895499198,0.4854992128968579,-0.6590838812991273,1,True
2023-11-16,0.4854992128968579,0.4818618693942685,-0.7491965807495782,4,True
2023-11-17,0.4818618693942685,0.4839841803753963,0.4404397018995754,3,True
2023-11-18,0.4839841803753963,0.4788238859621244,-1.0662113809731144,3,True
2023-11-19,0.4788238859621244,0.47314380587451305,-1.1862566288225351,3,True
2023-11-20,0.47314380587451305,0.4743601927621253,0.2570860851415002,1,True
2023-11-21,0.4743601927621253,0.46393228878004067,-2.1983092471070553,4,True
2023-11-22,0.46393228878004067,0.4637884702437442,-0.030999897996897285,4,True
2023-11-23,0.4637884702437442,0.4682909728860368,0.970809524420968,3,True
2023-11-24,0.4682909728860368,0.4710853212550234,0.5967119869437765,1,True
2023-11-25,0.4710853212550234,0.4691227853163401,-0.4165988304315804,4,True
2023-11-26,0.4691227853163401,0.470286374710198,0.248035147786152,1,True
2023-11-27,0.470286374710198,0.4749338405110147,0.9882203803332823,3,True
2023-11-28,0.4749338405110147,0.47341252507522186,-0.32032154924062084,2,True
2023-11-29,0.47341252507522186,0.47725838611196586,0.8123699380646832,3,True
2023-11-30,0.47725838611196586,0.47442303979870104,-0.5940904121901847,0,True
2023-12-01,0.47442303979870104,0.47442303979870104,0.0,0,False
2023-12-02,0.47442303979870104,0.47442303979870104,0.0,0,False
2023-12-03,0.47442303979870104,0.47497559898673786,0.1164697204147691,1,True
2023-12-04,0.47497559898673786,0.4820969706360852,1.4993131572525575,5,True
2023-12-05,0.4820969706360852,0.48353983305667775,0.29928883782215365,4,True
2023-12-06,0.48353983305667775,0.4748781606541404,-1.7913048337265036,3,True
2023-12-07,0.4748781606541404,0.48024258930112373,1.129643157224547,4,True
2023-12-08,0.48024258930112373,0.4783945058602328,-0.38482289619093946,1,True
2023-12-09,0.4783945058602328,0.480798474183918,0.5025075109009736,0,True
2023-12-10,0.480798474183918,0.47983044099991146,-0.20133865558739084,3,True
2023-12-11,0.47983044099991146,0.4812825828270761,0.3026364530225534,6,True
2023-12-12,0.4812825828270761,0.48645096283284683,1.0738763857631062,0,True
2023-12-13,0.48645096283284683,0.48429880382032103,-0.44242054738522496,5,True
2023-12-14,0.48429880382032103,0.4906548565844945,1.3124237999422306,1,True
2023-12-15,0.4906548565844945,0.48652645798630356,-0.8414058360553422,2,True
2023-12-16,0.48652645798630356,0.49844907443555675,2.4505587010827723,4,True
2023-12-17,0.49844907443555675,0.49518897008400325,-0.654049634909093,2,True
2023-12-18,0.49518897008400325,0.4929745319498344,-0.4471905207810156,7,True
2023-12-19,0.4929745319498344,0.49549032115752356,0.5103284337506286,4,True
2023-12-20,0.49549032115752356,0.49705442686203616,0.3156682659024801,2,True
2023-12-21,0.49705442686203616,0.49302176600778386,-0.8113117269090586,1,True
2023-12-22,0.49302176600778386,0.4888894735351952,-0.838156194613815,1,True
2023-12-23,0.4888894735351952,0.48874078323905285,-0.030413887839952913,1,True
2023-12-24,0.48874078323905285,0.493139991728648,0.900110782742547,2,True
2023-12-25,0.493139991728648,0.49765844016437333,0.9162608004851691,2,True
2023-12-26,0.49765844016437333,0.4960513768114864,-0.32292496684194205,1,True
2023-12-27,0.4960513768114864,0.49128418712319344,-0.9610274078736492,11,True
2023-12-28,0.49128418712319344,0.4937943898224228,0.510947179865151,1,True
2023-12-29,0.4937943898224228,0.5019554163959563,1.6527175564850616,2,True
2023-12-30,0.5019554163959563,0.504332419281439,0.47354860767307994,3,True
2023-12-31,0.504332419281439,0.5028937020174306,-0.2852716202655259,2,True
