day,start_equity,end_equity,return_pct,entries,active
2024-01-02,1.01329894281636,1.0071475260243288,-0.607068312430481,1,True
2024-01-03,1.0071475260243288,0.9997226056473947,-0.7372227191227543,11,True
2024-01-04,0.9997226056473947,1.027135257429675,2.7420258006998433,5,True
2024-01-05,1.027135257429675,1.0134772405009653,-1.3297194142559032,8,True
2024-01-06,1.0134772405009653,1.0078729660230412,-0.5529748724454775,7,True
2024-01-07,1.0078729660230412,1.0138367761680345,0.5917224041166458,9,True
2024-01-08,1.0138367761680345,0.982131563211024,-3.1272502341891384,13,True
2024-01-09,0.982131563211024,0.9804613989974359,-0.17005503907517872,5,True
2024-01-10,0.9804613989974359,0.9624963592621343,-1.8323046428621925,7,True
2024-01-11,0.9624963592621343,0.9753547027438638,1.3359368436039576,6,True
2024-01-12,0.9753547027438638,0.9638609256271063,-1.1784202284997658,6,True
2024-01-13,0.9638609256271063,0.9657466180076634,0.19563946731528947,8,True
2024-01-14,0.9657466180076634,0.9651873361891934,-0.05791185887078498,1,True
2024-01-15,0.9651873361891934,0.9728514874139406,0.79405841098239,5,True
2024-01-16,0.9728514874139406,0.9705442279904078,-0.23716460871802125,1,True
2024-01-17,0.9705442279904078,0.9785106399916313,0.8208190591910025,0,True
2024-01-18,0.9785106399916313,0.9724912933715816,-0.61515392618533,2,True
2024-01-19,0.9724912933715816,0.963928391563149,-0.8805119250729132,1,True
2024-01-20,0.963928391563149,1.004381627590306,4.196705520993738,11,True
2024-01-21,1.004381627590306,1.0015077114821656,-0.2861378612664778,3,True
2024-01-22,1.0015077114821656,0.9756874840514177,-2.5781356583401305,4,True
2024-01-23,0.9756874840514177,0.948770004805636,-2.758821824177793,11,True
2024-01-24,0.948770004805636,0.9481960107342465,-0.06049875823246342,1,True
2024-01-25,0.9481960107342465,0.9338810973933073,-1.509699806673337,4,True
2024-01-26,0.9338810973933073,0.929357869774416,-0.48434727199390126,0,True
2024-01-27,0.929357869774416,0.929357869774416,0.0,0,False
2024-01-28,0.929357869774416,0.925022728927469,-0.4664662545978526,2,True
2024-01-29,0.925022728927469,0.924918962966144,-0.0112176661264618,0,True
2024-01-30,0.924918962966144,0.924918962966144,0.0,0,False
2024-01-31,0.924918962966144,0.9203120018331583,-0.4980934889918909,1,True
2024-02-01,0.9203120018331583,0.9203120018331583,0.0,0,False
2024-02-02,0.9203120018331583,0.9205164828677626,0.022218664343931493,3,True
2024-02-03,0.9205164828677626,0.9255632791645004,0.5482570264266462,1,True
2024-02-04,0.9255632791645004,0.921643713093017,-0.4234789948691198,1,True
2024-02-05,0.921643713093017,0.921643713093017,0.0,0,False
2024-02-06,0.921643713093017,0.9147175580524615,-0.7515002752323308,2,True
2024-02-07,0.9147175580524615,0.9079513703365171,-0.7397023984485829,5,True
2024-02-08,0.9079513703365171,0.932148941167353,2.6650734413085964,1,True
2024-02-09,0.932148941167353,0.932148941167353,0.0,0,False
2024-02-10,0.932148941167353,0.926221495625631,-0.6358903904668756,2,True
2024-02-11,0.926221495625631,0.9235520344088342,-0.2882098104399766,0,True
2024-02-12,0.9235520344088342,0.9305421906896035,0.7568773626538405,3,True
2024-02-13,0.9305421906896035,0.9306446169771739,0.01100716212496522,0,True
2024-02-14,0.9306446169771739,0.9331505709398807,0.26927077393370524,2,True
2024-02-15,0.9331505709398807,0.9412592875249217,0.8689612199319408,7,True
2024-02-16,0.9412592875249217,0.9475491254866686,0.6682364833059173,7,True
2024-02-17,0.9475491254866686,0.9378516285930242,-1.0234294595189097,6,True
2024-02-18,0.9378516285930242,0.9374640515007479,-0.04132605632489739,4,True
2024-02-19,0.9374640515007479,0.9283035935458657,-0.9771529841829718,6,True
2024-02-20,0.9283035935458657,0.9102918580416988,-1.9402850133723004,13,True
2024-02-21,0.9102918580416988,0.8991041997358995,-1.2290188258815338,9,True
2024-02-22,0.8991041997358995,0.9338615330111164,3.865773653979865,5,True
2024-02-23,0.9338615330111164,0.9124999822483812,-2.2874430531320433,7,True
2024-02-24,0.9124999822483812,0.924268791859646,1.2897325852288422,9,True
2024-02-25,0.924268791859646,0.9207166726404096,-0.38431668909750805,7,True
2024-02-26,0.9207166726404096,0.9258972642282935,0.5626694662786091,8,True
2024-02-27,0.9258972642282935,0.911025361033158,-1.606215264879396,7,True
2024-02-28,0.911025361033158,0.9068996322363105,-0.45286651429424785,7,True
2024-02-29,0.9068996322363105,0.8882905612656435,-2.0519438214765984,17,True
2024-03-01,0.8882905612656435,0.8994790762702298,1.259555768401377,9,True
2024-03-02,0.8994790762702298,0.8923994035876359,-0.7870858666274239,10,True
2024-03-03,0.8923994035876359,0.9186871564287543,2.9457385040191575,13,True
2024-03-04,0.9186871564287543,0.9299926795813895,1.230617307918358,4,True
2024-03-05,0.9299926795813895,0.9465860862361704,1.7842513192953158,15,True
2024-03-06,0.9465860862361704,0.9212993647539475,-2.6713599375592256,21,True
2024-03-07,0.9212993647539475,0.9280645226268318,0.7343061475670432,9,True
2024-03-08,0.9280645226268318,0.9292893998233651,0.1319819006836198,6,True
2024-03-09,0.9292893998233651,0.9336384387594514,0.46799618470982907,8,True
2024-03-10,0.9336384387594514,0.9159052674737779,-1.8993617389228334,9,True
2024-03-11,0.9159052674737779,0.9214548380561872,0.6059109800423013,10,True
2024-03-12,0.9214548380561872,0.9511787293414693,3.225756711851968,10,True
2024-03-13,0.9511787293414693,0.9612373172469463,1.057486631607163,9,True
2024-03-14,0.9612373172469463,0.9671016507924672,0.6100817602792352,6,True
2024-03-15,0.9671016507924672,0.9368234707857753,-3.1308167018307964,16,True
2024-03-16,0.9368234707857753,0.9399867113477298,0.3376559896926201,4,True
2024-03-17,0.9399867113477298,0.9144913273161699,-2.7123132405781902,9,True
2024-03-18,0.9144913273161699,0.9449459891352815,3.3302297035981088,5,True
2024-03-19,0.9449459891352815,0.914089822608828,-3.2653894382566717,18,True
2024-03-20,0.914089822608828,0.8907518203211782,-2.5531410273273547,7,True
2024-03-21,0.8907518203211782,0.9034792131179231,1.4288371358203822,6,True
2024-03-22,0.9034792131179231,0.9048013914071423,0.1463429672782679,10,True
2024-03-23,0.9048013914071423,0.9233397953020106,2.0488920630457264,6,True
2024-03-24,0.9233397953020106,0.9172788731849387,-0.6564129638850225,6,True
2024-03-25,0.9172788731849387,0.9438682345820849,2.898721661911141,4,True
2024-03-26,0.9438682345820849,0.9653284200444877,2.2736420907209176,10,True
2024-03-27,0.9653284200444877,0.9563657643459368,-0.928456628070462,10,True
2024-03-28,0.9563657643459368,0.9448478313466567,-1.2043439266311684,5,True
2024-03-29,0.9448478313466567,0.9216971931468647,-2.450197527235287,7,True
2024-03-30,0.9216971931468647,0.9141761367871242,-0.8160007880746667,3,True
2024-03-31,0.9141761367871242,0.9109060541199117,-0.35770816318890786,1,True
2024-04-01,0.9109060541199117,0.904456153710037,-0.7080752598692897,6,True
2024-04-02,0.904456153710037,0.8972100297742842,-0.8011581220415676,9,True
2024-04-03,0.8972100297742842,0.8831749196290687,-1.5643059795872327,5,True
2024-04-04,0.8831749196290687,0.8795015336655241,-0.4159296060045947,3,True
2024-04-05,0.8795015336655241,0.8540314306010722,-2.8959702842471846,5,True
2024-04-06,0.8540314306010722,0.8416663208916961,-1.447851831480429,3,True
2024-04-07,0.8416663208916961,0.857817917806237,1.9190024019767327,4,True
2024-04-08,0.857817917806237,0.8486612619034232,-1.0674358407237294,2,True
2024-04-09,0.8486612619034232,0.8360356254862469,-1.4877121160047801,3,True
2024-04-10,0.8360356254862469,0.8271562079582429,-1.0620860232887441,7,True
2024-04-11,0.8271562079582429,0.8310358569876968,0.46903462636525006,1,True
2024-04-12,0.8310358569876968,0.8288448350149858,-0.2636495109432313,10,True
2024-04-13,0.8288448350149858,0.8172570352201354,-1.3980662369261099,13,True
2024-04-14,0.8172570352201354,0.7786919895057371,-4.718839245478068,20,True
2024-04-15,0.7786919895057371,0.8006140532578396,2.8152419759727154,3,True
2024-04-16,0.8006140532578396,0.7923414184865379,-1.0332862304426094,1,True
2024-04-17,0.7923414184865379,0.7936048664802189,0.15945752225021703,2,True
2024-04-18,0.7936048664802189,0.8008417643872923,0.9119019064449896,1,True
2024-04-19,0.8008417643872923,0.8083206283043494,0.9338753608559625,10,True
2024-04-20,0.8083206283043494,0.8083206283043494,0.0,0,False
2024-04-21,0.8083206283043494,0.8083206283043494,0.0,0,False
2024-04-22,0.8083206283043494,0.8083206283043494,0.0,0,False
2024-04-23,0.8083206283043494,0.806210720281242,-0.26102365190573407,4,True
2024-04-24,0.806210720281242,0.8001999948075058,-0.7455526604309259,6,True
2024-04-25,0.8001999948075058,0.786200868676668,-1.7494534143561613,4,True
2024-04-26,0.786200868676668,0.789493875263005,0.41885054030526003,2,True
2024-04-27,0.789493875263005,0.7887022970474458,-0.10026400968538018,6,True
2024-04-28,0.7887022970474458,0.7945343654694899,0.7394511774438506,3,True
2024-04-29,0.7945343654694899,0.8010016272239208,0.8139687892051661,3,True
2024-04-30,0.8010016272239208,0.7930556923409633,-0.9919998428088328,2,True
2024-05-01,0.7930556923409633,0.7836124315606576,-1.190743710877451,6,True
2024-05-02,0.7836124315606576,0.7832260618722549,-0.049306222418299406,4,True
2024-05-03,0.7832260618722549,0.784499726366303,0.16261773657066936,3,True
2024-05-04,0.784499726366303,0.7856640690196262,0.14841849068782942,0,True
2024-05-05,0.7856640690196262,0.7817534732559176,-0.49774400000095476,1,True
2024-05-06,0.7817534732559176,0.7778555032369182,-0.49861882963753157,1,True
2024-05-07,0.7778555032369182,0.7773131044410588,-0.06973001972760962,4,True
2024-05-08,0.7773131044410588,0.7840951390089728,0.8724971352169097,3,True
2024-05-09,0.7840951390089728,0.7726482407365203,-1.4598863968115383,12,True
2024-05-10,0.7726482407365203,0.7673870385732301,-0.680931099807458,4,True
2024-05-11,0.7673870385732301,0.7539393755172051,-1.7523964284082316,4,True
2024-05-12,0.7539393755172051,0.749398926649725,-0.6022299690031985,0,True
2024-05-13,0.749398926649725,0.7565814672292153,0.9584402010823112,5,True
2024-05-14,0.7565814672292153,0.7431108545773087,-1.7804576553056672,4,True
2024-05-15,0.7431108545773087,0.7302872845295869,-1.725660440664134,3,True
2024-05-16,0.7302872845295869,0.712830441841507,-2.390407591352861,4,True
2024-05-17,0.712830441841507,0.7118001070333302,-0.14454135902433052,1,True
2024-05-18,0.7118001070333302,0.7180354355730214,0.8759943245413515,2,True
2024-05-19,0.7180354355730214,0.7170807092793638,-0.1329636737072204,0,True
2024-05-20,0.7170807092793638,0.7200997092060569,0.4210125704994905,2,True
2024-05-21,0.7200997092060569,0.7188660678438838,-0.17131535347142401,4,True
2024-05-22,0.7188660678438838,0.7247005032046819,0.8116164640094237,1,True
2024-05-23,0.7247005032046819,0.7275852310235146,0.3980579295965958,7,True
2024-05-24,0.7275852310235146,0.7258680622460226,-0.23600929544382865,5,True
2024-05-25,0.7258680622460226,0.7263338016211263,0.06416308959269479,3,True
2024-05-26,0.7263338016211263,0.7397874489615659,1.8522678292559158,3,True
2024-05-27,0.7397874489615659,0.7324450234586483,-0.9925047408176679,5,True
2024-05-28,0.7324450234586483,0.734347902715789,0.25979823689090686,2,True
2024-05-29,0.734347902715789,0.7276171470000005,-0.9165622576025045,4,True
2024-05-30,0.7276171470000005,0.7051835244114226,-3.0831629904645164,6,True
2024-05-31,0.7051835244114226,0.6907524938283317,-2.0464219715194965,3,True
2024-06-01,0.6907524938283317,0.6836673312830467,-1.0257165350235908,3,True
2024-06-02,0.6836673312830467,0.6830095088349872,-0.09621966970762008,5,True
2024-06-03,0.6830095088349872,0.6710630472163229,-1.7490915520402384,10,True
2024-06-04,0.6710630472163229,0.6649691684599949,-0.908093327684556,10,True
2024-06-05,0.6649691684599949,0.666522433789908,0.23358456355357937,0,True
2024-06-06,0.666522433789908,0.6614502064984493,-0.76099873527401,3,True
2024-06-07,0.6614502064984493,0.6605543254837202,-0.13544194346415406,0,True
2024-06-08,0.6605543254837202,0.6697346573141167,1.389792099790399,12,True
2024-06-09,0.6697346573141167,0.6692102005077724,-0.07830814795334318,3,True
2024-06-10,0.6692102005077724,0.6692102005077724,0.0,0,False
2024-06-11,0.6692102005077724,0.6564580274731815,-1.9055556871241608,4,True
2024-06-12,0.6564580274731815,0.652136121769025,-0.6583674086205082,4,True
2024-06-13,0.652136121769025,0.6495087001540751,-0.4028946606764561,4,True
2024-06-14,0.6495087001540751,0.634009554308188,-2.3862876420609136,6,True
2024-06-15,0.634009554308188,0.6415418378207091,1.1880394327401067,5,True
2024-06-16,0.6415418378207091,0.642644888346867,0.1719374265449103,0,True
2024-06-17,0.642644888346867,0.6298588496614157,-1.9895962633954656,4,True
2024-06-18,0.6298588496614157,0.6326554800078025,0.44400905820249914,6,True
2024-06-19,0.6326554800078025,0.626325741898353,-1.0005031663317676,3,True
2024-06-20,0.626325741898353,0.6314310434974294,0.8151192354959758,1,True
2024-06-21,0.6314310434974294,0.6282872196724548,-0.4978887017593081,1,True
2024-06-22,0.6282872196724548,0.6225271969099625,-0.9167817810292522,3,True
2024-06-23,0.6225271969099625,0.6253944426518403,0.46058160287774097,2,True
2024-06-24,0.6253944426518403,0.6316387327972589,0.9984562892725979,2,True
2024-06-25,0.6316387327972589,0.6390687110187604,1.176301869360863,1,True
2024-06-26,0.6390687110187604,0.6407609091147409,0.2647912605959091,0,True
2024-06-27,0.6407609091147409,0.6379572695156125,-0.43754847701334976,2,True
2024-06-28,0.6379572695156125,0.6325128011566717,-0.8534221050689794,2,True
2024-06-29,0.6325128011566717,0.6143495564771843,-2.871601119577738,7,True
2024-06-30,0.6143495564771843,0.6166429924681028,0.37331124711306174,0,True
2024-07-01,0.6166429924681028,0.6105250863287041,-0.9921309759658437,2,True
2024-07-02,0.6105250863287041,0.6105250863287041,0.0,0,False
2024-07-03,0.6105250863287041,0.6074912144411023,-0.4969282926350238,1,True
2024-07-04,0.6074912144411023,0.594317044334607,-2.1686190340407974,5,True
2024-07-05,0.594317044334607,0.5598298077150353,-5.80283485865416,19,True
2024-07-06,0.5598298077150353,0.5690105237954153,1.6399119792944505,3,True
2024-07-07,0.5690105237954153,0.5719249571008458,0.512193216742407,3,True
2024-07-08,0.5719249571008458,0.5740293866703197,0.36795554090547355,2,True
2024-07-09,0.5740293866703197,0.5793530624206331,0.9274221623380097,2,True
2024-07-10,0.5793530624206331,0.5834983296996925,0.7154993298455592,1,True
2024-07-11,0.5834983296996925,0.5760582061535953,-1.2750890906451096,3,True
2024-07-12,0.5760582061535953,0.5761009330203415,0.007417109293794688,0,True
2024-07-13,0.5761009330203415,0.5725103347483935,-0.6232585413676439,2,True
2024-07-14,0.5725103347483935,0.5699172038549951,-0.45294045120390924,3,True
2024-07-15,0.5699172038549951,0.5699172038549951,0.0,0,False
2024-07-16,0.5699172038549951,0.5694015322179394,-0.09048185132289888,3,True
2024-07-17,0.5694015322179394,0.5717641822678587,0.41493566775563373,2,True
2024-07-18,0.5717641822678587,0.5717641822678587,0.0,0,False
2024-07-19,0.5717641822678587,0.5708697672022298,-0.15643076173139647,2,True
2024-07-20,0.5708697672022298,0.5739816620221471,0.545114665148283,3,True
2024-07-21,0.5739816620221471,0.5790124468393115,0.876471349178809,1,True
2024-07-22,0.5790124468393115,0.5779774388833425,-0.1787540080733785,1,True
2024-07-23,0.5779774388833425,0.5751160332067858,-0.49507220940750996,3,True
2024-07-24,0.5751160332067858,0.5708234693378383,-0.7463822291673194,1,True
2024-07-25,0.5708234693378383,0.5665442735315592,-0.7496530952455505,3,True
2024-07-26,0.5665442735315592,0.5584590883317727,-1.4271056257240788,1,True
2024-07-27,0.5584590883317727,0.5647693607499067,1.1299435446531891,2,True
2024-07-28,0.5647693607499067,0.5523816998437405,-2.1934017259218397,3,True
2024-07-29,0.5523816998437405,0.5523816998437405,0.0,0,False
2024-07-30,0.5523816998437405,0.5494594851359573,-0.5290209122803757,2,True
2024-07-31,0.5494594851359573,0.5391121134471135,-1.8831910211329683,8,True
2024-08-01,0.5391121134471135,0.5357034842358984,-0.6322672272043972,1,True
2024-08-02,0.5357034842358984,0.5250855309430357,-1.9820579117583503,4,True
2024-08-03,0.5250855309430357,0.5259142083349473,0.15781760171973414,9,True
2024-08-04,0.5259142083349473,0.5053385020044852,-3.912369356896661,7,True
2024-08-05,0.5053385020044852,0.49917057518111657,-1.2205535099547693,21,True
2024-08-06,0.49917057518111657,0.49982135550328,0.1303723325292827,0,True
2024-08-07,0.49982135550328,0.4995772966983232,-0.04882920712963035,1,True
2024-08-08,0.4995772966983232,0.49733184034078043,-0.4494712574776405,0,True
2024-08-09,0.49733184034078043,0.49733184034078043,0.0,0,False
2024-08-10,0.49733184034078043,0.49733184034078043,0.0,0,False
2024-08-11,0.49733184034078043,0.49484787785697293,-0.4994577628702479,1,True
2024-08-12,0.49484787785697293,0.5015894108784164,1.3623445351809593,3,True
2024-08-13,0.5015894108784164,0.4974855779245837,-0.8181657875603432,0,True
2024-08-14,0.4974855779245837,0.4974855779245837,0.0,0,False
2024-08-15,0.4974855779245837,0.4974855779245837,0.0,0,False
2024-08-16,0.4974855779245837,0.4974855779245837,0.0,0,False
2024-08-17,0.4974855779245837,0.5018200119000223,0.871268267418146,1,True
2024-08-18,0.5018200119000223,0.5045121514089341,0.5364751195789497,4,True
2024-08-19,0.5045121514089341,0.49948700313264055,-0.9960410789432994,7,True
2024-08-20,0.49948700313264055,0.49712824832396785,-0.472235472370508,4,True
2024-08-21,0.49712824832396785,0.4965207386385983,-0.12220381509554512,1,True
2024-08-22,0.4965207386385983,0.49887231845548974,0.4736116004618873,2,True
2024-08-23,0.49887231845548974,0.4992385132433593,0.07340451139949966,0,True
2024-08-24,0.4992385132433593,0.4985870798567278,-0.1304854031391578,3,True
2024-08-25,0.4985870798567278,0.5005065971921315,0.3849913912641556,2,True
2024-08-26,0.5005065971921315,0.4957960588442827,-0.9411540975234334,2,True
2024-08-27,0.4957960588442827,0.49572857218118016,-0.013611778855171508,1,True
2024-08-28,0.49572857218118016,0.4971042432162173,0.2775048912319722,4,True
2024-08-29,0.4971042432162173,0.49864758822619465,0.3104670762800188,3,True
2024-08-30,0.49864758822619465,0.5016413774693422,0.6003817753931662,0,True
2024-08-31,0.5016413774693422,0.5016413774693422,0.0,0,False
2024-09-01,0.5016413774693422,0.4991456951929281,-0.497503273953237,1,True
2024-09-02,0.4991456951929281,0.5002543938306893,0.2221192426256735,1,True
2024-09-03,0.5002543938306893,0.49959420921595665,-0.13196977835162604,1,True
2024-09-04,0.49959420921595665,0.49928737177664745,-0.061417333037294686,0,True
2024-09-05,0.49928737177664745,0.49578542777968243,-0.7013884578141449,2,True
2024-09-06,0.49578542777968243,0.49603903364517016,0.05115234359014398,1,True
2024-09-07,0.49603903364517016,0.4936767155393592,-0.4762363333488784,0,True
2024-09-08,0.4936767155393592,0.4936767155393592,0.0,0,False
2024-09-09,0.4936767155393592,0.4936767155393592,0.0,0,False
2024-09-10,0.4936767155393592,0.4936767155393592,0.0,0,False
2024-09-11,0.4936767155393592,0.4887728315933582,-0.9933391208542863,2,True
2024-09-12,0.4887728315933582,0.4887728315933582,0.0,0,False
2024-09-13,0.4887728315933582,0.4908612927004726,0.42728666000237947,2,True
2024-09-14,0.4908612927004726,0.4908612927004726,0.0,0,False
2024-09-15,0.4908612927004726,0.4942234303820711,0.6849465891070272,3,True
2024-09-16,0.4942234303820711,0.4877614359098435,-1.3075046780424815,1,True
2024-09-17,0.4877614359098435,0.48533196970938003,-0.4980849287380962,1,True
2024-09-18,0.48533196970938003,0.4780621989751505,-1.4978965302002933,3,True
2024-09-19,0.4780621989751505,0.479105175942708,0.21816762960831237,2,True
2024-09-20,0.479105175942708,0.4821341676186415,0.6322185248726298,3,True
2024-09-21,0.4821341676186415,0.48128558198101407,-0.1760061191719231,7,True
2024-09-22,0.48128558198101407,0.4844150980958094,0.6502409862173764,3,True
2024-09-23,0.4844150980958094,0.4847525898301121,0.06966994538968319,1,True
2024-09-24,0.4847525898301121,0.4847525898301121,0.0,0,False
2024-09-25,0.4847525898301121,0.4847525898301121,0.0,0,False
2024-09-26,0.4847525898301121,0.4847525898301121,0.0,0,False
2024-09-27,0.4847525898301121,0.48233535237806935,-0.4986538499752835,1,True
2024-09-28,0.48233535237806935,0.48233535237806935,0.0,0,False
2024-09-29,0.48233535237806935,0.48233535237806935,0.0,0,False
2024-09-30,0.48233535237806935,0.4787793594452115,-0.7372449303841511,2,True
2024-10-01,0.4787793594452115,0.4807283580892917,0.4070765803978249,0,True
2024-10-02,0.4807283580892917,0.465511846490917,-3.165303511291584,14,True
2024-10-03,0.465511846490917,0.46758190643671854,0.4446846973725549,3,True
2024-10-04,0.46758190643671854,0.46826407313108126,0.14589244899601006,3,True
2024-10-05,0.46826407313108126,0.46588409764320105,-0.5082549835536909,0,True
2024-10-06,0.46588409764320105,0.46588409764320105,0.0,0,False
2024-10-07,0.46588409764320105,0.46588409764320105,0.0,0,False
2024-10-08,0.46588409764320105,0.46124220358843543,-0.9963624168002005,2,True
2024-10-09,0.46124220358843543,0.46124220358843543,0.0,0,False
2024-10-10,0.46124220358843543,0.46124220358843543,0.0,0,False
2024-10-11,0.46124220358843543,0.46057736391984844,-0.1441411179234242,1,True
2024-10-12,0.46057736391984844,0.45958077709296274,-0.21637772607928651,1,True
2024-10-13,0.45958077709296274,0.45876041535449974,-0.17850218706972898,0,True
2024-10-14,0.45876041535449974,0.45876041535449974,0.0,0,False
2024-10-15,0.45876041535449974,0.452131627485293,-1.444934577471002,4,True
2024-10-16,0.452131627485293,0.445787068610761,-1.4032548242244758,5,True
2024-10-17,0.445787068610761,0.4435603423943014,-0.4995044435449625,2,True
2024-10-18,0.4435603423943014,0.4582193710792064,3.304855570670906,4,True
2024-10-19,0.4582193710792064,0.45419844404331017,-0.8775113602085605,3,True
2024-10-20,0.45419844404331017,0.45735612935379893,0.6952215164760966,3,True
2024-10-21,0.45735612935379893,0.4572105394712766,-0.03183293568800316,7,True
2024-10-22,0.4572105394712766,0.45700244731495887,-0.04551342070074904,3,True
2024-10-23,0.45700244731495887,0.45021718127004695,-1.4847329778598817,4,True
2024-10-24,0.45021718127004695,0.44369116779361906,-1.449525639607585,3,True
2024-10-25,0.44369116779361906,0.4398551900481685,-0.8645603121932965,3,True
2024-10-26,0.4398551900481685,0.43013068566562157,-2.210842250487477,10,True
2024-10-27,0.43013068566562157,0.4368413452852738,1.560144356887161,1,True
2024-10-28,0.4368413452852738,0.43466427275179165,-0.4983668686535214,1,True
2024-10-29,0.43466427275179165,0.44088454010975286,1.4310509852999198,2,True
2024-10-30,0.44088454010975286,0.4423408243345075,0.33030965984701677,0,True
2024-10-31,0.4423408243345075,0.4406369141362109,-0.3852030164432807,1,True
2024-11-01,0.4406369141362109,0.43961404095617096,-0.23213515418814,3,True
2024-11-02,0.43961404095617096,0.43741639782434777,-0.4999028527485794,1,True
2024-11-03,0.43741639782434777,0.4315815104378529,-1.3339434496550284,3,True
2024-11-04,0.4315815104378529,0.43688551357600247,1.228969038263128,4,True
2024-11-05,0.43688551357600247,0.43114262725436736,-1.3145060074499448,1,True
2024-11-06,0.43114262725436736,0.4356507180385667,1.045614722187893,3,True
2024-11-07,0.4356507180385667,0.4335124923259816,-0.4908119335168437,4,True
2024-11-08,0.4335124923259816,0.42923715292988646,-0.9862090416716929,2,True
2024-11-09,0.42923715292988646,0.4274465610457124,-0.4171567796384501,2,True
2024-11-10,0.4274465610457124,0.432699547234812,1.2289223186750187,9,True
2024-11-11,0.432699547234812,0.4297297726572384,-0.6863364190122567,9,True
2024-11-12,0.4297297726572384,0.4189241548134026,-2.5145145929776125,9,True
2024-11-13,0.4189241548134026,0.43810247247156675,4.577992803185715,8,True
2024-11-14,0.43810247247156675,0.4396493371318284,0.35308284190567196,8,True
2024-11-15,0.4396493371318284,0.4465075564481967,1.5599294112689233,7,True
2024-11-16,0.4465075564481967,0.4497340753298715,0.7226123802563489,7,True
2024-11-17,0.4497340753298715,0.45003753187418194,0.06747466135135216,10,True
2024-11-18,0.45003753187418194,0.46386501230293925,3.07251716788437,7,True
2024-11-19,0.46386501230293925,0.45301209965874545,-2.339670455056009,7,True
2024-11-20,0.45301209965874545,0.4474683520690084,-1.223752653386767,2,True
2024-11-21,0.4474683520690084,0.45737856264218174,2.214728824362755,6,True
2024-11-22,0.45737856264218174,0.47091874622196966,2.960388764521249,7,True
2024-11-23,0.47091874622196966,0.487196013147195,3.4564916040851434,2,True
2024-11-24,0.487196013147195,0.48961892581956246,0.49731783655533324,17,True
2024-11-25,0.48961892581956246,0.4983278328228327,1.7787112678891326,6,True
2024-11-26,0.4983278328228327,0.48854439595953153,-1.963253147608035,12,True
2024-11-27,0.48854439595953153,0.4953933739407101,1.4019151663231533,6,True
2024-11-28,0.4953933739407101,0.49646328318784283,0.21597165069486834,4,True
2024-11-29,0.49646328318784283,0.506650658993202,2.0519897745398197,6,True
2024-11-30,0.506650658993202,0.511953409686902,1.0466285989319202,4,True
2024-12-01,0.511953409686902,0.5101143293105772,-0.3592280745721488,5,True
2024-12-02,0.5101143293105772,0.5139492285458049,0.751772497826253,11,True
2024-12-03,0.5139492285458049,0.5290270714787181,2.93372226193922,15,True
2024-12-04,0.5290270714787181,0.544166582671589,2.8617649283152025,8,True
2024-12-05,0.544166582671589,0.5458372032672759,0.30700536359380415,12,True
2024-12-06,0.5458372032672759,0.541797408460566,-0.7401098317462607,8,True
2024-12-07,0.541797408460566,0.544366874822564,0.474248551557066,4,True
2024-12-08,0.544366874822564,0.542234381565624,-0.3917382477828135,0,True
2024-12-09,0.542234381565624,0.5389273747915299,-0.6098851136192462,3,True
2024-12-10,0.5389273747915299,0.5022322143393416,-6.808924943993211,22,True
2024-12-11,0.5022322143393416,0.5187845148593481,3.2957464789032054,5,True
2024-12-12,0.5187845148593481,0.5151566931123019,-0.699292604758972,2,True
2024-12-13,0.5151566931123019,0.514959237502362,-0.03832923314011083,1,True
2024-12-14,0.514959237502362,0.5166679171226832,0.3318087133670211,0,True
2024-12-15,0.5166679171226832,0.505531565671086,-2.1554176449769535,5,True
2024-12-16,0.505531565671086,0.5039088414280813,-0.32099365365060306,0,True
2024-12-17,0.5039088414280813,0.5039088414280813,0.0,0,False
2024-12-18,0.5039088414280813,0.4965602281237998,-1.4583219622532395,4,True
2024-12-19,0.4965602281237998,0.49323919309045716,-0.6688081012631297,13,True
2024-12-20,0.49323919309045716,0.4680911802264971,-5.098543103679932,23,True
2024-12-21,0.4680911802264971,0.4723341139527755,0.9064331706112094,3,True
2024-12-22,0.4723341139527755,0.47485236582284185,0.5331505380782531,2,True
2024-12-23,0.47485236582284185,0.48589583753408777,2.3256642497946567,3,True
2024-12-24,0.48589583753408777,0.48589583753408777,0.0,0,False
2024-12-25,0.48589583753408777,0.4946424053282327,1.80009111387609,4,True
2024-12-26,0.4946424053282327,0.49203234310952804,-0.5276664900925154,3,True
2024-12-27,0.49203234310952804,0.49207125995742557,0.007909408485540226,0,True
2024-12-28,0.49207125995742557,0.4843515462718045,-1.5688202733663004,4,True
2024-12-29,0.4843515462718045,0.48202067466151555,-0.48123550512646496,5,True
2024-12-30,0.48202067466151555,0.48464899227737274,0.5452707226101472,6,True
2024-12-31,0.48464899227737274,0.47938822744037785,-1.0854793718386713,3,True
