day,start_equity,end_equity,return_pct,entries,active
2024-01-02,1.00371343555889,0.9997427808655955,-0.39559644741463673,1,True
2024-01-03,0.9997427808655955,0.9961042838379901,-0.36394331594524765,11,True
2024-01-04,0.9961042838379901,1.024143035644457,2.814841002232571,12,True
2024-01-05,1.024143035644457,1.0126045242346784,-1.1266503806782957,8,True
2024-01-06,1.0126045242346784,1.010783280555034,-0.1798573516171853,8,True
2024-01-07,1.010783280555034,1.0152850331524967,0.44537268117361695,8,True
2024-01-08,1.0152850331524967,0.9873102723274765,-2.7553603088344203,12,True
2024-01-09,0.9873102723274765,0.9872931274559787,-0.0017365231557153749,6,True
2024-01-10,0.9872931274559787,0.9752274837965271,-1.2220933503854003,7,True
2024-01-11,0.9752274837965271,0.9735409388338848,-0.172938621056562,6,True
2024-01-12,0.9735409388338848,0.9783575999050627,0.494756910474381,8,True
2024-01-13,0.9783575999050627,0.9959619880544279,1.7993817547973912,12,True
2024-01-14,0.9959619880544279,0.9935586419341985,-0.2413090207312285,1,True
2024-01-15,0.9935586419341985,1.001976372954801,0.8472304165374034,5,True
2024-01-16,1.001976372954801,0.9915295294140287,-1.0426237407140437,2,True
2024-01-17,0.9915295294140287,0.9915295294140287,0.0,0,False
2024-01-18,0.9915295294140287,0.989623794492581,-0.19220152954738667,1,True
2024-01-19,0.989623794492581,0.9859435226360579,-0.37188595070211106,1,True
2024-01-20,0.9859435226360579,1.0169955967485689,3.1494779771450654,12,True
2024-01-21,1.0169955967485689,1.006010498600389,-1.0801519872160936,3,True
2024-01-22,1.006010498600389,0.9888760645584258,-1.7032062852029406,4,True
2024-01-23,0.9888760645584258,0.9641261609153651,-2.502831702586772,11,True
2024-01-24,0.9641261609153651,0.9610475055250026,-0.31932080210742564,1,True
2024-01-25,0.9610475055250026,0.9576062655830215,-0.35807178336113576,3,True
2024-01-26,0.9576062655830215,0.9604570596361668,0.29770002093809644,1,True
2024-01-27,0.9604570596361668,0.9604570596361668,0.0,0,False
2024-01-28,0.9604570596361668,0.9595051904624087,-0.09910585426053942,1,True
2024-01-29,0.9595051904624087,0.9595051904624087,0.0,0,False
2024-01-30,0.9595051904624087,0.9595051904624087,0.0,0,False
2024-01-31,0.9595051904624087,0.9551144385248785,-0.4576058557238416,1,True
2024-02-01,0.9551144385248785,0.9551144385248785,0.0,0,False
2024-02-02,0.9551144385248785,0.9546706684858661,-0.04646249926844037,3,True
2024-02-03,0.9546706684858661,0.9615039018107671,0.7157686467668123,1,True
2024-02-04,0.9615039018107671,0.9617004384279957,0.020440542868160883,1,True
2024-02-05,0.9617004384279957,0.9617004384279957,0.0,0,False
2024-02-06,0.9617004384279957,0.9532109916901648,-0.8827537555985532,2,True
2024-02-07,0.9532109916901648,0.9537787829242502,0.0595661652074142,5,True
2024-02-08,0.9537787829242502,0.97066813769743,1.7707832335499996,1,True
2024-02-09,0.97066813769743,0.97066813769743,0.0,0,False
2024-02-10,0.97066813769743,0.9628600659542722,-0.8044017764588074,3,True
2024-02-11,0.9628600659542722,0.9628600659542722,0.0,0,False
2024-02-12,0.9628600659542722,0.966271930097353,0.3543468322885879,3,True
2024-02-13,0.966271930097353,0.966271930097353,0.0,0,False
2024-02-14,0.966271930097353,0.9688738180018304,0.26927077393370524,2,True
2024-02-15,0.9688738180018304,0.9963479446540413,2.8356764463790096,7,True
2024-02-16,0.9963479446540413,0.9711904825797602,-2.5249675285892725,6,True
2024-02-17,0.9711904825797602,0.9562172830817209,-1.5417366383437048,6,True
2024-02-18,0.9562172830817209,0.9565253460073172,0.0322168330406436,4,True
2024-02-19,0.9565253460073172,0.9496024446999284,-0.7237551347997306,6,True
2024-02-20,0.9496024446999284,0.945588940665153,-0.42265097959427456,13,True
2024-02-21,0.945588940665153,0.9399613698141732,-0.595139241690068,10,True
2024-02-22,0.9399613698141732,0.9637643509565896,2.532336105165922,5,True
2024-02-23,0.9637643509565896,0.9483964063305922,-1.594574919765801,7,True
2024-02-24,0.9483964063305922,0.9339531373322052,-1.5229147750853378,10,True
2024-02-25,0.9339531373322052,0.9181845526510947,-1.6883700103147325,9,True
2024-02-26,0.9181845526510947,0.9199205345409188,0.18906677146897088,10,True
2024-02-27,0.9199205345409188,0.9158547265312992,-0.44197382892954273,8,True
2024-02-28,0.9158547265312992,0.9665229442789292,5.5323422241353,10,True
2024-02-29,0.9665229442789292,0.9490886369323935,-1.8038172243849182,19,True
2024-03-01,0.9490886369323935,0.9308668596671003,-1.9199236568872013,11,True
2024-03-02,0.9308668596671003,0.917827839110652,-1.4007395817175472,16,True
2024-03-03,0.917827839110652,0.9544184002785634,3.9866475616349373,15,True
2024-03-04,0.9544184002785634,0.975174599804636,2.174748466711729,4,True
2024-03-05,0.975174599804636,0.9970788334096028,2.246185822452196,22,True
2024-03-06,0.9970788334096028,0.9716601031843336,-2.549320010971201,31,True
2024-03-07,0.9716601031843336,0.9597706373709157,-1.2236239580542208,7,True
2024-03-08,0.9597706373709157,0.9593042409576286,-0.0485945699031598,9,True
2024-03-09,0.9593042409576286,0.9692751494791223,1.039389600898688,12,True
2024-03-10,0.9692751494791223,0.9904505006646936,2.184658422012653,13,True
2024-03-11,0.9904505006646936,1.0048174650352386,1.450548448499278,13,True
2024-03-12,1.0048174650352386,1.0063657115550706,0.15408236557450383,9,True
2024-03-13,1.0063657115550706,1.001349376734709,-0.49846042673792335,8,True
2024-03-14,1.001349376734709,1.0158213878604858,1.4452509246041911,6,True
2024-03-15,1.0158213878604858,0.989382164712354,-2.6027433035071157,22,True
2024-03-16,0.989382164712354,0.9890747439073077,-0.03107199785996606,4,True
2024-03-17,0.9890747439073077,0.9724627013506292,-1.6795538111764041,9,True
2024-03-18,0.9724627013506292,0.9753704822038184,0.2990120699900123,5,True
2024-03-19,0.9753704822038184,0.9236227294980134,-5.305445843397127,20,True
2024-03-20,0.9236227294980134,0.906416726967192,-1.8628821034073928,8,True
2024-03-21,0.906416726967192,0.9048639441398453,-0.17131003666958078,5,True
2024-03-22,0.9048639441398453,0.9043840100874452,-0.05303936083521643,13,True
2024-03-23,0.9043840100874452,0.9124823208072195,0.8954504535071628,8,True
2024-03-24,0.9124823208072195,0.9017090181685611,-1.1806587802301594,7,True
2024-03-25,0.9017090181685611,0.9153964787595583,1.5179465121461844,4,True
2024-03-26,0.9153964787595583,0.9406238973065371,2.7559007634772703,9,True
2024-03-27,0.9406238973065371,0.935854093712318,-0.5070893486628814,11,True
2024-03-28,0.935854093712318,0.9066542287418875,-3.1201300679896904,7,True
2024-03-29,0.9066542287418875,0.9010148387038153,-0.622000081100127,9,True
2024-03-30,0.9010148387038153,0.8936816492069486,-0.8138811018269188,4,True
2024-03-31,0.8936816492069486,0.8896407938060714,-0.45215826065837517,1,True
2024-04-01,0.8896407938060714,0.8892897758881102,-0.039456140096660874,7,True
2024-04-02,0.8892897758881102,0.8808900698705905,-0.9445409410145489,9,True
2024-04-03,0.8808900698705905,0.901737439179174,2.3666255327008168,5,True
2024-04-04,0.901737439179174,0.900236606014492,-0.16643793408958052,3,True
2024-04-05,0.900236606014492,0.8809460103012288,-2.1428361815529873,5,True
2024-04-06,0.8809460103012288,0.8682045931431822,-1.4463334879840972,3,True
2024-04-07,0.8682045931431822,0.8810781515101683,1.4827793435622905,4,True
2024-04-08,0.8810781515101683,0.8717720935119718,-1.0562125484834595,2,True
2024-04-09,0.8717720935119718,0.861182796348405,-1.2146864120079148,3,True
2024-04-10,0.861182796348405,0.8463318959621081,-1.724477131831681,6,True
2024-04-11,0.8463318959621081,0.8421313264267539,-0.4963265068225975,1,True
2024-04-12,0.8421313264267539,0.8424180385354662,0.034046009181110115,10,True
2024-04-13,0.8424180385354662,0.833209422864549,-1.0931171045347243,18,True
2024-04-14,0.833209422864549,0.8063851216172966,-3.2193948497403313,26,True
2024-04-15,0.8063851216172966,0.8100482636129319,0.4542670614121169,6,True
2024-04-16,0.8100482636129319,0.8056212981651125,-0.5465063807524873,1,True
2024-04-17,0.8056212981651125,0.8001949024808341,-0.6735665624329368,2,True
2024-04-18,0.8001949024808341,0.799652404292943,-0.06779575653496073,1,True
2024-04-19,0.799652404292943,0.8293532181358259,3.714215537080068,10,True
2024-04-20,0.8293532181358259,0.8293532181358259,0.0,0,False
2024-04-21,0.8293532181358259,0.8293532181358259,0.0,0,False
2024-04-22,0.8293532181358259,0.8293532181358259,0.0,0,False
2024-04-23,0.8293532181358259,0.8204366173268243,-1.075127052505298,4,True
2024-04-24,0.8204366173268243,0.8126112239015673,-0.9538084064012131,6,True
2024-04-25,0.8126112239015673,0.8176260430689747,0.6171240342128126,4,True
2024-04-26,0.8176260430689747,0.8206254252547598,0.3668403436033918,2,True
2024-04-27,0.8206254252547598,0.8251835543666566,0.5554457577867211,6,True
2024-04-28,0.8251835543666566,0.8280040487626811,0.34180206102014665,3,True
2024-04-29,0.8280040487626811,0.8254836845500386,-0.3043903247102131,3,True
2024-04-30,0.8254836845500386,0.8172948876968897,-0.9919998428088217,2,True
2024-05-01,0.8172948876968897,0.8124865112214309,-0.5883282212872598,6,True
2024-05-02,0.8124865112214309,0.8068052175688932,-0.699247750463805,5,True
2024-05-03,0.8068052175688932,0.8011984109366409,-0.6949393125080472,3,True
2024-05-04,0.8011984109366409,0.8011984109366409,0.0,0,False
2024-05-05,0.8011984109366409,0.7972104939181007,-0.49774400000096586,1,True
2024-05-06,0.7972104939181007,0.7932354522835786,-0.49861882963754267,1,True
2024-05-07,0.7932354522835786,0.7966650181623378,0.4323515633203323,4,True
2024-05-08,0.7966650181623378,0.7963406260751059,-0.04071875629485522,3,True
2024-05-09,0.7963406260751059,0.7868428500004884,-1.1926775758545505,11,True
2024-05-10,0.7868428500004884,0.7831950853035475,-0.4635950745359829,4,True
2024-05-11,0.7831950853035475,0.7785152628254804,-0.5975296022514343,4,True
2024-05-12,0.7785152628254804,0.7733915046020645,-0.6581448647288157,1,True
2024-05-13,0.7733915046020645,0.7794413901838313,0.7822539484552138,5,True
2024-05-14,0.7794413901838313,0.7778270674500761,-0.20711278026619429,4,True
2024-05-15,0.7778270674500761,0.7728820238311467,-0.6357510333422356,3,True
2024-05-16,0.7728820238311467,0.7633874005993613,-1.2284699267193333,4,True
2024-05-17,0.7633874005993613,0.7622839900759145,-0.14454135902431942,1,True
2024-05-18,0.7622839900759145,0.7601135735178484,-0.28472545485968004,2,True
2024-05-19,0.7601135735178484,0.7601135735178484,0.0,0,False
2024-05-20,0.7601135735178484,0.7609617197141453,0.11158150911207976,2,True
2024-05-21,0.7609617197141453,0.7567502650703576,-0.553438436478737,2,True
2024-05-22,0.7567502650703576,0.7600943183079399,0.4418965399729968,1,True
2024-05-23,0.7600943183079399,0.75094071720543,-1.2042717439181727,7,True
2024-05-24,0.75094071720543,0.752975417403058,0.2709535055177126,6,True
2024-05-25,0.752975417403058,0.7493710319466789,-0.4786856746014756,3,True
2024-05-26,0.7493710319466789,0.7554243774602127,0.8077901674166332,3,True
2024-05-27,0.7554243774602127,0.7527378076893111,-0.3556371558903204,5,True
2024-05-28,0.7527378076893111,0.7489737424765718,-0.5000499741462328,2,True
2024-05-29,0.7489737424765718,0.7438440827191312,-0.6848918014774164,4,True
2024-05-30,0.7438440827191312,0.7294511845086457,-1.934934826378143,6,True
2024-05-31,0.7294511845086457,0.7211943940508901,-1.1319181643823395,4,True
2024-06-01,0.7211943940508901,0.713369273816197,-1.085022332292418,3,True
2024-06-02,0.713369273816197,0.7107270447178881,-0.3703872868219049,4,True
2024-06-03,0.7107270447178881,0.6939478728985785,-2.360846114413695,13,True
2024-06-04,0.6939478728985785,0.6908658482878547,-0.44412912425978446,10,True
2024-06-05,0.6908658482878547,0.6908798520865158,0.0020269924611016066,0,True
2024-06-06,0.6908798520865158,0.6856296654416612,-0.7599275950801898,3,True
2024-06-07,0.6856296654416612,0.683924770824842,-0.2486611508737524,0,True
2024-06-08,0.683924770824842,0.7038875475675809,2.9188556394386556,10,True
2024-06-09,0.7038875475675809,0.7047718772517833,0.12563508010028368,3,True
2024-06-10,0.7047718772517833,0.7015199399310346,-0.4614170096328807,0,True
2024-06-11,0.7015199399310346,0.688157407954979,-1.904797171890682,4,True
2024-06-12,0.688157407954979,0.6800127923830632,-1.1835396201167803,4,True
2024-06-13,0.6800127923830632,0.6794130009324201,-0.0882029657914507,3,True
2024-06-14,0.6794130009324201,0.6724049391527578,-1.0314877357431307,6,True
2024-06-15,0.6724049391527578,0.6878054492009551,2.2903624217279317,5,True
2024-06-16,0.6878054492009551,0.6878054492009551,0.0,0,False
2024-06-17,0.6878054492009551,0.6816380293665765,-0.8966808625234801,4,True
2024-06-18,0.6816380293665765,0.6953901322521197,2.0175081631408576,6,True
2024-06-19,0.6953901322521197,0.6895136155189591,-0.8450676045874683,3,True
2024-06-20,0.6895136155189591,0.6909991422343702,0.2154455955584167,1,True
2024-06-21,0.6909991422343702,0.6882346297149191,-0.4000746673160749,1,True
2024-06-22,0.6882346297149191,0.6815229508866821,-0.9752021386975396,3,True
2024-06-23,0.6815229508866821,0.6836621615414236,0.3138868107021464,2,True
2024-06-24,0.6836621615414236,0.690222427499395,0.9595771606227599,2,True
2024-06-25,0.690222427499395,0.6995103482406729,1.34564169045146,1,True
2024-06-26,0.6995103482406729,0.7010130973714694,0.21482872048654844,0,True
2024-06-27,0.7010130973714694,0.6975313919694044,-0.4966676678538673,1,True
2024-06-28,0.6975313919694044,0.6952473481960209,-0.32744673568522176,2,True
2024-06-29,0.6952473481960209,0.679186551142554,-2.3100838996567563,7,True
2024-06-30,0.679186551142554,0.6774947719521579,-0.2490890297444981,1,True
2024-07-01,0.6774947719521579,0.6719853488044184,-0.8132052638376019,2,True
2024-07-02,0.6719853488044184,0.6719853488044184,0.0,0,False
2024-07-03,0.6719853488044184,0.668646063483847,-0.4969282926350349,1,True
2024-07-04,0.668646063483847,0.6679952096059902,-0.09733907270247366,5,True
2024-07-05,0.6679952096059902,0.6274177834455968,-6.074508555881342,22,True
2024-07-06,0.6274177834455968,0.6274708797093729,0.008462664778874363,5,True
2024-07-07,0.6274708797093729,0.630572959452465,0.4943782800771457,3,True
2024-07-08,0.630572959452465,0.6343872666127974,0.6048954531200357,2,True
2024-07-09,0.6343872666127974,0.6365323380802778,0.33813280631145304,2,True
2024-07-10,0.6365323380802778,0.6394267297535903,0.4547124317425544,1,True
2024-07-11,0.6394267297535903,0.6307164636997397,-1.3621992401236072,3,True
2024-07-12,0.6307164636997397,0.6307632505041936,0.007418040775331036,0,True
2024-07-13,0.6307632505041936,0.6268319646696179,-0.6232585413676661,2,True
2024-07-14,0.6268319646696179,0.6259714235250445,-0.13728418349355787,2,True
2024-07-15,0.6259714235250445,0.6259714235250445,0.0,0,False
2024-07-16,0.6259714235250445,0.6268937639648187,0.1473454546183861,2,True
2024-07-17,0.6268937639648187,0.6286115337196332,0.27401289557427155,1,True
2024-07-18,0.6286115337196332,0.6286115337196332,0.0,0,False
2024-07-19,0.6286115337196332,0.624815136109439,-0.6039338138977723,2,True
2024-07-20,0.624815136109439,0.6226152628308298,-0.3520838647263269,2,True
2024-07-21,0.6226152628308298,0.6208174175857833,-0.2887570145441387,1,True
2024-07-22,0.6208174175857833,0.6225258256705266,0.2751868804497848,1,True
2024-07-23,0.6225258256705266,0.6228971900430642,0.0596544524297693,3,True
2024-07-24,0.6228971900430642,0.6251052516084533,0.3544825054093481,1,True
2024-07-25,0.6251052516084533,0.6223891509938922,-0.4345029269186784,3,True
2024-07-26,0.6223891509938922,0.6172786224873604,-0.8211146512388301,1,True
2024-07-27,0.6172786224873604,0.6242802280835273,1.1342698971095855,3,True
2024-07-28,0.6242802280835273,0.6194487244814115,-0.7739318634114034,2,True
2024-07-29,0.6194487244814115,0.6194487244814115,0.0,0,False
2024-07-30,0.6194487244814115,0.6167976150393804,-0.4279788362225867,2,True
2024-07-31,0.6167976150393804,0.6057192855380786,-1.7961044646053637,7,True
2024-08-01,0.6057192855380786,0.6018329462993219,-0.6416073140719569,1,True
2024-08-02,0.6018329462993219,0.591267261471035,-1.755584318415171,4,True
2024-08-03,0.591267261471035,0.5887131051243691,-0.43198000516911916,9,True
2024-08-04,0.5887131051243691,0.5690475882366504,-3.340424515191376,7,True
2024-08-05,0.5690475882366504,0.562898855957275,-1.0805304172237906,27,True
2024-08-06,0.562898855957275,0.5629371750709743,0.0068074598649214835,0,True
2024-08-07,0.5629371750709743,0.5626622973117492,-0.04882920712963035,1,True
2024-08-08,0.5626622973117492,0.5601332920086696,-0.4494712574776294,0,True
2024-08-09,0.5601332920086696,0.5601332920086696,0.0,0,False
2024-08-10,0.5601332920086696,0.5601332920086696,0.0,0,False
2024-08-11,0.5601332920086696,0.560391912110435,0.0461711713006796,1,True
2024-08-12,0.560391912110435,0.567502988617267,1.268947026742695,3,True
2024-08-13,0.567502988617267,0.5633294005422215,-0.73543014904901,0,True
2024-08-14,0.5633294005422215,0.5633294005422215,0.0,0,False
2024-08-15,0.5633294005422215,0.5633294005422215,0.0,0,False
2024-08-16,0.5633294005422215,0.5633294005422215,0.0,0,False
2024-08-17,0.5633294005422215,0.5709597696818058,1.354512853800971,1,True
2024-08-18,0.5709597696818058,0.5889388242855619,3.148917937559026,4,True
2024-08-19,0.5889388242855619,0.5860065538211231,-0.49789050127505563,7,True
2024-08-20,0.5860065538211231,0.5837901542013935,-0.3782209610587728,3,True
2024-08-21,0.5837901542013935,0.5808807182600325,-0.49837016270700696,1,True
2024-08-22,0.5808807182600325,0.5825171626079708,0.2817177944621996,2,True
2024-08-23,0.5825171626079708,0.5825171626079708,0.0,0,False
2024-08-24,0.5825171626079708,0.5819661439957855,-0.09459268285219036,3,True
2024-08-25,0.5819661439957855,0.5806107143076867,-0.23290524751016228,2,True
2024-08-26,0.5806107143076867,0.5751344432670007,-0.9431915232938626,2,True
2024-08-27,0.5751344432670007,0.5750561572384633,-0.013611778855171508,1,True
2024-08-28,0.5750561572384633,0.5772279795915332,0.37767135013377917,4,True
2024-08-29,0.5772279795915332,0.5740965864000361,-0.5424881159975858,3,True
2024-08-30,0.5740965864000361,0.5740965864000361,0.0,0,False
2024-08-31,0.5740965864000361,0.5740965864000361,0.0,0,False
2024-09-01,0.5740965864000361,0.5712546873498988,-0.49502106744057084,1,True
2024-09-02,0.5712546873498988,0.5725235539349041,0.2221192426256735,1,True
2024-09-03,0.5725235539349041,0.5748269303109989,0.4023199325624116,1,True
2024-09-04,0.5748269303109989,0.5738261506816383,-0.17410103399627674,0,True
2024-09-05,0.5738261506816383,0.5696695624318717,-0.7243636848597856,3,True
2024-09-06,0.5696695624318717,0.5690797634406349,-0.10353352717652475,1,True
2024-09-07,0.5690797634406349,0.5693082317662008,0.04014697767227293,0,True
2024-09-08,0.5693082317662008,0.5693082317662008,0.0,0,False
2024-09-09,0.5693082317662008,0.5693082317662008,0.0,0,False
2024-09-10,0.5693082317662008,0.5693082317662008,0.0,0,False
2024-09-11,0.5693082317662008,0.5636530703818233,-0.9933391208542974,2,True
2024-09-12,0.5636530703818233,0.5636530703818233,0.0,0,False
2024-09-13,0.5636530703818233,0.562652533782944,-0.177509296312639,1,True
2024-09-14,0.562652533782944,0.562652533782944,0.0,0,False
2024-09-15,0.562652533782944,0.5656112298645781,0.525847819744385,3,True
2024-09-16,0.5656112298645781,0.5654225574980177,-0.033357252578869456,3,True
2024-09-17,0.5654225574980177,0.5626062729554345,-0.4980849287381073,1,True
2024-09-18,0.5626062729554345,0.5607115002421116,-0.336784853707639,3,True
2024-09-19,0.5607115002421116,0.5624681726618249,0.3132934528638831,2,True
2024-09-20,0.5624681726618249,0.5655995190859947,0.5567153087704613,4,True
2024-09-21,0.5655995190859947,0.5576361485066187,-1.4079521482346369,7,True
2024-09-22,0.5576361485066187,0.5668158877446887,1.6461879780666822,3,True
2024-09-23,0.5668158877446887,0.5624914777948966,-0.7629302641812941,0,True
2024-09-24,0.5624914777948966,0.5624914777948966,0.0,0,False
2024-09-25,0.5624914777948966,0.5624914777948966,0.0,0,False
2024-09-26,0.5624914777948966,0.5624914777948966,0.0,0,False
2024-09-27,0.5624914777948966,0.5597902822887451,-0.48021981003888436,1,True
2024-09-28,0.5597902822887451,0.5597902822887451,0.0,0,False
2024-09-29,0.5597902822887451,0.5597902822887451,0.0,0,False
2024-09-30,0.5597902822887451,0.5556632568117882,-0.73724493038414,2,True
2024-10-01,0.5556632568117882,0.5574879122180542,0.32837431374088677,0,True
2024-10-02,0.5574879122180542,0.5389207026706403,-3.3305133870151993,14,True
2024-10-03,0.5389207026706403,0.5395734603892417,0.12112314768510934,3,True
2024-10-04,0.5395734603892417,0.5373253110500014,-0.4166530610342778,3,True
2024-10-05,0.5373253110500014,0.5359242958478503,-0.2607387318891319,0,True
2024-10-06,0.5359242958478503,0.5359242958478503,0.0,0,False
2024-10-07,0.5359242958478503,0.5359242958478503,0.0,0,False
2024-10-08,0.5359242958478503,0.531365728879419,-0.8505990498563709,2,True
2024-10-09,0.531365728879419,0.531365728879419,0.0,0,False
2024-10-10,0.531365728879419,0.531365728879419,0.0,0,False
2024-10-11,0.531365728879419,0.5296950591889992,-0.3144105085480575,1,True
2024-10-12,0.5296950591889992,0.5306906083837313,0.18794760824394352,1,True
2024-10-13,0.5306906083837313,0.5306906083837313,0.0,0,False
2024-10-14,0.5306906083837313,0.5306906083837313,0.0,0,False
2024-10-15,0.5306906083837313,0.5256505361195701,-0.9497195135054648,3,True
2024-10-16,0.5256505361195701,0.5226462634034255,-0.5715342246814137,5,True
2024-10-17,0.5226462634034255,0.5226512276272041,0.0009498247909078827,2,True
2024-10-18,0.5226512276272041,0.5378725138226962,2.912321906253923,3,True
2024-10-19,0.5378725138226962,0.5353579089794432,-0.4675094522643475,2,True
2024-10-20,0.5353579089794432,0.5400949454566362,0.8848354339666242,3,True
2024-10-21,0.5400949454566362,0.5405710585812528,0.0881535975520098,7,True
2024-10-22,0.5405710585812528,0.5384629159776898,-0.389984363775564,3,True
2024-10-23,0.5384629159776898,0.531774571580659,-1.242117924664643,5,True
2024-10-24,0.531774571580659,0.528115563104407,-0.6880751114849093,3,True
2024-10-25,0.528115563104407,0.5240955184841881,-0.7612054824871928,3,True
2024-10-26,0.5240955184841881,0.5246120691839222,0.09856041151201644,10,True
2024-10-27,0.5246120691839222,0.5200845107864823,-0.8630297820793387,2,True
2024-10-28,0.5200845107864823,0.5174925818957237,-0.4983668686535325,1,True
2024-10-29,0.5174925818957237,0.5249620569888552,1.4433975199738658,2,True
2024-10-30,0.5249620569888552,0.5249620569888552,0.0,0,False
2024-10-31,0.5249620569888552,0.5246152163324547,-0.06606966194662167,1,True
2024-11-01,0.5246152163324547,0.5205802032331448,-0.7691376410158934,3,True
2024-11-02,0.5205802032331448,0.5215730614335401,0.1907214669764512,1,True
2024-11-03,0.5215730614335401,0.5195086878172969,-0.3957975917255663,3,True
2024-11-04,0.5195086878172969,0.5238987302413071,0.845037345276145,4,True
2024-11-05,0.5238987302413071,0.5212944989845177,-0.4970867662897005,1,True
2024-11-06,0.5212944989845177,0.522911116000287,0.31011587862874723,3,True
2024-11-07,0.522911116000287,0.5234654408733884,0.10600747548483724,4,True
2024-11-08,0.5234654408733884,0.5210501327199117,-0.4614073757088555,2,True
2024-11-09,0.5210501327199117,0.5212717802021409,0.042538609686593176,2,True
2024-11-10,0.5212717802021409,0.524163280867576,0.5547011703403104,7,True
2024-11-11,0.524163280867576,0.5185076098967252,-1.0789903026953374,12,True
2024-11-12,0.5185076098967252,0.49701548901465337,-4.1449962299208165,10,True
2024-11-13,0.49701548901465337,0.5093054582803649,2.4727537747519124,8,True
2024-11-14,0.5093054582803649,0.5141068277581298,0.9427288476303364,8,True
2024-11-15,0.5141068277581298,0.5201494970484992,1.1753723086541656,9,True
2024-11-16,0.5201494970484992,0.5233846624142361,0.6219683733415637,8,True
2024-11-17,0.5233846624142361,0.5265345048277739,0.6018216886617189,14,True
2024-11-18,0.5265345048277739,0.5306275173496887,0.7773493445132562,7,True
2024-11-19,0.5306275173496887,0.5194598541605383,-2.1046144091677044,10,True
2024-11-20,0.5194598541605383,0.5143394521725564,-0.9857165952230518,4,True
2024-11-21,0.5143394521725564,0.5232008114485084,1.7228620590004962,6,True
2024-11-22,0.5232008114485084,0.5246787232970681,0.2824750681230892,8,True
2024-11-23,0.5246787232970681,0.5222452589251174,-0.4638008487668155,1,True
2024-11-24,0.5222452589251174,0.518480378504804,-0.7209027475064689,25,True
2024-11-25,0.518480378504804,0.5187213735890153,0.046481042331092404,9,True
2024-11-26,0.5187213735890153,0.5098097634288262,-1.717995558681129,12,True
2024-11-27,0.5098097634288262,0.5145970091677462,0.9390259038435156,7,True
2024-11-28,0.5145970091677462,0.5173561843752977,0.53618174190595,5,True
2024-11-29,0.5173561843752977,0.5210184490362967,0.7078807157627987,6,True
2024-11-30,0.5210184490362967,0.5217596956644774,0.14226878713254898,4,True
2024-12-01,0.5217596956644774,0.5171793568021942,-0.8778636794568917,6,True
2024-12-02,0.5171793568021942,0.5303365703934934,2.544033016447611,11,True
2024-12-03,0.5303365703934934,0.5357645145668068,1.0234904542385515,19,True
2024-12-04,0.5357645145668068,0.5420646374625985,1.1759126863572833,9,True
2024-12-05,0.5420646374625985,0.5474999042914002,1.0026971791120998,11,True
2024-12-06,0.5474999042914002,0.5444027015219337,-0.5656992348656242,10,True
2024-12-07,0.5444027015219337,0.5455792250399861,0.21611272588533126,5,True
2024-12-08,0.5455792250399861,0.5445978219239791,-0.1798827871305253,0,True
2024-12-09,0.5445978219239791,0.5444854216907629,-0.020639126469357283,2,True
2024-12-10,0.5444854216907629,0.5191175246762701,-4.659058994769605,26,True
2024-12-11,0.5191175246762701,0.532483198843399,2.574691381390748,11,True
2024-12-12,0.532483198843399,0.5309863395045692,-0.28110921472849215,2,True
2024-12-13,0.5309863395045692,0.5310450023966305,0.011047909841921388,1,True
2024-12-14,0.5310450023966305,0.5310450023966305,0.0,0,False
2024-12-15,0.5310450023966305,0.5229406554066275,-1.5261130324977668,4,True
2024-12-16,0.5229406554066275,0.5215219510895465,-0.27129355930031185,0,True
2024-12-17,0.5215219510895465,0.5215219510895465,0.0,0,False
2024-12-18,0.5215219510895465,0.5141089658248419,-1.4214138540511345,4,True
2024-12-19,0.5141089658248419,0.5112975007903933,-0.5468617007948651,13,True
2024-12-20,0.5112975007903933,0.489632490978203,-4.237261042484908,25,True
2024-12-21,0.489632490978203,0.5003450524904687,2.187877992096432,3,True
2024-12-22,0.5003450524904687,0.5026455152875481,0.459775266214546,2,True
2024-12-23,0.5026455152875481,0.5010011175059814,-0.32714860305198545,5,True
2024-12-24,0.5010011175059814,0.5010011175059814,0.0,0,False
2024-12-25,0.5010011175059814,0.5052500165308259,0.8480817460040369,4,True
2024-12-26,0.5052500165308259,0.5016608834911869,-0.7103677233467387,3,True
2024-12-27,0.5016608834911869,0.5026309610008478,0.19337316134953042,0,True
2024-12-28,0.5026309610008478,0.495863317141011,-1.3464438892425101,4,True
2024-12-29,0.495863317141011,0.49794468052790203,0.4197453844522192,6,True
2024-12-30,0.49794468052790203,0.49344340774418194,-0.9039704528920778,6,True
2024-12-31,0.49344340774418194,0.4919559208424775,-0.30145035446002,3,True
