day,start_equity,end_equity,return_pct,entries,active
2021-09-02,1.0,1.0,0.0,0,False
2021-09-03,1.0,1.0,0.0,0,False
2021-09-04,1.0,1.0,0.0,0,False
2021-09-05,1.0,1.0,0.0,0,False
2021-09-06,1.0,1.0,0.0,0,False
2021-09-07,1.0,1.0,0.0,0,False
2021-09-08,1.0,1.0,0.0,0,False
2021-09-09,1.0,1.0,0.0,0,False
2021-09-10,1.0,1.0,0.0,0,False
2021-09-11,1.0,1.0,0.0,0,False
2021-09-12,1.0,1.0,0.0,0,False
2021-09-13,1.0,1.0,0.0,0,False
2021-09-14,1.0,1.0,0.0,0,False
2021-09-15,1.0,1.0,0.0,0,False
2021-09-16,1.0,1.0,0.0,0,False
2021-09-17,1.0,1.0,0.0,0,False
2021-09-18,1.0,1.0,0.0,0,False
2021-09-19,1.0,1.0,0.0,0,False
2021-09-20,1.0,1.0,0.0,0,False
2021-09-21,1.0,1.0,0.0,0,False
2021-09-22,1.0,1.0,0.0,0,False
2021-09-23,1.0,1.0,0.0,0,False
2021-09-24,1.0,1.0,0.0,0,False
2021-09-25,1.0,1.0,0.0,0,False
2021-09-26,1.0,1.0,0.0,0,False
2021-09-27,1.0,1.0,0.0,0,False
2021-09-28,1.0,1.0,0.0,0,False
2021-09-29,1.0,1.0,0.0,0,False
2021-09-30,1.0,1.0,0.0,0,False
2021-10-01,1.0,1.0,0.0,0,False
2021-10-02,1.0,1.0,0.0,0,False
2021-10-03,1.0,1.0,0.0,0,False
2021-10-04,1.0,1.0,0.0,0,False
2021-10-05,1.0,0.9995269898820623,-0.04730101179376556,1,True
2021-10-06,0.9995269898820623,1.0021051966880898,0.25794269010501747,3,True
2021-10-07,1.0021051966880898,0.992771942817426,-0.9313646812240672,2,True
2021-10-08,0.992771942817426,0.9923132336408039,-0.04620488924377275,1,True
2021-10-09,0.9923132336408039,0.9939500505579365,0.16494962091022636,3,True
2021-10-10,0.9939500505579365,0.9879444828266941,-0.6042122265471295,1,True
2021-10-11,0.9879444828266941,0.9879444828266941,0.0,0,False
2021-10-12,0.9879444828266941,0.9879444828266941,0.0,0,False
2021-10-13,0.9879444828266941,1.0036148950915493,1.5861632447219387,4,True
2021-10-14,1.0036148950915493,1.013871619237482,1.0219780710804427,0,True
2021-10-15,1.013871619237482,1.014914866652332,0.10289738809678983,4,True
2021-10-16,1.014914866652332,1.02956072138049,1.4430623897023986,2,True
2021-10-17,1.02956072138049,1.02956072138049,0.0,0,False
2021-10-18,1.02956072138049,1.0322736174947245,0.2635003509649181,1,True
2021-10-19,1.0322736174947245,1.0322736174947245,0.0,0,False
2021-10-20,1.0322736174947245,1.0322736174947245,0.0,0,False
2021-10-21,1.0322736174947245,1.0322736174947245,0.0,0,False
2021-10-22,1.0322736174947245,1.0322736174947245,0.0,0,False
2021-10-23,1.0322736174947245,1.0322736174947245,0.0,0,False
2021-10-24,1.0322736174947245,1.0322736174947245,0.0,0,False
2021-10-25,1.0322736174947245,1.0452814432573099,1.2601141346763045,2,True
2021-10-26,1.0452814432573099,1.0459470317669861,0.06367553102273327,0,True
2021-10-27,1.0459470317669861,1.0493444510229046,0.3248175244762619,7,True
2021-10-28,1.0493444510229046,1.0461415760951558,-0.30522627004190284,3,True
2021-10-29,1.0461415760951558,1.0402100684102977,-0.5669890022914625,0,True
2021-10-30,1.0402100684102977,1.0418599293738025,0.15860844012269837,1,True
2021-10-31,1.0418599293738025,1.0360591633680434,-0.5567702377464068,1,True
2021-11-01,1.0360591633680434,1.0458370791042986,0.9437603644630643,2,True
2021-11-02,1.0458370791042986,1.0417163137368708,-0.3940159944373911,1,True
2021-11-03,1.0417163137368708,1.041091620385215,-0.05996770362699522,1,True
2021-11-04,1.041091620385215,1.064162611424619,2.216038491489103,1,True
2021-11-05,1.064162611424619,1.0465776206724293,-1.6524721469633463,3,True
2021-11-06,1.0465776206724293,1.0393399833846797,-0.691552842788612,2,True
2021-11-07,1.0393399833846797,1.0393399833846797,0.0,0,False
2021-11-08,1.0393399833846797,1.0393399833846797,0.0,0,False
2021-11-09,1.0393399833846797,1.0393399833846797,0.0,0,False
2021-11-10,1.0393399833846797,1.0393399833846797,0.0,0,False
2021-11-11,1.0393399833846797,1.0214216609723514,-1.7240097272093857,13,True
2021-11-12,1.0214216609723514,1.0184940813552654,-0.2866181253977973,1,True
2021-11-13,1.0184940813552654,1.0177959895240403,-0.06854156975524273,1,True
2021-11-14,1.0177959895240403,1.0177959895240403,0.0,0,False
2021-11-15,1.0177959895240403,1.0177959895240403,0.0,0,False
2021-11-16,1.0177959895240403,1.0438021481513473,2.5551445373122927,7,True
2021-11-17,1.0438021481513473,1.0326194320058748,-1.0713444272248296,0,True
2021-11-18,1.0326194320058748,1.0217503935110022,-1.0525696261360684,4,True
2021-11-19,1.0217503935110022,1.0381131869305364,1.60144723441773,5,True
2021-11-20,1.0381131869305364,1.0371710940976802,-0.09075049278989278,0,True
2021-11-21,1.0371710940976802,1.0347195937738132,-0.23636411946089675,1,True
2021-11-22,1.0347195937738132,1.0223152271237397,-1.1988143188467637,5,True
2021-11-23,1.0223152271237397,1.0198233472753544,-0.2437486777337905,0,True
2021-11-24,1.0198233472753544,1.0154313279532767,-0.43066471598358635,2,True
2021-11-25,1.0154313279532767,1.00964325627922,-0.5700111385890883,5,True
2021-11-26,1.00964325627922,0.9818634373937246,-2.751448961078651,11,True
2021-11-27,0.9818634373937246,0.9824783516121536,0.06262726515831041,0,True
2021-11-28,0.9824783516121536,0.9762127011266566,-0.6377392921905756,7,True
2021-11-29,0.9762127011266566,0.9681187207185671,-0.829120579843734,1,True
2021-11-30,0.9681187207185671,0.9590008329219128,-0.9418150482501386,3,True
2021-12-01,0.9590008329219128,0.9619271584355007,0.3051431670472837,3,True
2021-12-02,0.9619271584355007,0.9612803177805828,-0.06724424497692727,5,True
2021-12-03,0.9612803177805828,0.9555984247956426,-0.5910755561976511,2,True
2021-12-04,0.9555984247956426,0.8834269722079396,-7.552487605150359,21,True
2021-12-05,0.8834269722079396,0.8894287300794618,0.6793722696197602,3,True
2021-12-06,0.8894287300794618,0.8842898793050196,-0.5777698201836934,15,True
2021-12-07,0.8842898793050196,0.9103912527448561,2.9516761472324182,0,True
2021-12-08,0.9103912527448561,0.9134074712003194,0.33131013137146503,2,True
2021-12-09,0.9134074712003194,0.9088961713357872,-0.49389785027748045,2,True
2021-12-10,0.9088961713357872,0.8953666726787481,-1.4885637197871504,4,True
2021-12-11,0.8953666726787481,0.8889142146742322,-0.720649785323324,2,True
2021-12-12,0.8889142146742322,0.8889142146742322,0.0,0,False
2021-12-13,0.8889142146742322,0.8833273920259973,-0.6284996410235499,2,True
2021-12-14,0.8833273920259973,0.8820041446575436,-0.149802596455062,1,True
2021-12-15,0.8820041446575436,0.8821983938507355,0.02202361455652113,1,True
2021-12-16,0.8821983938507355,0.8821983938507355,0.0,0,False
2021-12-17,0.8821983938507355,0.8785323163995564,-0.41556156491930896,5,True
2021-12-18,0.8785323163995564,0.8781640867706838,-0.04191418141358261,1,True
2021-12-19,0.8781640867706838,0.8735030057722636,-0.5307756339206104,1,True
2021-12-20,0.8735030057722636,0.8735030057722636,0.0,0,False
2021-12-21,0.8735030057722636,0.8704783099255226,-0.34627194488779933,1,True
2021-12-22,0.8704783099255226,0.869963903307774,-0.0590947082636184,0,True
2021-12-23,0.869963903307774,0.869963903307774,0.0,0,False
2021-12-24,0.869963903307774,0.869963903307774,0.0,0,False
2021-12-25,0.869963903307774,0.8737616966897301,0.4365460874314664,2,True
2021-12-26,0.8737616966897301,0.8725255360688138,-0.1414757165025149,0,True
2021-12-27,0.8725255360688138,0.8725255360688138,0.0,0,False
2021-12-28,0.8725255360688138,0.8698749356501568,-0.30378485317452686,1,True
2021-12-29,0.8698749356501568,0.8698749356501568,0.0,0,False
2021-12-30,0.8698749356501568,0.8698749356501568,0.0,0,False
2021-12-31,0.8698749356501568,0.8698749356501568,0.0,0,False
2022-01-01,0.8698749356501568,0.8698749356501568,0.0,0,False
2022-01-02,0.8698749356501568,0.8698749356501568,0.0,0,False
2022-01-03,0.8698749356501568,0.8698749356501568,0.0,0,False
2022-01-04,0.8698749356501568,0.8698749356501568,0.0,0,False
2022-01-05,0.8698749356501568,0.8700487319139701,0.01997945413652058,1,True
2022-01-06,0.8700487319139701,0.8468469580664094,-2.666721184285903,8,True
2022-01-07,0.8468469580664094,0.8388989233418632,-0.9385444027210976,5,True
2022-01-08,0.8388989233418632,0.8388989233418632,0.0,0,False
2022-01-09,0.8388989233418632,0.8396564686582083,0.09030233503308782,1,True
2022-01-10,0.8396564686582083,0.8387943624178898,-0.10267368531039489,0,True
2022-01-11,0.8387943624178898,0.8387943624178898,0.0,0,False
2022-01-12,0.8387943624178898,0.8387943624178898,0.0,0,False
2022-01-13,0.8387943624178898,0.8387943624178898,0.0,0,False
2022-01-14,0.8387943624178898,0.8387943624178898,0.0,0,False
2022-01-15,0.8387943624178898,0.8393267930912792,0.06347570957137005,1,True
2022-01-16,0.8393267930912792,0.838496983909408,-0.0988660422497678,0,True
2022-01-17,0.838496983909408,0.841034664095884,0.30264631062169034,1,True
2022-01-18,0.841034664095884,0.841034664095884,0.0,0,False
2022-01-19,0.841034664095884,0.8388264834200062,-0.26255525130484125,1,True
2022-01-20,0.8388264834200062,0.8388264834200062,0.0,0,False
2022-01-21,0.8388264834200062,0.8134939426763245,-3.0199977283022372,8,True
2022-01-22,0.8134939426763245,0.7854155647210105,-3.4515779998236407,17,True
2022-01-23,0.7854155647210105,0.7869336329571496,0.19328216861582703,0,True
2022-01-24,0.7869336329571496,0.7764960905360062,-1.3263561225514087,5,True
2022-01-25,0.7764960905360062,0.7832596566936235,0.8710367302620314,0,True
2022-01-26,0.7832596566936235,0.7841351612281207,0.11177704954099532,1,True
2022-01-27,0.7841351612281207,0.778570071856204,-0.7097104743014726,8,True
2022-01-28,0.778570071856204,0.7736334065640782,-0.6340682066491632,0,True
2022-01-29,0.7736334065640782,0.7736334065640782,0.0,0,False
2022-01-30,0.7736334065640782,0.7809370270551347,0.944067361761669,1,True
2022-01-31,0.7809370270551347,0.7794334954553749,-0.1925291729897305,0,True
2022-02-01,0.7794334954553749,0.7794334954553749,0.0,0,False
2022-02-02,0.7794334954553749,0.7802021262867381,0.09861403645659017,1,True
2022-02-03,0.7802021262867381,0.7809300735474236,0.09330239384888195,4,True
2022-02-04,0.7809300735474236,0.7856792130586733,0.6081388938802723,0,True
2022-02-05,0.7856792130586733,0.7856792130586733,0.0,0,False
2022-02-06,0.7856792130586733,0.7856792130586733,0.0,0,False
2022-02-07,0.7856792130586733,0.7856792130586733,0.0,0,False
2022-02-08,0.7856792130586733,0.7814885528594,-0.5333805616364651,3,True
2022-02-09,0.7814885528594,0.7799344718745393,-0.1988616441244595,2,True
2022-02-10,0.7799344718745393,0.7870293990296616,0.9096824683322291,5,True
2022-02-11,0.7870293990296616,0.781216503637,-0.7385868177006372,0,True
2022-02-12,0.781216503637,0.7619766725237174,-2.4628039760694387,5,True
2022-02-13,0.7619766725237174,0.7619766725237174,0.0,0,False
2022-02-14,0.7619766725237174,0.7619766725237174,0.0,0,False
2022-02-15,0.7619766725237174,0.7619766725237174,0.0,0,False
2022-02-16,0.7619766725237174,0.7619766725237174,0.0,0,False
2022-02-17,0.7619766725237174,0.7619766725237174,0.0,0,False
2022-02-18,0.7619766725237174,0.7619766725237174,0.0,0,False
2022-02-19,0.7619766725237174,0.7619766725237174,0.0,0,False
2022-02-20,0.7619766725237174,0.7619766725237174,0.0,0,False
2022-02-21,0.7619766725237174,0.7619766725237174,0.0,0,False
2022-02-22,0.7619766725237174,0.7565388403602833,-0.7136481154237484,2,True
2022-02-23,0.7565388403602833,0.7565388403602833,0.0,0,False
2022-02-24,0.7565388403602833,0.7406087867162687,-2.1056491476932337,9,True
2022-02-25,0.7406087867162687,0.7574210752099473,2.270063331036254,0,True
2022-02-26,0.7574210752099473,0.7574210752099473,0.0,0,False
2022-02-27,0.7574210752099473,0.7574210752099473,0.0,0,False
2022-02-28,0.7574210752099473,0.7542060723738705,-0.42446704234967436,2,True
2022-03-01,0.7542060723738705,0.7542060723738705,0.0,0,False
2022-03-02,0.7542060723738705,0.7542060723738705,0.0,0,False
2022-03-03,0.7542060723738705,0.7542060723738705,0.0,0,False
2022-03-04,0.7542060723738705,0.7595984992233543,0.7149805665858766,3,True
2022-03-05,0.7595984992233543,0.7534956623907796,-0.8034292904494311,3,True
2022-03-06,0.7534956623907796,0.7487046046007161,-0.6358441102184864,4,True
2022-03-07,0.7487046046007161,0.7465177779639204,-0.2920813660498234,0,True
2022-03-08,0.7465177779639204,0.7427988099687163,-0.4981754092109325,1,True
2022-03-09,0.7427988099687163,0.7521581010249213,1.2600035070868154,2,True
2022-03-10,0.7521581010249213,0.7487298201094165,-0.45579259344987744,3,True
2022-03-11,0.7487298201094165,0.7477514921326722,-0.13066502100868016,1,True
2022-03-12,0.7477514921326722,0.7477514921326722,0.0,0,False
2022-03-13,0.7477514921326722,0.7477514921326722,0.0,0,False
2022-03-14,0.7477514921326722,0.7446188952852786,-0.41893555283442074,1,True
2022-03-15,0.7446188952852786,0.7456775100135835,0.14216866305807319,1,True
2022-03-16,0.7456775100135835,0.7471215812986505,0.1936589565428415,1,True
2022-03-17,0.7471215812986505,0.7437107680625991,-0.4565272000472409,1,True
2022-03-18,0.7437107680625991,0.742735955808243,-0.1310741078679678,0,True
2022-03-19,0.742735955808243,0.742735955808243,0.0,0,False
2022-03-20,0.742735955808243,0.7395813996455264,-0.4247210786077926,1,True
2022-03-21,0.7395813996455264,0.7409062693958379,0.17913778671916347,4,True
2022-03-22,0.7409062693958379,0.7402304203625231,-0.09121923531110188,0,True
2022-03-23,0.7402304203625231,0.7397332018982785,-0.0671707687994072,2,True
2022-03-24,0.7397332018982785,0.7391703372032441,-0.07609023004375715,0,True
2022-03-25,0.7391703372032441,0.7391703372032441,0.0,0,False
2022-03-26,0.7391703372032441,0.7402285980228476,0.14316873477466796,1,True
2022-03-27,0.7402285980228476,0.7389087746612414,-0.1782994287347739,1,True
2022-03-28,0.7389087746612414,0.7379653030044044,-0.12768445702509013,1,True
2022-03-29,0.7379653030044044,0.7421224385890537,0.5633239893155784,1,True
2022-03-30,0.7421224385890537,0.7409595866390266,-0.15669273553269303,6,True
2022-03-31,0.7409595866390266,0.7435547603538711,0.3502449744413383,6,True
2022-04-01,0.7435547603538711,0.7545753214513731,1.4821451875658864,7,True
2022-04-02,0.7545753214513731,0.7579249399217487,0.44390776840315116,2,True
2022-04-03,0.7579249399217487,0.753196633100607,-0.6238489554954874,2,True
2022-04-04,0.753196633100607,0.753196633100607,0.0,0,False
2022-04-05,0.753196633100607,0.7509740936030866,-0.2950809124532383,6,True
2022-04-06,0.7509740936030866,0.7302798528835115,-2.7556530772302135,15,True
2022-04-07,0.7302798528835115,0.7307091298250715,0.05878252561193342,2,True
2022-04-08,0.7307091298250715,0.7350245373103529,0.5905780164967123,0,True
2022-04-09,0.7350245373103529,0.7350245373103529,0.0,0,False
2022-04-10,0.7350245373103529,0.7350245373103529,0.0,0,False
2022-04-11,0.7350245373103529,0.7270419389994529,-1.0860315412204335,6,True
2022-04-12,0.7270419389994529,0.7243060314771903,-0.3763066991744335,0,True
2022-04-13,0.7243060314771903,0.7249758236404431,0.09247364154718607,1,True
2022-04-14,0.7249758236404431,0.7249758236404431,0.0,0,False
2022-04-15,0.7249758236404431,0.7264288399305121,0.2004227234465139,1,True
2022-04-16,0.7264288399305121,0.7264288399305121,0.0,0,False
2022-04-17,0.7264288399305121,0.7278399862703816,0.19425802808221704,1,True
2022-04-18,0.7278399862703816,0.7264946750439304,-0.18483612494896162,8,True
2022-04-19,0.7264946750439304,0.7349897529230034,1.1693241768853113,1,True
2022-04-20,0.7349897529230034,0.7349897529230034,0.0,0,False
2022-04-21,0.7349897529230034,0.7351978936133674,0.028318856084208477,3,True
2022-04-22,0.7351978936133674,0.7319233236576511,-0.4453998010824467,1,True
2022-04-23,0.7319233236576511,0.72505793395032,-0.9379930226874778,2,True
2022-04-24,0.72505793395032,0.72505793395032,0.0,0,False
2022-04-25,0.72505793395032,0.7231156550186081,-0.26787913637877914,3,True
2022-04-26,0.7231156550186081,0.7188343359268489,-0.5920656069393293,2,True
2022-04-27,0.7188343359268489,0.7159843391285438,-0.39647477253995644,0,True
2022-04-28,0.7159843391285438,0.7177228876953212,0.24281935676044863,1,True
2022-04-29,0.7177228876953212,0.7118313658638481,-0.8208630284024188,2,True
2022-04-30,0.7118313658638481,0.7082283107821161,-0.5061669455039386,2,True
2022-05-01,0.7082283107821161,0.7180358443824181,1.38479829893714,7,True
2022-05-02,0.7180358443824181,0.7227949635621909,0.6627968808250895,1,True
2022-05-03,0.7227949635621909,0.7236626140994956,0.12004103252583054,3,True
2022-05-04,0.7236626140994956,0.7192547328407104,-0.6091072238504802,1,True
2022-05-05,0.7192547328407104,0.7192547328407104,0.0,0,False
2022-05-06,0.7192547328407104,0.7018118692184687,-2.4251301834818273,8,True
2022-05-07,0.7018118692184687,0.6944846924128486,-1.0440371739194987,2,True
2022-05-08,0.6944846924128486,0.6879449569328713,-0.9416673328329739,3,True
2022-05-09,0.6879449569328713,0.6799706733133005,-1.1591455884963908,5,True
2022-05-10,0.6799706733133005,0.676190449262064,-0.5559392779127759,17,True
2022-05-11,0.676190449262064,0.6588563834850595,-2.563488702912231,30,True
2022-05-12,0.6588563834850595,0.6447896633931456,-2.1350206880454192,1,True
2022-05-13,0.6447896633931456,0.686602500608453,6.484725111018563,6,True
2022-05-14,0.686602500608453,0.656224171290672,-4.424441986573058,11,True
2022-05-15,0.656224171290672,0.6633742233123509,1.0895746201509127,2,True
2022-05-16,0.6633742233123509,0.666545286242747,0.4780202213107376,11,True
2022-05-17,0.666545286242747,0.6648275391039042,-0.25770899206647435,4,True
2022-05-18,0.6648275391039042,0.6532191909822497,-1.7460690839162574,2,True
2022-05-19,0.6532191909822497,0.6521075856986492,-0.17017339645654106,7,True
2022-05-20,0.6521075856986492,0.6539042201131637,0.2755119636569825,1,True
2022-05-21,0.6539042201131637,0.6539042201131637,0.0,0,False
2022-05-22,0.6539042201131637,0.6539042201131637,0.0,0,False
2022-05-23,0.6539042201131637,0.6552461187781419,0.2052133360977315,4,True
2022-05-24,0.6552461187781419,0.638245397669422,-2.5945550261971206,14,True
2022-05-25,0.638245397669422,0.6360055004789827,-0.35094607789077914,1,True
2022-05-26,0.6360055004789827,0.6255130492874063,-1.6497422087819236,13,True
2022-05-27,0.6255130492874063,0.6172279656082245,-1.3245261131834551,4,True
2022-05-28,0.6172279656082245,0.616720998372266,-0.0821361416213362,0,True
2022-05-29,0.616720998372266,0.6204724936709124,0.6082969946779482,4,True
2022-05-30,0.6204724936709124,0.6187850641446417,-0.27195879647899934,0,True
2022-05-31,0.6187850641446417,0.6169963328687432,-0.2890715014867262,6,True
2022-06-01,0.6169963328687432,0.6137430519693478,-0.5272771856307923,2,True
2022-06-02,0.6137430519693478,0.607512945411309,-1.0151001364574253,7,True
2022-06-03,0.607512945411309,0.6118851132113552,0.7196830673437127,0,True
2022-06-04,0.6118851132113552,0.6118851132113552,0.0,0,False
2022-06-05,0.6118851132113552,0.6118851132113552,0.0,0,False
2022-06-06,0.6118851132113552,0.6136072597029268,0.2814493202054402,1,True
2022-06-07,0.6136072597029268,0.6086303119115767,-0.8110966277940945,5,True
2022-06-08,0.6086303119115767,0.6100695431511448,0.23647051607531555,5,True
2022-06-09,0.6100695431511448,0.6116391535084977,0.2572838416495138,5,True
2022-06-10,0.6116391535084977,0.6133784542436688,0.2843671346404175,5,True
2022-06-11,0.6133784542436688,0.6089958852151438,-0.7144967349609455,8,True
2022-06-12,0.6089958852151438,0.5936243964642812,-2.524071036281661,15,True
2022-06-13,0.5936243964642812,0.5794914617335419,-2.3807873825464787,7,True
2022-06-14,0.5794914617335419,0.5792868507152691,-0.0353087201079294,10,True
2022-06-15,0.5792868507152691,0.5757338080208569,-0.6133477205679805,8,True
2022-06-16,0.5757338080208569,0.5703743235319269,-0.9308962604356763,6,True
2022-06-17,0.5703743235319269,0.5684875140536104,-0.3308019664406969,1,True
2022-06-18,0.5684875140536104,0.5635136544566699,-0.8749285558576902,6,True
2022-06-19,0.5635136544566699,0.5656215058875649,0.37405507643417657,3,True
2022-06-20,0.5656215058875649,0.568890955091199,0.5780277393278688,1,True
2022-06-21,0.568890955091199,0.5676834307136684,-0.2122593735625511,0,True
2022-06-22,0.5676834307136684,0.5684672642358881,0.13807581476075192,5,True
2022-06-23,0.5684672642358881,0.563114158843492,-0.941673466385351,1,True
2022-06-24,0.563114158843492,0.5590814889980802,-0.7161371778848569,2,True
2022-06-25,0.5590814889980802,0.5595115707667622,0.07692649052872813,4,True
2022-06-26,0.5595115707667622,0.5591293216165001,-0.06831836377185763,0,True
2022-06-27,0.5591293216165001,0.5566378497854652,-0.44559849299833365,5,True
2022-06-28,0.5566378497854652,0.5530375977216835,-0.6467853497869824,3,True
2022-06-29,0.5530375977216835,0.5550672208987067,0.3669955144794068,5,True
2022-06-30,0.5550672208987067,0.5488759086566845,-1.1154166574632085,3,True
2022-07-01,0.5488759086566845,0.5492658531936555,0.07104420704588943,1,True
2022-07-02,0.5492658531936555,0.5513630494375364,0.38181806345451985,1,True
2022-07-03,0.5513630494375364,0.552730121513558,0.24794408646284793,1,True
2022-07-04,0.552730121513558,0.5531357489567942,0.07338616577026169,0,True
2022-07-05,0.5531357489567942,0.5534399549486713,0.054996624689485074,1,True
2022-07-06,0.5534399549486713,0.5553879452468512,0.3519786167879069,0,True
2022-07-07,0.5553879452468512,0.5553879452468512,0.0,0,False
2022-07-08,0.5553879452468512,0.5553879452468512,0.0,0,False
2022-07-09,0.5553879452468512,0.5553879452468512,0.0,0,False
2022-07-10,0.5553879452468512,0.5553879452468512,0.0,0,False
2022-07-11,0.5553879452468512,0.552618246793672,-0.4986961774887222,1,True
2022-07-12,0.552618246793672,0.5541270024875447,0.27301952163660825,2,True
2022-07-13,0.5541270024875447,0.557119108399822,0.5399675343099153,5,True
2022-07-14,0.557119108399822,0.5621431514280674,0.9017897524060015,0,True
2022-07-15,0.5621431514280674,0.5621431514280674,0.0,0,False
2022-07-16,0.5621431514280674,0.5621431514280674,0.0,0,False
2022-07-17,0.5621431514280674,0.5621431514280674,0.0,0,False
2022-07-18,0.5621431514280674,0.5630791967587332,0.16651369465017218,1,True
2022-07-19,0.5630791967587332,0.5623488671807705,-0.12970281661385252,0,True
2022-07-20,0.5623488671807705,0.5634460094545636,0.195099934902232,2,True
2022-07-21,0.5634460094545636,0.5575089450345145,-1.0537060020704314,7,True
2022-07-22,0.5575089450345145,0.5575089450345145,0.0,0,False
2022-07-23,0.5575089450345145,0.5604646547242212,0.5301636352262884,2,True
2022-07-24,0.5604646547242212,0.5613541749194303,0.1587112028762494,3,True
2022-07-25,0.5613541749194303,0.561771637462904,0.07436705062959792,1,True
2022-07-26,0.561771637462904,0.5596882888091073,-0.3708532996086644,1,True
2022-07-27,0.5596882888091073,0.5601538122711027,0.08317548737459823,1,True
2022-07-28,0.5601538122711027,0.5601538122711027,0.0,0,False
2022-07-29,0.5601538122711027,0.5624456174901316,0.409138556022115,2,True
2022-07-30,0.5624456174901316,0.5624794966236958,0.006023539433974712,1,True
2022-07-31,0.5624794966236958,0.5617653560345827,-0.12696295480987274,1,True
2022-08-01,0.5617653560345827,0.5621134014487404,0.06195565647098,1,True
2022-08-02,0.5621134014487404,0.5586637919805126,-0.6136856832335114,5,True
2022-08-03,0.5586637919805126,0.5602251762752071,0.2794855004222052,1,True
2022-08-04,0.5602251762752071,0.5589199802888974,-0.23297703166207384,0,True
2022-08-05,0.5589199802888974,0.5620243157960636,0.5554168068140131,2,True
2022-08-06,0.5620243157960636,0.5620243157960636,0.0,0,False
2022-08-07,0.5620243157960636,0.5618513353630065,-0.030778104824902286,2,True
2022-08-08,0.5618513353630065,0.5611678140759058,-0.12165518600379954,0,True
2022-08-09,0.5611678140759058,0.561084981021523,-0.01476083487060853,6,True
2022-08-10,0.561084981021523,0.5629527616813018,0.33288730280718326,2,True
2022-08-11,0.5629527616813018,0.5639751746186142,0.18161611540175038,1,True
2022-08-12,0.5639751746186142,0.5631545802191943,-0.1455018653923723,4,True
2022-08-13,0.5631545802191943,0.5618056326979216,-0.23953414722253097,0,True
2022-08-14,0.5618056326979216,0.5618056326979216,0.0,0,False
2022-08-15,0.5618056326979216,0.5618056326979216,0.0,0,False
2022-08-16,0.5618056326979216,0.5586419004725229,-0.5631364374553693,2,True
2022-08-17,0.5586419004725229,0.5563968000057854,-0.4018854412528916,1,True
2022-08-18,0.5563968000057854,0.5540900164262059,-0.4145932506361416,1,True
2022-08-19,0.5540900164262059,0.540544264580007,-2.4446843373152394,12,True
2022-08-20,0.540544264580007,0.5388383015004874,-0.31560099538658903,1,True
2022-08-21,0.5388383015004874,0.5388383015004874,0.0,0,False
2022-08-22,0.5388383015004874,0.5388383015004874,0.0,0,False
2022-08-23,0.5388383015004874,0.5388383015004874,0.0,0,False
2022-08-24,0.5388383015004874,0.5388383015004874,0.0,0,False
2022-08-25,0.5388383015004874,0.5375695910729801,-0.23545290376990602,1,True
2022-08-26,0.5375695910729801,0.5373134183809009,-0.04765386590560583,1,True
2022-08-27,0.5373134183809009,0.5307270466077997,-1.2257970018593745,6,True
2022-08-28,0.5307270466077997,0.5303702972321762,-0.06721899287094324,0,True
2022-08-29,0.5303702972321762,0.5318588464471447,0.28066225102285625,2,True
2022-08-30,0.5318588464471447,0.532798985397856,0.17676474820180754,1,True
2022-08-31,0.532798985397856,0.5312776956178269,-0.2855279048425863,2,True
2022-09-01,0.5312776956178269,0.5276625176409531,-0.6804686149433969,1,True
2022-09-02,0.5276625176409531,0.5276625176409531,0.0,0,False
2022-09-03,0.5276625176409531,0.5276625176409531,0.0,0,False
2022-09-04,0.5276625176409531,0.5276625176409531,0.0,0,False
2022-09-05,0.5276625176409531,0.5276625176409531,0.0,0,False
2022-09-06,0.5276625176409531,0.5257504122926516,-0.36237278267367,1,True
2022-09-07,0.5257504122926516,0.5209149925286364,-0.9197177312575633,5,True
2022-09-08,0.5209149925286364,0.5207339486066141,-0.034754983945350926,0,True
2022-09-09,0.5207339486066141,0.5207339486066141,0.0,0,False
2022-09-10,0.5207339486066141,0.5217657048449709,0.1981350056238007,1,True
2022-09-11,0.5217657048449709,0.524691495077824,0.5607479000028226,0,True
2022-09-12,0.524691495077824,0.524691495077824,0.0,0,False
2022-09-13,0.524691495077824,0.5203566378460796,-0.8261725742479298,4,True
2022-09-14,0.5203566378460796,0.5229691666822065,0.5020650542560734,2,True
2022-09-15,0.5229691666822065,0.5192491544539235,-0.7113253448350121,3,True
2022-09-16,0.5192491544539235,0.5164556777991619,-0.5379838620439115,3,True
2022-09-17,0.5164556777991619,0.5159366672854615,-0.10049468638085868,1,True
2022-09-18,0.5159366672854615,0.5158042553072947,-0.025664386069612632,0,True
2022-09-19,0.5158042553072947,0.5166760796390659,0.16902232248003912,11,True
2022-09-20,0.5166760796390659,0.5157710443629626,-0.175164926685889,0,True
2022-09-21,0.5157710443629626,0.5157710443629626,0.0,0,False
2022-09-22,0.5157710443629626,0.517037906014376,0.24562481070997677,2,True
2022-09-23,0.517037906014376,0.5139483077742433,-0.5975573945727009,2,True
2022-09-24,0.5139483077742433,0.5139483077742433,0.0,0,False
2022-09-25,0.5139483077742433,0.5139483077742433,0.0,0,False
2022-09-26,0.5139483077742433,0.5139483077742433,0.0,0,False
2022-09-27,0.5139483077742433,0.5139483077742433,0.0,0,False
2022-09-28,0.5139483077742433,0.5139483077742433,0.0,0,False
2022-09-29,0.5139483077742433,0.5139483077742433,0.0,0,False
2022-09-30,0.5139483077742433,0.5127294316645322,-0.2371592806657219,1,True
2022-10-01,0.5127294316645322,0.5127698814374073,0.007889106881142638,0,True
2022-10-02,0.5127698814374073,0.5127698814374073,0.0,0,False
2022-10-03,0.5127698814374073,0.5127698814374073,0.0,0,False
2022-10-04,0.5127698814374073,0.5127698814374073,0.0,0,False
2022-10-05,0.5127698814374073,0.5127698814374073,0.0,0,False
2022-10-06,0.5127698814374073,0.5127698814374073,0.0,0,False
2022-10-07,0.5127698814374073,0.5127698814374073,0.0,0,False
2022-10-08,0.5127698814374073,0.5113716114280528,-0.2726895747922842,1,True
2022-10-09,0.5113716114280528,0.5113716114280528,0.0,0,False
2022-10-10,0.5113716114280528,0.5113716114280528,0.0,0,False
2022-10-11,0.5113716114280528,0.5236058534903613,2.392436691615174,6,True
2022-10-12,0.5236058534903613,0.5216565881856013,-0.37227721801925684,2,True
2022-10-13,0.5216565881856013,0.5194660938235865,-0.419911185179056,1,True
2022-10-14,0.5194660938235865,0.5194660938235865,0.0,0,False
2022-10-15,0.5194660938235865,0.5194660938235865,0.0,0,False
2022-10-16,0.5194660938235865,0.5194660938235865,0.0,0,False
2022-10-17,0.5194660938235865,0.5194660938235865,0.0,0,False
2022-10-18,0.5194660938235865,0.5194660938235865,0.0,0,False
2022-10-19,0.5194660938235865,0.5194660938235865,0.0,0,False
2022-10-20,0.5194660938235865,0.5220260226802514,0.4927999896628954,2,True
2022-10-21,0.5220260226802514,0.5212591448087934,-0.14690414618041547,0,True
2022-10-22,0.5212591448087934,0.5212591448087934,0.0,0,False
2022-10-23,0.5212591448087934,0.5212591448087934,0.0,0,False
2022-10-24,0.5212591448087934,0.5212591448087934,0.0,0,False
2022-10-25,0.5212591448087934,0.5197561505487903,-0.2883391639209365,2,True
2022-10-26,0.5197561505487903,0.5189432504582528,-0.15640028303256504,0,True
2022-10-27,0.5189432504582528,0.5189432504582528,0.0,0,False
2022-10-28,0.5189432504582528,0.5168493271542249,-0.40349755048916247,1,True
2022-10-29,0.5168493271542249,0.5168493271542249,0.0,0,False
2022-10-30,0.5168493271542249,0.5143297417889232,-0.4874893383676415,2,True
2022-10-31,0.5143297417889232,0.5134506556750726,-0.17091877883494977,1,True
2022-11-01,0.5134506556750726,0.5134506556750726,0.0,0,False
2022-11-02,0.5134506556750726,0.5177975600973718,0.8466060709541701,3,True
2022-11-03,0.5177975600973718,0.5163758865139797,-0.2745616613420765,3,True
2022-11-04,0.5163758865139797,0.5193921325614526,0.5841182995269811,4,True
2022-11-05,0.5193921325614526,0.5193287828556601,-0.01219689360331122,2,True
2022-11-06,0.5193287828556601,0.5178139079371835,-0.29169862493402254,2,True
2022-11-07,0.5178139079371835,0.5104535900821411,-1.4214214300198647,8,True
2022-11-08,0.5104535900821411,0.49482125388208276,-3.0624402499633274,13,True
2022-11-09,0.49482125388208276,0.46435972558521305,-6.156067076320204,19,True
2022-11-10,0.46435972558521305,0.47132969628873034,1.5009851887420433,13,True
2022-11-11,0.47132969628873034,0.4699829357086601,-0.28573641565016183,18,True
2022-11-12,0.4699829357086601,0.4636184387941355,-1.3541974465366424,6,True
2022-11-13,0.4636184387941355,0.46234187180731273,-0.27534862291997975,1,True
2022-11-14,0.46234187180731273,0.46377657977538206,0.310313223948544,6,True
2022-11-15,0.46377657977538206,0.4595426942254075,-0.9129149108877188,1,True
2022-11-16,0.4595426942254075,0.4581145563325404,-0.31077371282647315,2,True
2022-11-17,0.4581145563325404,0.45921644545711265,0.2405269837731261,1,True
2022-11-18,0.45921644545711265,0.4600990135053848,0.19218999167018858,0,True
2022-11-19,0.4600990135053848,0.4604770864604929,0.08217208557514954,3,True
2022-11-20,0.4604770864604929,0.45779804524925954,-0.581796855914396,3,True
2022-11-21,0.45779804524925954,0.4501010986754724,-1.6812973872783465,7,True
2022-11-22,0.4501010986754724,0.4439960395451186,-1.3563750784699957,4,True
2022-11-23,0.4439960395451186,0.4492676671833508,1.1873141128990738,1,True
2022-11-24,0.4492676671833508,0.44667737440514826,-0.5765589129621107,2,True
2022-11-25,0.44667737440514826,0.4458124366791838,-0.19363813247006423,2,True
2022-11-26,0.4458124366791838,0.4458124366791838,0.0,0,False
2022-11-27,0.4458124366791838,0.4458124366791838,0.0,0,False
2022-11-28,0.4458124366791838,0.4406847836355108,-1.1501816956629662,5,True
2022-11-29,0.4406847836355108,0.4400561305537112,-0.14265368470710582,0,True
2022-11-30,0.4400561305537112,0.4400561305537112,0.0,0,False
2022-12-01,0.4400561305537112,0.44030393846799293,0.05631279672662082,1,True
2022-12-02,0.44030393846799293,0.44107413634280196,0.17492413933177797,1,True
2022-12-03,0.44107413634280196,0.44096543598441573,-0.024644464372258756,0,True
2022-12-04,0.44096543598441573,0.44096543598441573,0.0,0,False
2022-12-05,0.44096543598441573,0.44096543598441573,0.0,0,False
2022-12-06,0.44096543598441573,0.4417568680555917,0.1794771214685298,2,True
2022-12-07,0.4417568680555917,0.44099718385682357,-0.17196884841019777,1,True
2022-12-08,0.44099718385682357,0.4375838858908681,-0.7739954110599578,2,True
2022-12-09,0.4375838858908681,0.4383935021084372,0.18501965992665514,0,True
2022-12-10,0.4383935021084372,0.4383935021084372,0.0,0,False
2022-12-11,0.4383935021084372,0.4383935021084372,0.0,0,False
2022-12-12,0.4383935021084372,0.43767387561588866,-0.16415081179066426,1,True
2022-12-13,0.43767387561588866,0.4380343409868538,0.0823593527161881,1,True
2022-12-14,0.4380343409868538,0.4380343409868538,0.0,0,False
2022-12-15,0.4380343409868538,0.4380343409868538,0.0,0,False
2022-12-16,0.4380343409868538,0.4366403289340756,-0.318242640437183,5,True
2022-12-17,0.4366403289340756,0.43452210501272875,-0.48511870777440125,5,True
2022-12-18,0.43452210501272875,0.43342745666234805,-0.25192006062583205,0,True
2022-12-19,0.43342745666234805,0.43126637955553065,-0.49860180143154187,1,True
2022-12-20,0.43126637955553065,0.43126637955553065,0.0,0,False
2022-12-21,0.43126637955553065,0.43126637955553065,0.0,0,False
2022-12-22,0.43126637955553065,0.43126637955553065,0.0,0,False
2022-12-23,0.43126637955553065,0.43126637955553065,0.0,0,False
2022-12-24,0.43126637955553065,0.43126637955553065,0.0,0,False
2022-12-25,0.43126637955553065,0.43126637955553065,0.0,0,False
2022-12-26,0.43126637955553065,0.43126637955553065,0.0,0,False
2022-12-27,0.43126637955553065,0.43126637955553065,0.0,0,False
2022-12-28,0.43126637955553065,0.4330696339293811,0.41813006052289214,4,True
2022-12-29,0.4330696339293811,0.42979303868414376,-0.7565977820951586,0,True
2022-12-30,0.42979303868414376,0.43495185785943713,1.2003031019505617,1,True
2022-12-31,0.43495185785943713,0.4363635175097233,0.3245553788949085,0,True
2023-01-01,0.4363635175097233,0.4363635175097233,0.0,0,False
2023-01-02,0.4363635175097233,0.43596051179562123,-0.09235550130358705,1,True
2023-01-03,0.43596051179562123,0.4359536410058545,-0.0015760119508212433,0,True
2023-01-04,0.4359536410058545,0.4359536410058545,0.0,0,False
2023-01-05,0.4359536410058545,0.4359536410058545,0.0,0,False
2023-01-06,0.4359536410058545,0.43547751019557096,-0.10921592699282279,1,True
2023-01-07,0.43547751019557096,0.43687437522681366,0.3207662849489923,0,True
2023-01-08,0.43687437522681366,0.43687437522681366,0.0,0,False
2023-01-09,0.43687437522681366,0.43641989390397995,-0.10403020836315946,1,True
2023-01-10,0.43641989390397995,0.43639088990090025,-0.006645893893664212,1,True
2023-01-11,0.43639088990090025,0.4318802809140407,-1.033616670568871,3,True
2023-01-12,0.4318802809140407,0.4318802809140407,0.0,0,False
2023-01-13,0.4318802809140407,0.4318217864038386,-0.0135441493365418,1,True
2023-01-14,0.4318217864038386,0.4339844003709315,0.5008116855573341,4,True
2023-01-15,0.4339844003709315,0.4361831182184265,0.5066352259702755,4,True
2023-01-16,0.4361831182184265,0.43348217331729094,-0.619222704484168,1,True
2023-01-17,0.43348217331729094,0.43251981589299754,-0.22200622852118768,0,True
2023-01-18,0.43251981589299754,0.43251981589299754,0.0,0,False
2023-01-19,0.43251981589299754,0.42504346269985993,-1.728557378972717,8,True
2023-01-20,0.42504346269985993,0.42504346269985993,0.0,0,False
2023-01-21,0.42504346269985993,0.42408694207366937,-0.2250406629276891,2,True
2023-01-22,0.42408694207366937,0.4272755175209506,0.7518683389990732,1,True
2023-01-23,0.4272755175209506,0.4274387623730724,0.038205992486739504,1,True
2023-01-24,0.4274387623730724,0.44433842866446993,3.953704665803648,4,True
2023-01-25,0.44433842866446993,0.4430845225085472,-0.2821961988954125,7,True
2023-01-26,0.4430845225085472,0.4430845225085472,0.0,0,False
2023-01-27,0.4430845225085472,0.4424270514263581,-0.14838502560793332,2,True
2023-01-28,0.4424270514263581,0.441714595998553,-0.16103342359110595,0,True
2023-01-29,0.441714595998553,0.44034283759859577,-0.3105531065497602,1,True
2023-01-30,0.44034283759859577,0.43758717157673555,-0.6258001235783017,5,True
2023-01-31,0.43758717157673555,0.4446037998391558,1.6034812531495524,6,True
2023-02-01,0.4446037998391558,0.44101678064359573,-0.8067900447224607,2,True
2023-02-02,0.44101678064359573,0.44101678064359573,0.0,0,False
2023-02-03,0.44101678064359573,0.44523641585164675,0.9567969730977399,2,True
2023-02-04,0.44523641585164675,0.44453034502455696,-0.15858335076640584,0,True
2023-02-05,0.44453034502455696,0.44628605718283537,0.3949588994158315,5,True
2023-02-06,0.44628605718283537,0.4386220415974435,-1.7172877041623735,2,True
2023-02-07,0.4386220415974435,0.43738810479118184,-0.28132120350534695,0,True
2023-02-08,0.43738810479118184,0.4342686453721316,-0.713201704591282,3,True
2023-02-09,0.4342686453721316,0.43359139967172555,-0.1559508630483153,8,True
2023-02-10,0.43359139967172555,0.43034594314739355,-0.7485057422239372,9,True
2023-02-11,0.43034594314739355,0.4411240423897256,2.504519773906755,2,True
2023-02-12,0.4411240423897256,0.44628129482430007,1.1691161530520633,1,True
2023-02-13,0.44628129482430007,0.44856059930596054,0.510732694400251,3,True
2023-02-14,0.44856059930596054,0.4484296925458003,-0.029183740248872603,1,True
2023-02-15,0.4484296925458003,0.4485401024620194,0.024621455281503835,0,True
2023-02-16,0.4485401024620194,0.4485401024620194,0.0,0,False
2023-02-17,0.4485401024620194,0.4517295294600982,0.7110684151923508,1,True
2023-02-18,0.4517295294600982,0.45232354178305684,0.13149734170989635,1,True
2023-02-19,0.45232354178305684,0.45279099338181195,0.10334452124964866,1,True
2023-02-20,0.45279099338181195,0.4554663865571887,0.5908671361580575,3,True
2023-02-21,0.4554663865571887,0.4621822120073002,1.474494199423937,5,True
2023-02-22,0.4621822120073002,0.46182612112736854,-0.07704556139993546,1,True
2023-02-23,0.46182612112736854,0.4661166625320766,0.9290382696921506,1,True
2023-02-24,0.4661166625320766,0.4661166625320766,0.0,0,False
2023-02-25,0.4661166625320766,0.46329642047354214,-0.605050684782249,2,True
2023-02-26,0.46329642047354214,0.46329642047354214,0.0,0,False
2023-02-27,0.46329642047354214,0.4609855433556543,-0.49879019473664243,1,True
2023-02-28,0.4609855433556543,0.46005323205069,-0.20224306779290657,1,True
2023-03-01,0.46005323205069,0.4582348202785018,-0.39526116664425626,1,True
2023-03-02,0.4582348202785018,0.4574400996262703,-0.173430873661784,1,True
2023-03-03,0.4574400996262703,0.4539627701086372,-0.7601715548055554,9,True
2023-03-04,0.4539627701086372,0.4537713003744225,-0.04217740899081779,0,True
2023-03-05,0.4537713003744225,0.45673366244870667,0.6528315192785072,4,True
2023-03-06,0.45673366244870667,0.4572036780196915,0.10290802050036962,0,True
2023-03-07,0.4572036780196915,0.4572036780196915,0.0,0,False
2023-03-08,0.4572036780196915,0.4572036780196915,0.0,0,False
2023-03-09,0.4572036780196915,0.4572036780196915,0.0,0,False
2023-03-10,0.4572036780196915,0.4486579566404783,-1.8691278723363847,10,True
2023-03-11,0.4486579566404783,0.4491019480654395,0.09895989102384206,7,True
2023-03-12,0.4491019480654395,0.45183409336753244,0.6083574818283477,0,True
2023-03-13,0.45183409336753244,0.45183409336753244,0.0,0,False
2023-03-14,0.45183409336753244,0.45095749207823355,-0.19400954955957062,1,True
2023-03-15,0.45095749207823355,0.4498789966389507,-0.23915678489176972,4,True
2023-03-16,0.4498789966389507,0.4469784692136732,-0.6447350169595301,5,True
2023-03-17,0.4469784692136732,0.44475511680908414,-0.49741823325413215,2,True
2023-03-18,0.44475511680908414,0.4541760363007661,2.1182262183452316,2,True
2023-03-19,0.4541760363007661,0.44918931486414637,-1.0979710592474712,3,True
2023-03-20,0.44918931486414637,0.4512883068444921,0.4672844858254477,4,True
2023-03-21,0.4512883068444921,0.44837550490124234,-0.645441483653042,0,True
2023-03-22,0.44837550490124234,0.44837550490124234,0.0,0,False
2023-03-23,0.44837550490124234,0.45699600974420745,1.9226083380410985,7,True
2023-03-24,0.45699600974420745,0.4527952497935395,-0.9192115163148107,1,True
2023-03-25,0.4527952497935395,0.4505733877138696,-0.4906990699842795,1,True
2023-03-26,0.4505733877138696,0.4505733877138696,0.0,0,False
2023-03-27,0.4505733877138696,0.44832713299113147,-0.4985324885997455,1,True
2023-03-28,0.44832713299113147,0.4552292084723691,1.5395176810264921,4,True
2023-03-29,0.4552292084723691,0.4552292084723691,0.0,0,False
2023-03-30,0.4552292084723691,0.45397090255951333,-0.2764115064317396,1,True
2023-03-31,0.45397090255951333,0.45397090255951333,0.0,0,False
2023-04-01,0.45397090255951333,0.45363898086538873,-0.07311519135988487,1,True
2023-04-02,0.45363898086538873,0.4532454311588014,-0.0867539438159759,0,True
2023-04-03,0.4532454311588014,0.4532454311588014,0.0,0,False
2023-04-04,0.4532454311588014,0.45311610482488596,-0.028533400454755498,1,True
2023-04-05,0.45311610482488596,0.45204994961075745,-0.23529404556047462,1,True
2023-04-06,0.45204994961075745,0.4496139857657574,-0.5388705047080666,2,True
2023-04-07,0.4496139857657574,0.4487917506688179,-0.18287578299841512,1,True
2023-04-08,0.4487917506688179,0.4497544191310894,0.21450226320711696,1,True
2023-04-09,0.4497544191310894,0.4498580867211448,0.023049821334875098,0,True
2023-04-10,0.4498580867211448,0.4498580867211448,0.0,0,False
2023-04-11,0.4498580867211448,0.4498580867211448,0.0,0,False
2023-04-12,0.4498580867211448,0.4521792320121079,0.5159727833017547,1,True
2023-04-13,0.4521792320121079,0.452394504074599,0.0476076845752571,0,True
2023-04-14,0.452394504074599,0.4557637725251953,0.7447633470897941,1,True
2023-04-15,0.4557637725251953,0.4537185284838772,-0.44875090224618663,1,True
2023-04-16,0.4537185284838772,0.4537185284838772,0.0,0,False
2023-04-17,0.4537185284838772,0.45364492902345965,-0.016221391853554756,1,True
2023-04-18,0.45364492902345965,0.45364492902345965,0.0,0,False
2023-04-19,0.45364492902345965,0.4475062071647769,-1.3531997088333525,9,True
2023-04-20,0.4475062071647769,0.44354391530199105,-0.885416067832745,0,True
2023-04-21,0.44354391530199105,0.44354391530199105,0.0,0,False
2023-04-22,0.44354391530199105,0.442282824515107,-0.2843215166248969,1,True
2023-04-23,0.442282824515107,0.442282824515107,0.0,0,False
2023-04-24,0.442282824515107,0.442282824515107,0.0,0,False
2023-04-25,0.442282824515107,0.442282824515107,0.0,0,False
2023-04-26,0.442282824515107,0.442282824515107,0.0,0,False
2023-04-27,0.442282824515107,0.44087088230295046,-0.319239666090243,9,True
2023-04-28,0.44087088230295046,0.44087088230295046,0.0,0,False
2023-04-29,0.44087088230295046,0.4386718111889186,-0.4988016224942493,1,True
2023-04-30,0.4386718111889186,0.4386718111889186,0.0,0,False
2023-05-01,0.4386718111889186,0.4386718111889186,0.0,0,False
2023-05-02,0.4386718111889186,0.4386718111889186,0.0,0,False
2023-05-03,0.4386718111889186,0.4386718111889186,0.0,0,False
2023-05-04,0.4386718111889186,0.4386718111889186,0.0,0,False
2023-05-05,0.4386718111889186,0.4386718111889186,0.0,0,False
2023-05-06,0.4386718111889186,0.4364861927830401,-0.4982354348128548,1,True
2023-05-07,0.4364861927830401,0.4364861927830401,0.0,0,False
2023-05-08,0.4364861927830401,0.44407858637589276,1.7394349966590061,6,True
2023-05-09,0.44407858637589276,0.4433867658869438,-0.15578785155908603,6,True
2023-05-10,0.4433867658869438,0.4411661465047652,-0.5008312275032623,2,True
2023-05-11,0.4411661465047652,0.444934280037578,0.8541302551582142,6,True
2023-05-12,0.444934280037578,0.44295205701748286,-0.4455091704616998,0,True
2023-05-13,0.44295205701748286,0.44295205701748286,0.0,0,False
2023-05-14,0.44295205701748286,0.44295205701748286,0.0,0,False
2023-05-15,0.44295205701748286,0.44295205701748286,0.0,0,False
2023-05-16,0.44295205701748286,0.44295205701748286,0.0,0,False
2023-05-17,0.44295205701748286,0.44295205701748286,0.0,0,False
2023-05-18,0.44295205701748286,0.44194838960415767,-0.22658601476718276,1,True
2023-05-19,0.44194838960415767,0.44194838960415767,0.0,0,False
2023-05-20,0.44194838960415767,0.44194838960415767,0.0,0,False
2023-05-21,0.44194838960415767,0.44194838960415767,0.0,0,False
2023-05-22,0.44194838960415767,0.44071249088990555,-0.27964774695956596,1,True
2023-05-23,0.44071249088990555,0.44071249088990555,0.0,0,False
2023-05-24,0.44071249088990555,0.4394310223268612,-0.2907720088570098,1,True
2023-05-25,0.4394310223268612,0.44139037592621305,0.4458842229610349,0,True
2023-05-26,0.44139037592621305,0.44255099232300094,0.2629455602316755,1,True
2023-05-27,0.44255099232300094,0.4465264157297064,0.8982972528968958,0,True
2023-05-28,0.4465264157297064,0.4465264157297064,0.0,0,False
2023-05-29,0.4465264157297064,0.4465264157297064,0.0,0,False
2023-05-30,0.4465264157297064,0.4484538004373041,0.4316395715241228,2,True
2023-05-31,0.4484538004373041,0.44662779036452566,-0.4071790831068456,1,True
2023-06-01,0.44662779036452566,0.44662779036452566,0.0,0,False
2023-06-02,0.44662779036452566,0.45271011518792326,1.3618330418788682,1,True
2023-06-03,0.45271011518792326,0.458650368996056,1.3121539830553308,0,True
2023-06-04,0.458650368996056,0.45544721209695727,-0.6983875116268079,3,True
2023-06-05,0.45544721209695727,0.4546284837217666,-0.17976361550685604,1,True
2023-06-06,0.4546284837217666,0.4406589554649866,-3.072734937859589,12,True
2023-06-07,0.4406589554649866,0.4409378573922635,0.06329201388464156,1,True
2023-06-08,0.4409378573922635,0.43929460736252623,-0.37267156860958384,1,True
2023-06-09,0.43929460736252623,0.4380176987035497,-0.2906725094220852,1,True
2023-06-10,0.4380176987035497,0.4469714306222347,2.04414843171552,7,True
2023-06-11,0.4469714306222347,0.4455632708964092,-0.31504468280337816,0,True
2023-06-12,0.4455632708964092,0.4455632708964092,0.0,0,False
2023-06-13,0.4455632708964092,0.44601642313110546,0.10170322921470021,1,True
2023-06-14,0.44601642313110546,0.44599173870713205,-0.005534420414410324,0,True
2023-06-15,0.44599173870713205,0.448678005975872,0.6023132348879523,5,True
2023-06-16,0.448678005975872,0.4524350781192795,0.8373649016371942,0,True
2023-06-17,0.4524350781192795,0.453186459811461,0.16607503010264146,1,True
2023-06-18,0.453186459811461,0.45376780421115226,0.12827929588477005,0,True
2023-06-19,0.45376780421115226,0.4561665889136243,0.5286370430449994,1,True
2023-06-20,0.4561665889136243,0.4570196199689974,0.18699989786727933,1,True
2023-06-21,0.4570196199689974,0.4570196199689974,0.0,0,False
2023-06-22,0.4570196199689974,0.4558227523362365,-0.2618853940761112,1,True
2023-06-23,0.4558227523362365,0.4558227523362365,0.0,0,False
2023-06-24,0.4558227523362365,0.4558870612029192,0.014108305553661715,1,True
2023-06-25,0.4558870612029192,0.45594607320403513,0.01294443429917802,4,True
2023-06-26,0.45594607320403513,0.45555044674811374,-0.08677044922028587,0,True
2023-06-27,0.45555044674811374,0.45555044674811374,0.0,0,False
2023-06-28,0.45555044674811374,0.45555044674811374,0.0,0,False
2023-06-29,0.45555044674811374,0.4551724799737219,-0.08296924678482531,2,True
2023-06-30,0.4551724799737219,0.45139518018054275,-0.8298611975392722,9,True
2023-07-01,0.45139518018054275,0.45528631582149237,0.8620241889586211,1,True
2023-07-02,0.45528631582149237,0.45528631582149237,0.0,0,False
2023-07-03,0.45528631582149237,0.45528631582149237,0.0,0,False
2023-07-04,0.45528631582149237,0.4547446776638199,-0.11896649182069341,1,True
2023-07-05,0.4547446776638199,0.4539260410032376,-0.18002116369737475,1,True
2023-07-06,0.4539260410032376,0.4527837855691848,-0.25163910656640365,2,True
2023-07-07,0.4527837855691848,0.4517048736046483,-0.23828414332024428,0,True
2023-07-08,0.4517048736046483,0.4517048736046483,0.0,0,False
2023-07-09,0.4517048736046483,0.4517048736046483,0.0,0,False
2023-07-10,0.4517048736046483,0.4517048736046483,0.0,0,False
2023-07-11,0.4517048736046483,0.4517048736046483,0.0,0,False
2023-07-12,0.4517048736046483,0.4510158441804886,-0.15253973654548725,1,True
2023-07-13,0.4510158441804886,0.4510158441804886,0.0,0,False
2023-07-14,0.4510158441804886,0.4510158441804886,0.0,0,False
2023-07-15,0.4510158441804886,0.45273134850964114,0.3803645373633424,6,True
2023-07-16,0.45273134850964114,0.45217890760568963,-0.12202400071700259,2,True
2023-07-17,0.45217890760568963,0.45046407398347355,-0.379237862132098,0,True
2023-07-18,0.45046407398347355,0.45054696459262744,0.01840115870304082,2,True
2023-07-19,0.45054696459262744,0.4470537302638862,-0.7753318972861689,1,True
2023-07-20,0.4470537302638862,0.4452326957323487,-0.40734131229875903,2,True
2023-07-21,0.4452326957323487,0.44534686100750637,0.025641709661483603,0,True
2023-07-22,0.44534686100750637,0.44534686100750637,0.0,0,False
2023-07-23,0.44534686100750637,0.44534686100750637,0.0,0,False
2023-07-24,0.44534686100750637,0.4429677566683649,-0.5342137887217158,4,True
2023-07-25,0.4429677566683649,0.4409777060567413,-0.4492540555527391,0,True
2023-07-26,0.4409777060567413,0.4409777060567413,0.0,0,False
2023-07-27,0.4409777060567413,0.4409777060567413,0.0,0,False
2023-07-28,0.4409777060567413,0.4409777060567413,0.0,0,False
2023-07-29,0.4409777060567413,0.4409777060567413,0.0,0,False
2023-07-30,0.4409777060567413,0.4409777060567413,0.0,0,False
2023-07-31,0.4409777060567413,0.43877988385397504,-0.4983975771517768,1,True
2023-08-01,0.43877988385397504,0.4373985929821005,-0.3148026887062727,2,True
2023-08-02,0.4373985929821005,0.4373985929821005,0.0,0,False
2023-08-03,0.4373985929821005,0.4373985929821005,0.0,0,False
2023-08-04,0.4373985929821005,0.4373985929821005,0.0,0,False
2023-08-05,0.4373985929821005,0.4373985929821005,0.0,0,False
2023-08-06,0.4373985929821005,0.4373985929821005,0.0,0,False
2023-08-07,0.4373985929821005,0.43651179995010214,-0.20274254335213016,2,True
2023-08-08,0.43651179995010214,0.43182935342545187,-1.0726964368856784,5,True
2023-08-09,0.43182935342545187,0.4302551134346094,-0.3645514086420776,0,True
2023-08-10,0.4302551134346094,0.4281133069367221,-0.4977991965719686,1,True
2023-08-11,0.4281133069367221,0.4281133069367221,0.0,0,False
2023-08-12,0.4281133069367221,0.4281133069367221,0.0,0,False
2023-08-13,0.4281133069367221,0.4289768592202193,0.20171115204901113,1,True
2023-08-14,0.4289768592202193,0.42683595284582204,-0.49907269550364397,1,True
2023-08-15,0.42683595284582204,0.42683595284582204,0.0,0,False
2023-08-16,0.42683595284582204,0.4288106592750623,0.46263826092305393,7,True
2023-08-17,0.4288106592750623,0.43151295014026897,0.6301827640607494,5,True
2023-08-18,0.43151295014026897,0.44467837568076707,3.0509919890511883,7,True
2023-08-19,0.44467837568076707,0.4446499701848179,-0.006387874361035717,0,True
2023-08-20,0.4446499701848179,0.44398270927499,-0.15006431003482534,1,True
2023-08-21,0.44398270927499,0.44305775511428774,-0.20833112222156114,1,True
2023-08-22,0.44305775511428774,0.443994476164136,0.21142188327267775,1,True
2023-08-23,0.443994476164136,0.443994476164136,0.0,0,False
2023-08-24,0.443994476164136,0.443994476164136,0.0,0,False
2023-08-25,0.443994476164136,0.43542384995572486,-1.9303452336742022,6,True
2023-08-26,0.43542384995572486,0.4346249283429318,-0.1834813625561149,0,True
2023-08-27,0.4346249283429318,0.4346249283429318,0.0,0,False
2023-08-28,0.4346249283429318,0.43202558103805316,-0.5980667778972104,2,True
2023-08-29,0.43202558103805316,0.4354820949107604,0.8000715754844956,1,True
2023-08-30,0.4354820949107604,0.43343260448446913,-0.4706256468962833,2,True
2023-08-31,0.43343260448446913,0.43511093004431345,0.38721719189551695,2,True
2023-09-01,0.43511093004431345,0.43327656098515804,-0.4215865271342656,1,True
2023-09-02,0.43327656098515804,0.42939510430439043,-0.8958381390265391,3,True
2023-09-03,0.42939510430439043,0.429119125254998,-0.06427158731572291,0,True
2023-09-04,0.429119125254998,0.42850573181848417,-0.1429424605928098,3,True
2023-09-05,0.42850573181848417,0.42578212253742387,-0.6356062658723127,0,True
2023-09-06,0.42578212253742387,0.427786066204709,0.47065002526238686,4,True
2023-09-07,0.427786066204709,0.4279318858347325,0.03408704526475237,3,True
2023-09-08,0.4279318858347325,0.42401562152763556,-0.9151606684923319,4,True
2023-09-09,0.42401562152763556,0.4261898268668793,0.5127653861927373,5,True
2023-09-10,0.4261898268668793,0.42227544553676816,-0.918459588509557,5,True
2023-09-11,0.42227544553676816,0.4202478296392784,-0.48016429061187305,1,True
2023-09-12,0.4202478296392784,0.4198613624608418,-0.09196173095488147,2,True
2023-09-13,0.4198613624608418,0.41774423053470305,-0.5042454761090887,2,True
2023-09-14,0.41774423053470305,0.4197077012479588,0.4700174340511065,4,True
2023-09-15,0.4197077012479588,0.42135175659194485,0.3917143619470487,1,True
2023-09-16,0.42135175659194485,0.42427734346762186,0.6943336131645106,5,True
2023-09-17,0.42427734346762186,0.4229733375498558,-0.3073475258208336,2,True
2023-09-18,0.4229733375498558,0.4201961870710641,-0.6565781415156735,1,True
2023-09-19,0.4201961870710641,0.4201961870710641,0.0,0,False
2023-09-20,0.4201961870710641,0.42117166764556196,0.23214884011617531,3,True
2023-09-21,0.42117166764556196,0.4215737181197303,0.09546000005553612,1,True
2023-09-22,0.4215737181197303,0.427181141322081,1.3301168837944743,1,True
2023-09-23,0.427181141322081,0.4266001356257958,-0.13600921016482248,0,True
2023-09-24,0.4266001356257958,0.42562444104982466,-0.2287140801162324,1,True
2023-09-25,0.42562444104982466,0.4257310179930218,0.025040137012410923,1,True
2023-09-26,0.4257310179930218,0.42613772583294773,0.09553164386357782,1,True
2023-09-27,0.42613772583294773,0.42485582610553946,-0.30081817443001757,0,True
2023-09-28,0.42485582610553946,0.42485582610553946,0.0,0,False
2023-09-29,0.42485582610553946,0.4206321102412824,-0.9941527465855748,2,True
2023-09-30,0.4206321102412824,0.4206321102412824,0.0,0,False
2023-10-01,0.4206321102412824,0.4203471159624402,-0.06775380954124888,1,True
2023-10-02,0.4203471159624402,0.421206015499257,0.20433101696208933,1,True
2023-10-03,0.421206015499257,0.42182004567814974,0.14577906209742864,2,True
2023-10-04,0.42182004567814974,0.4191387793909825,-0.6356422163049769,5,True
2023-10-05,0.4191387793909825,0.41495344036902804,-0.9985568569999215,2,True
2023-10-06,0.41495344036902804,0.41495344036902804,0.0,0,False
2023-10-07,0.41495344036902804,0.4130421607618498,-0.460600978625092,1,True
2023-10-08,0.4130421607618498,0.41230903340380315,-0.17749455810864845,1,True
2023-10-09,0.41230903340380315,0.41090049038378046,-0.34162312874751466,1,True
2023-10-10,0.41090049038378046,0.4091825790393789,-0.41808452036575794,1,True
2023-10-11,0.4091825790393789,0.4091825790393789,0.0,0,False
2023-10-12,0.4091825790393789,0.4091825790393789,0.0,0,False
2023-10-13,0.4091825790393789,0.4091825790393789,0.0,0,False
2023-10-14,0.4091825790393789,0.4091825790393789,0.0,0,False
2023-10-15,0.4091825790393789,0.40920148917082205,0.0046214409928024835,1,True
2023-10-16,0.40920148917082205,0.4093100489218734,0.026529656886475905,2,True
2023-10-17,0.4093100489218734,0.4101138509360251,0.1963797410468926,2,True
2023-10-18,0.4101138509360251,0.406689580341214,-0.8349560949954982,3,True
2023-10-19,0.406689580341214,0.40150486830906273,-1.2748573562669785,4,True
2023-10-20,0.40150486830906273,0.4011514944429058,-0.08801234905199129,0,True
2023-10-21,0.4011514944429058,0.40217239569287627,0.2544926951819626,2,True
2023-10-22,0.40217239569287627,0.40498618449876717,0.6996474238474715,1,True
2023-10-23,0.40498618449876717,0.40498618449876717,0.0,0,False
2023-10-24,0.40498618449876717,0.4033937191095163,-0.3932147441576994,4,True
2023-10-25,0.4033937191095163,0.4147287306687784,2.8099127532981605,7,True
2023-10-26,0.4147287306687784,0.4227950878163805,1.944971869827894,3,True
2023-10-27,0.4227950878163805,0.4201860172439625,-0.6171004932656876,5,True
2023-10-28,0.4201860172439625,0.42086642295995447,0.16192964260324239,1,True
2023-10-29,0.42086642295995447,0.42086642295995447,0.0,0,False
2023-10-30,0.42086642295995447,0.41976375659165144,-0.26199913040055867,2,True
2023-10-31,0.41976375659165144,0.4158804337779641,-0.9251210359890738,5,True
2023-11-01,0.4158804337779641,0.41485482190550604,-0.24661219647702515,4,True
2023-11-02,0.41485482190550604,0.4143581442966101,-0.11972323392906992,3,True
2023-11-03,0.4143581442966101,0.4124680093430018,-0.45615972067276633,1,True
2023-11-04,0.4124680093430018,0.41330884592966155,0.20385498211099584,1,True
2023-11-05,0.41330884592966155,0.41160639596273424,-0.41190745944427176,4,True
2023-11-06,0.41160639596273424,0.40967494800178916,-0.4692463430815974,3,True
2023-11-07,0.40967494800178916,0.4034279731516064,-1.5248613274140177,5,True
2023-11-08,0.4034279731516064,0.4034279731516064,0.0,0,False
2023-11-09,0.4034279731516064,0.4089678808883606,1.3732086284141687,3,True
2023-11-10,0.4089678808883606,0.40811197863288506,-0.20928349033580984,6,True
2023-11-11,0.40811197863288506,0.40648861271569664,-0.39777463102809163,3,True
2023-11-12,0.40648861271569664,0.4119362928957851,1.3401802681982211,4,True
2023-11-13,0.4119362928957851,0.4090175522783193,-0.7085417497322055,3,True
2023-11-14,0.4090175522783193,0.4070545665265843,-0.4799270204422168,4,True
2023-11-15,0.4070545665265843,0.40647358249003285,-0.14272878486759621,1,True
2023-11-16,0.40647358249003285,0.40386444157592216,-0.6418967988343183,4,True
2023-11-17,0.40386444157592216,0.4027252702552406,-0.2820677443739372,3,True
2023-11-18,0.4027252702552406,0.3993067642039428,-0.8488431950473774,3,True
2023-11-19,0.3993067642039428,0.394825526716435,-1.1222543390772666,3,True
2023-11-20,0.394825526716435,0.3955083132258405,0.17293372976259214,1,True
2023-11-21,0.3955083132258405,0.38709774483485393,-2.1265212663643895,4,True
2023-11-22,0.38709774483485393,0.3856057974388476,-0.3854187775345519,5,True
2023-11-23,0.3856057974388476,0.3844418624457113,-0.3018458230833132,3,True
2023-11-24,0.3844418624457113,0.39089452679554826,1.678449976489782,1,True
2023-11-25,0.39089452679554826,0.38978426364783497,-0.2840313873962219,4,True
2023-11-26,0.38978426364783497,0.38998908216558725,0.05254663588403208,1,True
2023-11-27,0.38998908216558725,0.39045266478516927,0.1188706660729455,3,True
2023-11-28,0.39045266478516927,0.39120819505965543,0.19350111873404074,3,True
2023-11-29,0.39120819505965543,0.3912235858818299,0.003934176831887903,3,True
2023-11-30,0.3912235858818299,0.3897111081608964,-0.38660187563190895,0,True
2023-12-01,0.3897111081608964,0.3897111081608964,0.0,0,False
2023-12-02,0.3897111081608964,0.3897111081608964,0.0,0,False
2023-12-03,0.3897111081608964,0.39016500359899664,0.1164697204147691,1,True
2023-12-04,0.39016500359899664,0.3935488159754867,0.8672772660994088,5,True
2023-12-05,0.3935488159754867,0.3962217666831965,0.6791916527773889,4,True
2023-12-06,0.3962217666831965,0.39091628346866764,-1.339018615494414,5,True
2023-12-07,0.39091628346866764,0.3921269615037746,0.30970263616658666,4,True
2023-12-08,0.3921269615037746,0.3908079172590411,-0.3363819309121219,1,True
2023-12-09,0.3908079172590411,0.38964014227662025,-0.2988104720628826,0,True
2023-12-10,0.38964014227662025,0.38837366391856076,-0.32503795698759497,3,True
2023-12-11,0.38837366391856076,0.3890989968396555,0.1867616134874739,7,True
2023-12-12,0.3890989968396555,0.38832901540658227,-0.1978883110280827,0,True
2023-12-13,0.38832901540658227,0.38716396494814953,-0.30001632950680257,6,True
2023-12-14,0.38716396494814953,0.39187694031934106,1.2173073420773228,2,True
2023-12-15,0.39187694031934106,0.38975756483513857,-0.5408267918177057,3,True
2023-12-16,0.38975756483513857,0.3952798417345081,1.4168491897534663,4,True
2023-12-17,0.3952798417345081,0.39500678384598,-0.06907963920698146,2,True
2023-12-18,0.39500678384598,0.3939149325245579,-0.2764133088528964,7,True
2023-12-19,0.3939149325245579,0.3912794971715615,-0.6690366714727336,4,True
2023-12-20,0.3912794971715615,0.3885560360021191,-0.6960398357515496,2,True
2023-12-21,0.3885560360021191,0.38650503546510045,-0.5278519304761087,1,True
2023-12-22,0.38650503546510045,0.384577192455057,-0.498788588284127,1,True
2023-12-23,0.384577192455057,0.38446022757908566,-0.030413887839964016,1,True
2023-12-24,0.38446022757908566,0.3833419015264312,-0.2908821179492205,2,True
2023-12-25,0.3833419015264312,0.38245064242202403,-0.23249717833043748,2,True
2023-12-26,0.38245064242202403,0.3806369759133611,-0.4742223721150407,1,True
2023-12-27,0.3806369759133611,0.3757426866644924,-1.2858155036369112,11,True
2023-12-28,0.3757426866644924,0.3759822366270682,0.06375372590810002,1,True
2023-12-29,0.3759822366270682,0.37715786739253826,0.31268252883875913,2,True
2023-12-30,0.37715786739253826,0.37556601894258407,-0.42206423028090523,3,True
2023-12-31,0.37556601894258407,0.3742156990183945,-0.3595426252863354,2,True
