day,start_equity,end_equity,return_pct,entries,active
2024-01-02,1.0,1.0,0.0,0,False
2024-01-03,1.0,1.0101188661844145,1.0118866184414488,4,True
2024-01-04,1.0101188661844145,1.0120595486172979,0.19212416457619064,1,True
2024-01-05,1.0120595486172979,1.0120595486172979,0.0,0,False
2024-01-06,1.0120595486172979,1.0120595486172979,0.0,0,False
2024-01-07,1.0120595486172979,1.0120595486172979,0.0,0,False
2024-01-08,1.0120595486172979,1.0091602977803087,-0.2864703802212265,1,True
2024-01-09,1.0091602977803087,1.0091902037021978,0.002963446139814252,0,True
2024-01-10,1.0091902037021978,1.0082775905138457,-0.09043024644950215,1,True
2024-01-11,1.0082775905138457,1.0082775905138457,0.0,0,False
2024-01-12,1.0082775905138457,1.0082775905138457,0.0,0,False
2024-01-13,1.0082775905138457,1.0082775905138457,0.0,0,False
2024-01-14,1.0082775905138457,1.0082775905138457,0.0,0,False
2024-01-15,1.0082775905138457,1.0082775905138457,0.0,0,False
2024-01-16,1.0082775905138457,1.0082775905138457,0.0,0,False
2024-01-17,1.0082775905138457,1.0082775905138457,0.0,0,False
2024-01-18,1.0082775905138457,1.0082775905138457,0.0,0,False
2024-01-19,1.0082775905138457,1.0082775905138457,0.0,0,False
2024-01-20,1.0082775905138457,1.0082775905138457,0.0,0,False
2024-01-21,1.0082775905138457,1.0082775905138457,0.0,0,False
2024-01-22,1.0082775905138457,1.0082775905138457,0.0,0,False
2024-01-23,1.0082775905138457,0.9982409229106435,-0.9954270230370987,2,True
2024-01-24,0.9982409229106435,0.9982409229106435,0.0,0,False
2024-01-25,0.9982409229106435,0.9982409229106435,0.0,0,False
2024-01-26,0.9982409229106435,0.9982409229106435,0.0,0,False
2024-01-27,0.9982409229106435,0.9982409229106435,0.0,0,False
2024-01-28,0.9982409229106435,0.9950590910304824,-0.31874388307819856,2,True
2024-01-29,0.9950590910304824,0.9949829296073611,-0.007653959830911106,0,True
2024-01-30,0.9949829296073611,0.9949829296073611,0.0,0,False
2024-01-31,0.9949829296073611,0.9949829296073611,0.0,0,False
2024-02-01,0.9949829296073611,0.9949829296073611,0.0,0,False
2024-02-02,0.9949829296073611,0.9949829296073611,0.0,0,False
2024-02-03,0.9949829296073611,0.9949829296073611,0.0,0,False
2024-02-04,0.9949829296073611,0.9949829296073611,0.0,0,False
2024-02-05,0.9949829296073611,0.9949829296073611,0.0,0,False
2024-02-06,0.9949829296073611,0.9883077387511285,-0.6708849627065194,2,True
2024-02-07,0.9883077387511285,0.9850736421657599,-0.327235784822999,0,True
2024-02-08,0.9850736421657599,0.9850736421657599,0.0,0,False
2024-02-09,0.9850736421657599,0.9850736421657599,0.0,0,False
2024-02-10,0.9850736421657599,0.9850736421657599,0.0,0,False
2024-02-11,0.9850736421657599,0.9850736421657599,0.0,0,False
2024-02-12,0.9850736421657599,0.9850736421657599,0.0,0,False
2024-02-13,0.9850736421657599,0.9850736421657599,0.0,0,False
2024-02-14,0.9850736421657599,0.9850736421657599,0.0,0,False
2024-02-15,0.9850736421657599,1.0009395801763443,1.6106347110965258,1,True
2024-02-16,1.0009395801763443,0.9971388047535776,-0.3797207641741074,0,True
2024-02-17,0.9971388047535776,0.9971388047535776,0.0,0,False
2024-02-18,0.9971388047535776,0.9971388047535776,0.0,0,False
2024-02-19,0.9971388047535776,0.9971388047535776,0.0,0,False
2024-02-20,0.9971388047535776,0.9971388047535776,0.0,0,False
2024-02-21,0.9971388047535776,1.0124132447368475,1.531826854040097,5,True
2024-02-22,1.0124132447368475,1.026710858703866,1.4122310273345873,1,True
2024-02-23,1.026710858703866,1.0270172467980152,0.02984171167099703,0,True
2024-02-24,1.0270172467980152,1.0270172467980152,0.0,0,False
2024-02-25,1.0270172467980152,1.0270172467980152,0.0,0,False
2024-02-26,1.0270172467980152,1.0258555854012645,-0.11311021313151759,1,True
2024-02-27,1.0258555854012645,1.0247781546713635,-0.10502752485181954,1,True
2024-02-28,1.0247781546713635,1.0247781546713635,0.0,0,False
2024-02-29,1.0247781546713635,1.0328300886362969,0.7857245910472876,2,True
2024-03-01,1.0328300886362969,1.0328300886362969,0.0,0,False
2024-03-02,1.0328300886362969,1.0328300886362969,0.0,0,False
2024-03-03,1.0328300886362969,1.049194181779272,1.5843935341370186,4,True
2024-03-04,1.049194181779272,1.0521848377153291,0.28504313005104365,0,True
2024-03-05,1.0521848377153291,1.0519117262584283,-0.02595660449676851,1,True
2024-03-06,1.0519117262584283,1.059413971468133,0.7132010246134968,1,True
2024-03-07,1.059413971468133,1.0572693847674148,-0.20243141571431034,2,True
2024-03-08,1.0572693847674148,1.0582287386608884,0.09073883224988144,0,True
2024-03-09,1.0582287386608884,1.0582287386608884,0.0,0,False
2024-03-10,1.0582287386608884,1.0582287386608884,0.0,0,False
2024-03-11,1.0582287386608884,1.0582287386608884,0.0,0,False
2024-03-12,1.0582287386608884,1.068334241812539,0.9549450683449034,1,True
2024-03-13,1.068334241812539,1.068334241812539,0.0,0,False
2024-03-14,1.068334241812539,1.068334241812539,0.0,0,False
2024-03-15,1.068334241812539,1.068334241812539,0.0,0,False
2024-03-16,1.068334241812539,1.068334241812539,0.0,0,False
2024-03-17,1.068334241812539,1.0655968854241766,-0.2562265891354554,1,True
2024-03-18,1.0655968854241766,1.0649632694854805,-0.05946112900320211,1,True
2024-03-19,1.0649632694854805,1.0557802436156742,-0.8622856893686914,1,True
2024-03-20,1.0557802436156742,1.0557802436156742,0.0,0,False
2024-03-21,1.0557802436156742,1.045262727395973,-0.9961842233079277,2,True
2024-03-22,1.045262727395973,1.045262727395973,0.0,0,False
2024-03-23,1.045262727395973,1.046715380521014,0.13897492821350887,1,True
2024-03-24,1.046715380521014,1.046715380521014,0.0,0,False
2024-03-25,1.046715380521014,1.046715380521014,0.0,0,False
2024-03-26,1.046715380521014,1.0505156071656274,0.36306208118597194,1,True
2024-03-27,1.0505156071656274,1.0490743650486847,-0.13719378437710983,2,True
2024-03-28,1.0490743650486847,1.0490743650486847,0.0,0,False
2024-03-29,1.0490743650486847,1.0438360020762993,-0.49933190123678806,1,True
2024-03-30,1.0438360020762993,1.0438360020762993,0.0,0,False
2024-03-31,1.0438360020762993,1.0438360020762993,0.0,0,False
2024-04-01,1.0438360020762993,1.0438360020762993,0.0,0,False
2024-04-02,1.0438360020762993,1.0438360020762993,0.0,0,False
2024-04-03,1.0438360020762993,1.0438360020762993,0.0,0,False
2024-04-04,1.0438360020762993,1.0438360020762993,0.0,0,False
2024-04-05,1.0438360020762993,1.043096504888243,-0.07084419263039266,2,True
2024-04-06,1.043096504888243,1.0412382811381482,-0.17814495028855015,0,True
2024-04-07,1.0412382811381482,1.0444000695943376,0.30365657059143736,1,True
2024-04-08,1.0444000695943376,1.0436932458952466,-0.067677484870865,0,True
2024-04-09,1.0436932458952466,1.0413228847125962,-0.22711282189215032,1,True
2024-04-10,1.0413228847125962,1.0332922806550366,-0.7711925067099612,1,True
2024-04-11,1.0332922806550366,1.0332922806550366,0.0,0,False
2024-04-12,1.0332922806550366,1.0366791039057794,0.3277701105630859,1,True
2024-04-13,1.0366791039057794,1.0115316368569787,-2.4257715771501043,8,True
2024-04-14,1.0115316368569787,0.9912291571176278,-2.0071027933871166,5,True
2024-04-15,0.9912291571176278,0.9931539445461885,0.1941818816304508,1,True
2024-04-16,0.9931539445461885,0.9862751309577983,-0.69262309495568,0,True
2024-04-17,0.9862751309577983,0.9836261312653469,-0.268586280775307,1,True
2024-04-18,0.9836261312653469,0.9838435289777372,0.022101660933970813,0,True
2024-04-19,0.9838435289777372,0.9838435289777372,0.0,0,False
2024-04-20,0.9838435289777372,0.9838435289777372,0.0,0,False
2024-04-21,0.9838435289777372,0.9838435289777372,0.0,0,False
2024-04-22,0.9838435289777372,0.9838435289777372,0.0,0,False
2024-04-23,0.9838435289777372,0.9838435289777372,0.0,0,False
2024-04-24,0.9838435289777372,0.9838435289777372,0.0,0,False
2024-04-25,0.9838435289777372,0.9910561169368789,0.733103155807302,1,True
2024-04-26,0.9910561169368789,0.9789246198579952,-1.2240978963309668,0,True
2024-04-27,0.9789246198579952,0.9740338773079957,-0.49960359059197934,1,True
2024-04-28,0.9740338773079957,0.9740338773079957,0.0,0,False
2024-04-29,0.9740338773079957,0.9846759400649697,1.0925762445127774,1,True
2024-04-30,0.9846759400649697,0.9850404819580454,0.03702150913240665,0,True
2024-05-01,0.9850404819580454,0.9850404819580454,0.0,0,False
2024-05-02,0.9850404819580454,0.9850404819580454,0.0,0,False
2024-05-03,0.9850404819580454,0.9850404819580454,0.0,0,False
2024-05-04,0.9850404819580454,0.9850404819580454,0.0,0,False
2024-05-05,0.9850404819580454,0.9850404819580454,0.0,0,False
2024-05-06,0.9850404819580454,0.9850404819580454,0.0,0,False
2024-05-07,0.9850404819580454,0.982350652822522,-0.2730678773908424,1,True
2024-05-08,0.982350652822522,0.9823575719302086,0.0007043419441687959,0,True
2024-05-09,0.9823575719302086,0.9796991206932741,-0.27061950891373865,1,True
2024-05-10,0.9796991206932741,0.9796991206932741,0.0,0,False
2024-05-11,0.9796991206932741,0.9800467801194718,0.035486346660351664,1,True
2024-05-12,0.9800467801194718,0.9748062246480731,-0.534725033305028,0,True
2024-05-13,0.9748062246480731,0.9714485852269674,-0.34444172966969777,1,True
2024-05-14,0.9714485852269674,0.9714485852269674,0.0,0,False
2024-05-15,0.9714485852269674,0.9714485852269674,0.0,0,False
2024-05-16,0.9714485852269674,0.9714485852269674,0.0,0,False
2024-05-17,0.9714485852269674,0.9714485852269674,0.0,0,False
2024-05-18,0.9714485852269674,0.9714485852269674,0.0,0,False
2024-05-19,0.9714485852269674,0.9714485852269674,0.0,0,False
2024-05-20,0.9714485852269674,0.9714485852269674,0.0,0,False
2024-05-21,0.9714485852269674,0.9714485852269674,0.0,0,False
2024-05-22,0.9714485852269674,0.9714485852269674,0.0,0,False
2024-05-23,0.9714485852269674,0.980416847291459,0.9231844279639523,1,True
2024-05-24,0.980416847291459,0.9833780894348303,0.30203909199970624,1,True
2024-05-25,0.9833780894348303,0.9833780894348303,0.0,0,False
2024-05-26,0.9833780894348303,0.9833780894348303,0.0,0,False
2024-05-27,0.9833780894348303,0.9833780894348303,0.0,0,False
2024-05-28,0.9833780894348303,0.9833780894348303,0.0,0,False
2024-05-29,0.9833780894348303,0.9833780894348303,0.0,0,False
2024-05-30,0.9833780894348303,0.9833780894348303,0.0,0,False
2024-05-31,0.9833780894348303,0.9833780894348303,0.0,0,False
2024-06-01,0.9833780894348303,0.9833780894348303,0.0,0,False
2024-06-02,0.9833780894348303,0.9833780894348303,0.0,0,False
2024-06-03,0.9833780894348303,0.9749895532060439,-0.8530326553856327,3,True
2024-06-04,0.9749895532060439,0.9761289235630776,0.11685975026984874,1,True
2024-06-05,0.9761289235630776,0.9761289235630776,0.0,0,False
2024-06-06,0.9761289235630776,0.971254593921592,-0.49935305919358575,1,True
2024-06-07,0.971254593921592,0.971254593921592,0.0,0,False
2024-06-08,0.971254593921592,1.002720758924676,3.23974426478999,5,True
2024-06-09,1.002720758924676,1.002720758924676,0.0,0,False
2024-06-10,1.002720758924676,1.002720758924676,0.0,0,False
2024-06-11,1.002720758924676,1.002720758924676,0.0,0,False
2024-06-12,1.002720758924676,1.002720758924676,0.0,0,False
2024-06-13,1.002720758924676,0.9955048650384432,-0.7196314449469776,2,True
2024-06-14,0.9955048650384432,0.9905352417869747,-0.49920632495116246,1,True
2024-06-15,0.9905352417869747,1.0003991563871983,0.9958166235891408,1,True
2024-06-16,1.0003991563871983,1.0003991563871983,0.0,0,False
2024-06-17,1.0003991563871983,1.0003991563871983,0.0,0,False
2024-06-18,1.0003991563871983,1.00823574697141,0.783346380709915,4,True
2024-06-19,1.00823574697141,1.00823574697141,0.0,0,False
2024-06-20,1.00823574697141,1.00823574697141,0.0,0,False
2024-06-21,1.00823574697141,1.00823574697141,0.0,0,False
2024-06-22,1.00823574697141,1.00823574697141,0.0,0,False
2024-06-23,1.00823574697141,1.0157719785611636,0.7474672081793754,1,True
2024-06-24,1.0157719785611636,1.0162001302942982,0.04215037844823577,1,True
2024-06-25,1.0162001302942982,1.0271011036364488,1.0727191443080875,0,True
2024-06-26,1.0271011036364488,1.0271011036364488,0.0,0,False
2024-06-27,1.0271011036364488,1.02751755321716,0.040546113643236126,1,True
2024-06-28,1.02751755321716,1.021966577726685,-0.540231694640636,0,True
2024-06-29,1.021966577726685,1.0117906406367394,-0.9957211235402164,2,True
2024-06-30,1.0117906406367394,1.0117906406367394,0.0,0,False
2024-07-01,1.0117906406367394,1.0117906406367394,0.0,0,False
2024-07-02,1.0117906406367394,1.0117906406367394,0.0,0,False
2024-07-03,1.0117906406367394,1.0117906406367394,0.0,0,False
2024-07-04,1.0117906406367394,1.0117906406367394,0.0,0,False
2024-07-05,1.0117906406367394,1.0317903935302861,1.9766690944047927,5,True
2024-07-06,1.0317903935302861,1.0317903935302861,0.0,0,False
2024-07-07,1.0317903935302861,1.0293422295945156,-0.23727337946946037,1,True
2024-07-08,1.0293422295945156,1.0266314415626348,-0.263351483495311,0,True
2024-07-09,1.0266314415626348,1.0266314415626348,0.0,0,False
2024-07-10,1.0266314415626348,1.0266314415626348,0.0,0,False
2024-07-11,1.0266314415626348,1.0266314415626348,0.0,0,False
2024-07-12,1.0266314415626348,1.0266314415626348,0.0,0,False
2024-07-13,1.0266314415626348,1.0266314415626348,0.0,0,False
2024-07-14,1.0266314415626348,1.0266314415626348,0.0,0,False
2024-07-15,1.0266314415626348,1.0266314415626348,0.0,0,False
2024-07-16,1.0266314415626348,1.0215011134762848,-0.49972442676614603,1,True
2024-07-17,1.0215011134762848,1.0164010094282663,-0.4992754271860078,1,True
2024-07-18,1.0164010094282663,1.0164010094282663,0.0,0,False
2024-07-19,1.0164010094282663,1.0164010094282663,0.0,0,False
2024-07-20,1.0164010094282663,1.0178593984256328,0.14348559120251902,1,True
2024-07-21,1.0178593984256328,1.0178593984256328,0.0,0,False
2024-07-22,1.0178593984256328,1.0178593984256328,0.0,0,False
2024-07-23,1.0178593984256328,1.01277162656643,-0.49985016271130167,1,True
2024-07-24,1.01277162656643,1.01277162656643,0.0,0,False
2024-07-25,1.01277162656643,1.01277162656643,0.0,0,False
2024-07-26,1.01277162656643,1.01277162656643,0.0,0,False
2024-07-27,1.01277162656643,1.01277162656643,0.0,0,False
2024-07-28,1.01277162656643,1.01277162656643,0.0,0,False
2024-07-29,1.01277162656643,1.01277162656643,0.0,0,False
2024-07-30,1.01277162656643,1.01277162656643,0.0,0,False
2024-07-31,1.01277162656643,1.0077154037324134,-0.4992460986647629,1,True
2024-08-01,1.0077154037324134,1.0077154037324134,0.0,0,False
2024-08-02,1.0077154037324134,1.0077154037324134,0.0,0,False
2024-08-03,1.0077154037324134,1.0026854661075866,-0.49914267522326305,1,True
2024-08-04,1.0026854661075866,1.0026854661075866,0.0,0,False
2024-08-05,1.0026854661075866,0.9826634828667369,-1.9968358889826954,4,True
2024-08-06,0.9826634828667369,0.9826634828667369,0.0,0,False
2024-08-07,0.9826634828667369,0.9826634828667369,0.0,0,False
2024-08-08,0.9826634828667369,0.9826634828667369,0.0,0,False
2024-08-09,0.9826634828667369,0.9826634828667369,0.0,0,False
2024-08-10,0.9826634828667369,0.9826634828667369,0.0,0,False
2024-08-11,0.9826634828667369,0.9826634828667369,0.0,0,False
2024-08-12,0.9826634828667369,0.9826634828667369,0.0,0,False
2024-08-13,0.9826634828667369,0.9826634828667369,0.0,0,False
2024-08-14,0.9826634828667369,0.9826634828667369,0.0,0,False
2024-08-15,0.9826634828667369,0.9826634828667369,0.0,0,False
2024-08-16,0.9826634828667369,0.9826634828667369,0.0,0,False
2024-08-17,0.9826634828667369,0.9826634828667369,0.0,0,False
2024-08-18,0.9826634828667369,0.9826634828667369,0.0,0,False
2024-08-19,0.9826634828667369,0.9826634828667369,0.0,0,False
2024-08-20,0.9826634828667369,0.9826634828667369,0.0,0,False
2024-08-21,0.9826634828667369,0.9826634828667369,0.0,0,False
2024-08-22,0.9826634828667369,0.9826634828667369,0.0,0,False
2024-08-23,0.9826634828667369,0.9826634828667369,0.0,0,False
2024-08-24,0.9826634828667369,0.9826634828667369,0.0,0,False
2024-08-25,0.9826634828667369,0.9826634828667369,0.0,0,False
2024-08-26,0.9826634828667369,0.9826634828667369,0.0,0,False
2024-08-27,0.9826634828667369,0.9826634828667369,0.0,0,False
2024-08-28,0.9826634828667369,0.9826634828667369,0.0,0,False
2024-08-29,0.9826634828667369,0.9777599499494627,-0.4990042881179435,1,True
2024-08-30,0.9777599499494627,0.9777599499494627,0.0,0,False
2024-08-31,0.9777599499494627,0.9777599499494627,0.0,0,False
2024-09-01,0.9777599499494627,0.972888289968613,-0.49824703712822993,1,True
2024-09-02,0.972888289968613,0.972888289968613,0.0,0,False
2024-09-03,0.972888289968613,0.972888289968613,0.0,0,False
2024-09-04,0.972888289968613,0.972888289968613,0.0,0,False
2024-09-05,0.972888289968613,0.972888289968613,0.0,0,False
2024-09-06,0.972888289968613,0.972888289968613,0.0,0,False
2024-09-07,0.972888289968613,0.972888289968613,0.0,0,False
2024-09-08,0.972888289968613,0.972888289968613,0.0,0,False
2024-09-09,0.972888289968613,0.972888289968613,0.0,0,False
2024-09-10,0.972888289968613,0.972888289968613,0.0,0,False
2024-09-11,0.972888289968613,0.972888289968613,0.0,0,False
2024-09-12,0.972888289968613,0.972888289968613,0.0,0,False
2024-09-13,0.972888289968613,0.972888289968613,0.0,0,False
2024-09-14,0.972888289968613,0.972888289968613,0.0,0,False
2024-09-15,0.972888289968613,0.972888289968613,0.0,0,False
2024-09-16,0.972888289968613,0.972888289968613,0.0,0,False
2024-09-17,0.972888289968613,0.972888289968613,0.0,0,False
2024-09-18,0.972888289968613,0.972888289968613,0.0,0,False
2024-09-19,0.972888289968613,0.9724149135375856,-0.04865681249413001,1,True
2024-09-20,0.9724149135375856,0.9750730073385149,0.2733497567678489,1,True
2024-09-21,0.9750730073385149,0.9665565851296489,-0.8734138002765235,1,True
2024-09-22,0.9665565851296489,0.9772040224509311,1.1015844788697882,1,True
2024-09-23,0.9772040224509311,0.9769902621698805,-0.021874682884992502,0,True
2024-09-24,0.9769902621698805,0.9769902621698805,0.0,0,False
2024-09-25,0.9769902621698805,0.9769902621698805,0.0,0,False
2024-09-26,0.9769902621698805,0.9769902621698805,0.0,0,False
2024-09-27,0.9769902621698805,0.9769902621698805,0.0,0,False
2024-09-28,0.9769902621698805,0.9769902621698805,0.0,0,False
2024-09-29,0.9769902621698805,0.9769902621698805,0.0,0,False
2024-09-30,0.9769902621698805,0.9769902621698805,0.0,0,False
2024-10-01,0.9769902621698805,0.9769902621698805,0.0,0,False
2024-10-02,0.9769902621698805,0.9769902621698805,0.0,0,False
2024-10-03,0.9769902621698805,0.9830026110575688,0.6153949655890001,1,True
2024-10-04,0.9830026110575688,0.9857145197578858,0.2758801115898768,0,True
2024-10-05,0.9857145197578858,0.9857145197578858,0.0,0,False
2024-10-06,0.9857145197578858,0.9857145197578858,0.0,0,False
2024-10-07,0.9857145197578858,0.9857145197578858,0.0,0,False
2024-10-08,0.9857145197578858,0.9857145197578858,0.0,0,False
2024-10-09,0.9857145197578858,0.9857145197578858,0.0,0,False
2024-10-10,0.9857145197578858,0.9857145197578858,0.0,0,False
2024-10-11,0.9857145197578858,0.9847472091272218,-0.09813293923088828,1,True
2024-10-12,0.9847472091272218,0.9854543553761711,0.07180992668931463,0,True
2024-10-13,0.9854543553761711,0.9854543553761711,0.0,0,False
2024-10-14,0.9854543553761711,0.9854543553761711,0.0,0,False
2024-10-15,0.9854543553761711,0.9854543553761711,0.0,0,False
2024-10-16,0.9854543553761711,0.9854543553761711,0.0,0,False
2024-10-17,0.9854543553761711,0.9854543553761711,0.0,0,False
2024-10-18,0.9854543553761711,0.9859820590342812,0.05354927452816405,1,True
2024-10-19,0.9859820590342812,0.9821755839678731,-0.3860592625931081,1,True
2024-10-20,0.9821755839678731,0.9821755839678731,0.0,0,False
2024-10-21,0.9821755839678731,0.9920208485831233,1.0023935410282236,1,True
2024-10-22,0.9920208485831233,0.9920208485831233,0.0,0,False
2024-10-23,0.9920208485831233,0.9870673857980138,-0.4993305122754643,1,True
2024-10-24,0.9870673857980138,0.9821390244216371,-0.4992933053291182,1,True
2024-10-25,0.9821390244216371,0.984957948644864,0.28701885915660696,1,True
2024-10-26,0.984957948644864,0.9949536091452296,1.0148311929578213,2,True
2024-10-27,0.9949536091452296,0.9949536091452296,0.0,0,False
2024-10-28,0.9949536091452296,0.9949536091452296,0.0,0,False
2024-10-29,0.9949536091452296,0.9949536091452296,0.0,0,False
2024-10-30,0.9949536091452296,0.9949536091452296,0.0,0,False
2024-10-31,0.9949536091452296,0.9949536091452296,0.0,0,False
2024-11-01,0.9949536091452296,0.9949536091452296,0.0,0,False
2024-11-02,0.9949536091452296,0.9949536091452296,0.0,0,False
2024-11-03,0.9949536091452296,0.9949536091452296,0.0,0,False
2024-11-04,0.9949536091452296,0.9949536091452296,0.0,0,False
2024-11-05,0.9949536091452296,0.9949536091452296,0.0,0,False
2024-11-06,0.9949536091452296,0.9949536091452296,0.0,0,False
2024-11-07,0.9949536091452296,0.9949536091452296,0.0,0,False
2024-11-08,0.9949536091452296,0.9949536091452296,0.0,0,False
2024-11-09,0.9949536091452296,0.9933898769190276,-0.15716634542844998,1,True
2024-11-10,0.9933898769190276,0.9959797023635826,0.26070584216011383,0,True
2024-11-11,0.9959797023635826,0.9950370741765732,-0.09464331298845163,1,True
2024-11-12,0.9950370741765732,0.9962713841405588,0.12404663062499655,0,True
2024-11-13,0.9962713841405588,0.9962713841405588,0.0,0,False
2024-11-14,0.9962713841405588,0.9962713841405588,0.0,0,False
2024-11-15,0.9962713841405588,0.9962713841405588,0.0,0,False
2024-11-16,0.9962713841405588,0.9962713841405588,0.0,0,False
2024-11-17,0.9962713841405588,0.9962713841405588,0.0,0,False
2024-11-18,0.9962713841405588,0.9962713841405588,0.0,0,False
2024-11-19,0.9962713841405588,0.9962713841405588,0.0,0,False
2024-11-20,0.9962713841405588,0.9962713841405588,0.0,0,False
2024-11-21,0.9962713841405588,0.9962713841405588,0.0,0,False
2024-11-22,0.9962713841405588,0.9962713841405588,0.0,0,False
2024-11-23,0.9962713841405588,0.9999198147394477,0.36620851074993244,1,True
2024-11-24,0.9999198147394477,1.0125359165805936,1.2617113547683134,4,True
2024-11-25,1.0125359165805936,1.0126307088257802,0.00936186496047764,1,True
2024-11-26,1.0126307088257802,1.0126307088257802,0.0,0,False
2024-11-27,1.0126307088257802,1.0126307088257802,0.0,0,False
2024-11-28,1.0126307088257802,1.0126307088257802,0.0,0,False
2024-11-29,1.0126307088257802,1.0126307088257802,0.0,0,False
2024-11-30,1.0126307088257802,1.0126307088257802,0.0,0,False
2024-12-01,1.0126307088257802,1.0126307088257802,0.0,0,False
2024-12-02,1.0126307088257802,1.0126307088257802,0.0,0,False
2024-12-03,1.0126307088257802,1.0126307088257802,0.0,0,False
2024-12-04,1.0126307088257802,1.0126307088257802,0.0,0,False
2024-12-05,1.0126307088257802,1.0168402148889446,0.4157000203999006,1,True
2024-12-06,1.0168402148889446,1.0168402148889446,0.0,0,False
2024-12-07,1.0168402148889446,1.0168402148889446,0.0,0,False
2024-12-08,1.0168402148889446,1.0168402148889446,0.0,0,False
2024-12-09,1.0168402148889446,1.0117568801220171,-0.49991480396776034,1,True
2024-12-10,1.0117568801220171,1.0117568801220171,0.0,0,False
2024-12-11,1.0117568801220171,1.0117568801220171,0.0,0,False
2024-12-12,1.0117568801220171,1.0117568801220171,0.0,0,False
2024-12-13,1.0117568801220171,1.0117568801220171,0.0,0,False
2024-12-14,1.0117568801220171,1.0117568801220171,0.0,0,False
2024-12-15,1.0117568801220171,1.0054781299904587,-0.6205789409409523,2,True
2024-12-16,1.0054781299904587,1.001678331046318,-0.3779096561927986,0,True
2024-12-17,1.001678331046318,1.001678331046318,0.0,0,False
2024-12-18,1.001678331046318,1.001678331046318,0.0,0,False
2024-12-19,1.001678331046318,1.001678331046318,0.0,0,False
2024-12-20,1.001678331046318,0.996990159338416,-0.4680316587266975,2,True
2024-12-21,0.996990159338416,0.996990159338416,0.0,0,False
2024-12-22,0.996990159338416,0.996990159338416,0.0,0,False
2024-12-23,0.996990159338416,0.996990159338416,0.0,0,False
2024-12-24,0.996990159338416,0.996990159338416,0.0,0,False
2024-12-25,0.996990159338416,1.0040382695108026,0.7069387903551272,1,True
2024-12-26,1.0040382695108026,1.0038596705375011,-0.01778806433229141,0,True
2024-12-27,1.0038596705375011,1.0038596705375011,0.0,0,False
2024-12-28,1.0038596705375011,1.0038596705375011,0.0,0,False
2024-12-29,1.0038596705375011,1.0038596705375011,0.0,0,False
2024-12-30,1.0038596705375011,1.0038596705375011,0.0,0,False
2024-12-31,1.0038596705375011,1.0038596705375011,0.0,0,False
