day,start_equity,end_equity,return_pct,entries,active
2024-01-02,1.0099946652896052,1.017858602935343,0.7786118002398368,0,True
2024-01-03,1.017858602935343,1.0382933927990554,2.0076255979742053,4,True
2024-01-04,1.0382933927990554,1.0391526424825444,0.08275596179732059,2,True
2024-01-05,1.0391526424825444,1.0391526424825444,0.0,0,False
2024-01-06,1.0391526424825444,1.0551368669443357,1.5381979324620598,3,True
2024-01-07,1.0551368669443357,1.0840002515071372,2.735510952848186,2,True
2024-01-08,1.0840002515071372,1.0699173820377015,-1.2991573987049976,5,True
2024-01-09,1.0699173820377015,1.0703851057432827,0.043715871284422114,1,True
2024-01-10,1.0703851057432827,1.0529905719048656,-1.625072485134993,4,True
2024-01-11,1.0529905719048656,1.0529905719048656,0.0,0,False
2024-01-12,1.0529905719048656,1.072964482641721,1.8968746036085227,1,True
2024-01-13,1.072964482641721,1.0701298025901032,-0.26419141523107426,0,True
2024-01-14,1.0701298025901032,1.064781078806372,-0.49982009386012605,1,True
2024-01-15,1.064781078806372,1.070377621155396,0.5256049774379656,1,True
2024-01-16,1.070377621155396,1.070377621155396,0.0,0,False
2024-01-17,1.070377621155396,1.070377621155396,0.0,0,False
2024-01-18,1.070377621155396,1.0650284342271557,-0.49974764256246473,1,True
2024-01-19,1.0650284342271557,1.0650284342271557,0.0,0,False
2024-01-20,1.0650284342271557,1.0650284342271557,0.0,0,False
2024-01-21,1.0650284342271557,1.0650284342271557,0.0,0,False
2024-01-22,1.0650284342271557,1.0650284342271557,0.0,0,False
2024-01-23,1.0650284342271557,1.058860613404039,-0.5791226435745145,3,True
2024-01-24,1.058860613404039,1.057290624640781,-0.14827152350211925,0,True
2024-01-25,1.057290624640781,1.052008596687481,-0.4995814613502736,1,True
2024-01-26,1.052008596687481,1.052008596687481,0.0,0,False
2024-01-27,1.052008596687481,1.052008596687481,0.0,0,False
2024-01-28,1.052008596687481,1.0471013315884656,-0.4664662545978415,2,True
2024-01-29,1.0471013315884656,1.0469838712570823,-0.0112176661264618,0,True
2024-01-30,1.0469838712570823,1.0469838712570823,0.0,0,False
2024-01-31,1.0469838712570823,1.0469838712570823,0.0,0,False
2024-02-01,1.0469838712570823,1.0469838712570823,0.0,0,False
2024-02-02,1.0469838712570823,1.0480070033046982,0.09772185376528686,1,True
2024-02-03,1.0480070033046982,1.0466098075931383,-0.1333193105727437,0,True
2024-02-04,1.0466098075931383,1.0466098075931383,0.0,0,False
2024-02-05,1.0466098075931383,1.0466098075931383,0.0,0,False
2024-02-06,1.0466098075931383,1.0387445320084676,-0.7515002752322975,2,True
2024-02-07,1.0387445320084676,1.0310175798650683,-0.7438741582070141,1,True
2024-02-08,1.0310175798650683,1.0310175798650683,0.0,0,False
2024-02-09,1.0310175798650683,1.0310175798650683,0.0,0,False
2024-02-10,1.0310175798650683,1.0310175798650683,0.0,0,False
2024-02-11,1.0310175798650683,1.0310175798650683,0.0,0,False
2024-02-12,1.0310175798650683,1.0310175798650683,0.0,0,False
2024-02-13,1.0310175798650683,1.0310175798650683,0.0,0,False
2024-02-14,1.0310175798650683,1.0310175798650683,0.0,0,False
2024-02-15,1.0310175798650683,1.058501151294839,2.66567437515155,2,True
2024-02-16,1.058501151294839,1.0526527403580264,-0.5525181460273698,1,True
2024-02-17,1.0526527403580264,1.0526527403580264,0.0,0,False
2024-02-18,1.0526527403580264,1.0526527403580264,0.0,0,False
2024-02-19,1.0526527403580264,1.0526527403580264,0.0,0,False
2024-02-20,1.0526527403580264,1.0473962599276068,-0.49935560217434505,1,True
2024-02-21,1.0473962599276068,1.070841909457162,2.2384698539190673,5,True
2024-02-22,1.070841909457162,1.0857367138111336,1.3909433523686232,1,True
2024-02-23,1.0857367138111336,1.0774163644899235,-0.7663321333220896,2,True
2024-02-24,1.0774163644899235,1.0753684201454345,-0.1900791942638147,0,True
2024-02-25,1.0753684201454345,1.0753684201454345,0.0,0,False
2024-02-26,1.0753684201454345,1.0785848839472014,0.2991034273939208,2,True
2024-02-27,1.0785848839472014,1.0853145125327515,0.6239312905000238,2,True
2024-02-28,1.0853145125327515,1.072933344576936,-1.1407907857900135,1,True
2024-02-29,1.072933344576936,1.0952993986086208,2.0845706906894357,6,True
2024-03-01,1.0952993986086208,1.0947181782668765,-0.05306497405939137,2,True
2024-03-02,1.0947181782668765,1.0855187707387468,-0.8403448221435239,2,True
2024-03-03,1.0855187707387468,1.1106169260539602,2.31208856002858,4,True
2024-03-04,1.1106169260539602,1.1152091696038122,0.41348582415074997,0,True
2024-03-05,1.1152091696038122,1.11014211285546,-0.4543593154055836,2,True
2024-03-06,1.11014211285546,1.1451009016454503,3.149037261551202,9,True
2024-03-07,1.1451009016454503,1.131900639570369,-1.1527597311392523,5,True
2024-03-08,1.131900639570369,1.134932568264941,0.2678617352599666,1,True
2024-03-09,1.134932568264941,1.1330410005331024,-0.16666785188218514,2,True
2024-03-10,1.1330410005331024,1.1364682334223317,0.3024809241339632,1,True
2024-03-11,1.1364682334223317,1.1361270456066495,-0.030021764414378538,1,True
2024-03-12,1.1361270456066495,1.157318476757172,1.8652342827739865,2,True
2024-03-13,1.157318476757172,1.1478546832271241,-0.8177345925181823,0,True
2024-03-14,1.1478546832271241,1.1478546832271241,0.0,0,False
2024-03-15,1.1478546832271241,1.142119535932255,-0.49964053626938565,1,True
2024-03-16,1.142119535932255,1.1364187524698122,-0.49914070139684963,1,True
2024-03-17,1.1364187524698122,1.1307457795332814,-0.499197406255536,1,True
2024-03-18,1.1307457795332814,1.1284985285624578,-0.19874060213173061,1,True
2024-03-19,1.1284985285624578,1.113895861175156,-1.2939908221150764,2,True
2024-03-20,1.113895861175156,1.1132761659787638,-0.05563313573482276,1,True
2024-03-21,1.1132761659787638,1.1256523713737496,1.1116922982093103,3,True
2024-03-22,1.1256523713737496,1.1308737961229967,0.46385765996963535,2,True
2024-03-23,1.1308737961229967,1.126206677161833,-0.41270024799973104,1,True
2024-03-24,1.126206677161833,1.1220704103214223,-0.36727422455304914,2,True
2024-03-25,1.1220704103214223,1.1232792538170202,0.10773330126865321,0,True
2024-03-26,1.1232792538170202,1.1292513645890447,0.5316675040272223,1,True
2024-03-27,1.1292513645890447,1.1239884921302443,-0.46604968776953193,3,True
2024-03-28,1.1239884921302443,1.1239884921302443,0.0,0,False
2024-03-29,1.1239884921302443,1.1128012026538023,-0.9953206420502791,2,True
2024-03-30,1.1128012026538023,1.1128012026538023,0.0,0,False
2024-03-31,1.1128012026538023,1.1128012026538023,0.0,0,False
2024-04-01,1.1128012026538023,1.1056309211059268,-0.6443452371165614,2,True
2024-04-02,1.1056309211059268,1.1072643221304792,0.14773474523654961,2,True
2024-04-03,1.1072643221304792,1.1044630218598455,-0.2529929136742881,1,True
2024-04-04,1.1044630218598455,1.101731288743055,-0.24733586029800358,0,True
2024-04-05,1.101731288743055,1.1005878922148076,-0.10378179688006473,2,True
2024-04-06,1.1005878922148076,1.0958054172032934,-0.43453821774197543,0,True
2024-04-07,1.0958054172032934,1.0976814185646202,0.17119840182162616,2,True
2024-04-08,1.0976814185646202,1.0957963627248182,-0.17173068687516002,0,True
2024-04-09,1.0957963627248182,1.090326576769484,-0.49916080591222434,1,True
2024-04-10,1.090326576769484,1.084889952837462,-0.49862344437481276,1,True
2024-04-11,1.084889952837462,1.084889952837462,0.0,0,False
2024-04-12,1.084889952837462,1.0794783290673167,-0.4988177608237221,1,True
2024-04-13,1.0794783290673167,1.0867187629863364,0.6707345320471125,9,True
2024-04-14,1.0867187629863364,1.0600456820106399,-2.454460333637576,8,True
2024-04-15,1.0600456820106399,1.0643243018182797,0.40362598331842303,1,True
2024-04-16,1.0643243018182797,1.0618832781527494,-0.2293496128351169,0,True
2024-04-17,1.0618832781527494,1.0565826880250053,-0.4991688104331926,1,True
2024-04-18,1.0565826880250053,1.0565826880250053,0.0,0,False
2024-04-19,1.0565826880250053,1.0565826880250053,0.0,0,False
2024-04-20,1.0565826880250053,1.0565826880250053,0.0,0,False
2024-04-21,1.0565826880250053,1.0565826880250053,0.0,0,False
2024-04-22,1.0565826880250053,1.0565826880250053,0.0,0,False
2024-04-23,1.0565826880250053,1.0513058941333406,-0.4994208168911274,1,True
2024-04-24,1.0513058941333406,1.0513058941333406,0.0,0,False
2024-04-25,1.0513058941333406,1.0516777177421526,0.03536778504589222,2,True
2024-04-26,1.0516777177421526,1.0434428754294325,-0.7830195670969875,0,True
2024-04-27,1.0434428754294325,1.040838874971909,-0.24955850663619383,1,True
2024-04-28,1.040838874971909,1.040838874971909,0.0,0,False
2024-04-29,1.040838874971909,1.0491493428261414,0.7984394178644161,1,True
2024-04-30,1.0491493428261414,1.0494340163667049,0.02713374816560865,0,True
2024-05-01,1.0494340163667049,1.0494340163667049,0.0,0,False
2024-05-02,1.0494340163667049,1.0494340163667049,0.0,0,False
2024-05-03,1.0494340163667049,1.0494340163667049,0.0,0,False
2024-05-04,1.0494340163667049,1.0494340163667049,0.0,0,False
2024-05-05,1.0494340163667049,1.0494340163667049,0.0,0,False
2024-05-06,1.0494340163667049,1.0494340163667049,0.0,0,False
2024-05-07,1.0494340163667049,1.0468143828741696,-0.24962345909129713,1,True
2024-05-08,1.0468143828741696,1.0468143828741696,0.0,0,False
2024-05-09,1.0468143828741696,1.0391451345545846,-0.7326273353761237,5,True
2024-05-10,1.0391451345545846,1.0369030853100862,-0.21575900901074085,1,True
2024-05-11,1.0369030853100862,1.0371723220329792,0.025965466465205367,1,True
2024-05-12,1.0371723220329792,1.0343151640439296,-0.2754757264876839,0,True
2024-05-13,1.0343151640439296,1.031729954096405,-0.24994412123060528,1,True
2024-05-14,1.031729954096405,1.031729954096405,0.0,0,False
2024-05-15,1.031729954096405,1.031729954096405,0.0,0,False
2024-05-16,1.031729954096405,1.031729954096405,0.0,0,False
2024-05-17,1.031729954096405,1.031729954096405,0.0,0,False
2024-05-18,1.031729954096405,1.031729954096405,0.0,0,False
2024-05-19,1.031729954096405,1.031729954096405,0.0,0,False
2024-05-20,1.031729954096405,1.031729954096405,0.0,0,False
2024-05-21,1.031729954096405,1.032414546029814,0.0663537906106848,2,True
2024-05-22,1.032414546029814,1.032414546029814,0.0,0,False
2024-05-23,1.032414546029814,1.0393951683952036,0.6761452937905421,1,True
2024-05-24,1.0393951683952036,1.0390861058105225,-0.029734849081342052,2,True
2024-05-25,1.0390861058105225,1.0390861058105225,0.0,0,False
2024-05-26,1.0390861058105225,1.0390861058105225,0.0,0,False
2024-05-27,1.0390861058105225,1.0390861058105225,0.0,0,False
2024-05-28,1.0390861058105225,1.0390861058105225,0.0,0,False
2024-05-29,1.0390861058105225,1.0390861058105225,0.0,0,False
2024-05-30,1.0390861058105225,1.0390861058105225,0.0,0,False
2024-05-31,1.0390861058105225,1.0338964635415504,-0.49944294702353176,2,True
2024-06-01,1.0338964635415504,1.0338964635415504,0.0,0,False
2024-06-02,1.0338964635415504,1.031314882728659,-0.24969432664935232,1,True
2024-06-03,1.031314882728659,1.0272624796658583,-0.3929355748342078,3,True
2024-06-04,1.0272624796658583,1.0241275921448316,-0.305169086098267,2,True
2024-06-05,1.0241275921448316,1.0241275921448316,0.0,0,False
2024-06-06,1.0241275921448316,1.0190225243319082,-0.49847966718988834,2,True
2024-06-07,1.0190225243319082,1.0190225243319082,0.0,0,False
2024-06-08,1.0190225243319082,1.0431935310572653,2.3719796322661413,5,True
2024-06-09,1.0431935310572653,1.0405893945191054,-0.2496312007917334,1,True
2024-06-10,1.0405893945191054,1.0405893945191054,0.0,0,False
2024-06-11,1.0405893945191054,1.0379909971578647,-0.2497043862763504,1,True
2024-06-12,1.0379909971578647,1.0354003948256079,-0.249578497246139,1,True
2024-06-13,1.0354003948256079,1.0311404266660222,-0.41143196205783994,2,True
2024-06-14,1.0311404266660222,1.028568559937261,-0.24941963890183771,1,True
2024-06-15,1.028568559937261,1.035949407741933,0.7175844267612197,1,True
2024-06-16,1.035949407741933,1.035949407741933,0.0,0,False
2024-06-17,1.035949407741933,1.035949407741933,0.0,0,False
2024-06-18,1.035949407741933,1.0419237951284022,0.5767064821719181,5,True
2024-06-19,1.0419237951284022,1.0397358475032707,-0.20999113710247208,1,True
2024-06-20,1.0397358475032707,1.039319525046093,-0.040041175667604456,0,True
2024-06-21,1.039319525046093,1.039319525046093,0.0,0,False
2024-06-22,1.039319525046093,1.036725081331593,-0.24962907479150198,1,True
2024-06-23,1.036725081331593,1.0422688399131317,0.5347375771422636,1,True
2024-06-24,1.0422688399131317,1.0425917124010224,0.03097785096575212,1,True
2024-06-25,1.0425917124010224,1.0524983818697615,0.9501964528304763,1,True
2024-06-26,1.0524983818697615,1.0538940761415438,0.13260773563403827,0,True
2024-06-27,1.0538940761415438,1.0542071579426897,0.02970714118557538,1,True
2024-06-28,1.0542071579426897,1.0512603228950068,-0.2795309276246716,0,True
2024-06-29,1.0512603228950068,1.046024439011185,-0.4980577854781898,2,True
2024-06-30,1.046024439011185,1.046024439011185,0.0,0,False
2024-07-01,1.046024439011185,1.046024439011185,0.0,0,False
2024-07-02,1.046024439011185,1.046024439011185,0.0,0,False
2024-07-03,1.046024439011185,1.046024439011185,0.0,0,False
2024-07-04,1.046024439011185,1.046024439011185,0.0,0,False
2024-07-05,1.046024439011185,1.0537432383207561,0.7379176835359269,6,True
2024-07-06,1.0537432383207561,1.0545538848718572,0.0769301782085785,2,True
2024-07-07,1.0545538848718572,1.0524312969818521,-0.20127827704726764,2,True
2024-07-08,1.0524312969818521,1.052323515332833,-0.010241205229100103,0,True
2024-07-09,1.052323515332833,1.052323515332833,0.0,0,False
2024-07-10,1.052323515332833,1.052323515332833,0.0,0,False
2024-07-11,1.052323515332833,1.052323515332833,0.0,0,False
2024-07-12,1.052323515332833,1.052323515332833,0.0,0,False
2024-07-13,1.052323515332833,1.052323515332833,0.0,0,False
2024-07-14,1.052323515332833,1.0496968344814563,-0.2496077311876732,1,True
2024-07-15,1.0496968344814563,1.0496968344814563,0.0,0,False
2024-07-16,1.0496968344814563,1.047075824820417,-0.24969206107342545,1,True
2024-07-17,1.047075824820417,1.0444638804350563,-0.24945131225894146,1,True
2024-07-18,1.0444638804350563,1.0444638804350563,0.0,0,False
2024-07-19,1.0444638804350563,1.0444638804350563,0.0,0,False
2024-07-20,1.0444638804350563,1.0429331750765636,-0.14655416881004246,2,True
2024-07-21,1.0429331750765636,1.0429331750765636,0.0,0,False
2024-07-22,1.0429331750765636,1.0429331750765636,0.0,0,False
2024-07-23,1.0429331750765636,1.0403285502531388,-0.24974033674147744,1,True
2024-07-24,1.0403285502531388,1.0403285502531388,0.0,0,False
2024-07-25,1.0403285502531388,1.0403285502531388,0.0,0,False
2024-07-26,1.0403285502531388,1.0403285502531388,0.0,0,False
2024-07-27,1.0403285502531388,1.0403285502531388,0.0,0,False
2024-07-28,1.0403285502531388,1.0377306227322884,-0.24972183260933978,1,True
2024-07-29,1.0377306227322884,1.0377306227322884,0.0,0,False
2024-07-30,1.0377306227322884,1.0377306227322884,0.0,0,False
2024-07-31,1.0377306227322884,1.035142021103506,-0.24944832233694259,1,True
2024-08-01,1.035142021103506,1.035142021103506,0.0,0,False
2024-08-02,1.035142021103506,1.035142021103506,0.0,0,False
2024-08-03,1.035142021103506,1.0325606666465899,-0.24937200927891423,1,True
2024-08-04,1.0325606666465899,1.0325606666465899,0.0,0,False
2024-08-05,1.0325606666465899,1.0373260443951184,0.4615106794649604,8,True
2024-08-06,1.0373260443951184,1.0372964743056226,-0.002850607063775712,0,True
2024-08-07,1.0372964743056226,1.0372964743056226,0.0,0,False
2024-08-08,1.0372964743056226,1.0372964743056226,0.0,0,False
2024-08-09,1.0372964743056226,1.0372964743056226,0.0,0,False
2024-08-10,1.0372964743056226,1.0372964743056226,0.0,0,False
2024-08-11,1.0372964743056226,1.0372964743056226,0.0,0,False
2024-08-12,1.0372964743056226,1.0427484404654352,0.5255938195936061,2,True
2024-08-13,1.0427484404654352,1.040706957580542,-0.19577903985950051,0,True
2024-08-14,1.040706957580542,1.040706957580542,0.0,0,False
2024-08-15,1.040706957580542,1.040706957580542,0.0,0,False
2024-08-16,1.040706957580542,1.040706957580542,0.0,0,False
2024-08-17,1.040706957580542,1.040706957580542,0.0,0,False
2024-08-18,1.040706957580542,1.0397438203354454,-0.09254644048271032,1,True
2024-08-19,1.0397438203354454,1.034754008223497,-0.47990784021574306,2,True
2024-08-20,1.034754008223497,1.0361266477120934,0.13265370104273977,1,True
2024-08-21,1.0361266477120934,1.0361266477120934,0.0,0,False
2024-08-22,1.0361266477120934,1.0361266477120934,0.0,0,False
2024-08-23,1.0361266477120934,1.0361266477120934,0.0,0,False
2024-08-24,1.0361266477120934,1.0361266477120934,0.0,0,False
2024-08-25,1.0361266477120934,1.0361266477120934,0.0,0,False
2024-08-26,1.0361266477120934,1.0361266477120934,0.0,0,False
2024-08-27,1.0361266477120934,1.0361266477120934,0.0,0,False
2024-08-28,1.0361266477120934,1.0361266477120934,0.0,0,False
2024-08-29,1.0361266477120934,1.0335438445102452,-0.24927485530378268,1,True
2024-08-30,1.0335438445102452,1.0335438445102452,0.0,0,False
2024-08-31,1.0335438445102452,1.0335438445102452,0.0,0,False
2024-09-01,1.0335438445102452,1.0309728872781547,-0.2487516369766296,1,True
2024-09-02,1.0309728872781547,1.0309728872781547,0.0,0,False
2024-09-03,1.0309728872781547,1.0309728872781547,0.0,0,False
2024-09-04,1.0309728872781547,1.0309728872781547,0.0,0,False
2024-09-05,1.0309728872781547,1.0273547110494685,-0.35094775753400365,2,True
2024-09-06,1.0273547110494685,1.0277287791030802,0.03641079848941686,0,True
2024-09-07,1.0277287791030802,1.0277287791030802,0.0,0,False
2024-09-08,1.0277287791030802,1.0277287791030802,0.0,0,False
2024-09-09,1.0277287791030802,1.0277287791030802,0.0,0,False
2024-09-10,1.0277287791030802,1.0277287791030802,0.0,0,False
2024-09-11,1.0277287791030802,1.0277287791030802,0.0,0,False
2024-09-12,1.0277287791030802,1.0277287791030802,0.0,0,False
2024-09-13,1.0277287791030802,1.0320337983207626,0.4188867048599443,1,True
2024-09-14,1.0320337983207626,1.030254815127364,-0.17237644700136556,0,True
2024-09-15,1.030254815127364,1.030254815127364,0.0,0,False
2024-09-16,1.030254815127364,1.030254815127364,0.0,0,False
2024-09-17,1.030254815127364,1.030254815127364,0.0,0,False
2024-09-18,1.030254815127364,1.0251079266423742,-0.4995743198107361,2,True
2024-09-19,1.0251079266423742,1.0247420224937884,-0.03569420731963646,1,True
2024-09-20,1.0247420224937884,1.0267983069031534,0.20066361720589843,1,True
2024-09-21,1.0267983069031534,1.0186575956398982,-0.79282476495387,4,True
2024-09-22,1.0186575956398982,1.0248673377442306,0.6096005302381746,1,True
2024-09-23,1.0248673377442306,1.030834193682911,0.5822076398506182,1,True
2024-09-24,1.030834193682911,1.029219526632613,-0.15663693154466252,0,True
2024-09-25,1.029219526632613,1.029219526632613,0.0,0,False
2024-09-26,1.029219526632613,1.029219526632613,0.0,0,False
2024-09-27,1.029219526632613,1.029219526632613,0.0,0,False
2024-09-28,1.029219526632613,1.029219526632613,0.0,0,False
2024-09-29,1.029219526632613,1.029219526632613,0.0,0,False
2024-09-30,1.029219526632613,1.029219526632613,0.0,0,False
2024-10-01,1.029219526632613,1.029219526632613,0.0,0,False
2024-10-02,1.029219526632613,1.029219526632613,0.0,0,False
2024-10-03,1.029219526632613,1.0338669761679022,0.4515508514004507,1,True
2024-10-04,1.0338669761679022,1.0359632382219628,0.20275935902609454,0,True
2024-10-05,1.0359632382219628,1.0359632382219628,0.0,0,False
2024-10-06,1.0359632382219628,1.0359632382219628,0.0,0,False
2024-10-07,1.0359632382219628,1.0359632382219628,0.0,0,False
2024-10-08,1.0359632382219628,1.0359632382219628,0.0,0,False
2024-10-09,1.0359632382219628,1.0359632382219628,0.0,0,False
2024-10-10,1.0359632382219628,1.0359632382219628,0.0,0,False
2024-10-11,1.0359632382219628,1.0352166137255383,-0.07207055896172321,1,True
2024-10-12,1.0352166137255383,1.0357624287877152,0.05272472011559337,0,True
2024-10-13,1.0357624287877152,1.0357624287877152,0.0,0,False
2024-10-14,1.0357624287877152,1.0357624287877152,0.0,0,False
2024-10-15,1.0357624287877152,1.030596554508549,-0.4987508849121469,2,True
2024-10-16,1.030596554508549,1.030596554508549,0.0,0,False
2024-10-17,1.030596554508549,1.030596554508549,0.0,0,False
2024-10-18,1.030596554508549,1.0340455752873274,0.33466255671921186,3,True
2024-10-19,1.0340455752873274,1.0323284147512803,-0.16606236485949832,1,True
2024-10-20,1.0323284147512803,1.0323284147512803,0.0,0,False
2024-10-21,1.0323284147512803,1.039944440601556,0.7377522251105217,1,True
2024-10-22,1.039944440601556,1.0484074371102023,0.8137931391556608,2,True
2024-10-23,1.0484074371102023,1.0370958786604718,-1.0789277192566837,2,True
2024-10-24,1.0370958786604718,1.0345085175043898,-0.24948138444286228,1,True
2024-10-25,1.0345085175043898,1.0366854812590003,0.21043458973757367,1,True
2024-10-26,1.0366854812590003,1.0444182535941642,0.7459130541476178,2,True
2024-10-27,1.0444182535941642,1.0444182535941642,0.0,0,False
2024-10-28,1.0444182535941642,1.0444182535941642,0.0,0,False
2024-10-29,1.0444182535941642,1.0444182535941642,0.0,0,False
2024-10-30,1.0444182535941642,1.0444182535941642,0.0,0,False
2024-10-31,1.0444182535941642,1.0444182535941642,0.0,0,False
2024-11-01,1.0444182535941642,1.0444182535941642,0.0,0,False
2024-11-02,1.0444182535941642,1.0444182535941642,0.0,0,False
2024-11-03,1.0444182535941642,1.0444182535941642,0.0,0,False
2024-11-04,1.0444182535941642,1.0444182535941642,0.0,0,False
2024-11-05,1.0444182535941642,1.0444182535941642,0.0,0,False
2024-11-06,1.0444182535941642,1.0444182535941642,0.0,0,False
2024-11-07,1.0444182535941642,1.0444182535941642,0.0,0,False
2024-11-08,1.0444182535941642,1.0444182535941642,0.0,0,False
2024-11-09,1.0444182535941642,1.0432172274119798,-0.11499475215521748,1,True
2024-11-10,1.0432172274119798,1.0409024706377563,-0.22188636397099115,3,True
2024-11-11,1.0409024706377563,1.0407030844374734,-0.019155127968983887,3,True
2024-11-12,1.0407030844374734,1.0416515131054365,0.09113345411826401,0,True
2024-11-13,1.0416515131054365,1.0416515131054365,0.0,0,False
2024-11-14,1.0416515131054365,1.0428317064649226,0.11330021073627794,1,True
2024-11-15,1.0428317064649226,1.0428317064649226,0.0,0,False
2024-11-16,1.0428317064649226,1.0420858582690522,-0.07152143449864479,1,True
2024-11-17,1.0420858582690522,1.0502091322935552,0.7795206085990047,2,True
2024-11-18,1.0502091322935552,1.0502091322935552,0.0,0,False
2024-11-19,1.0502091322935552,1.0475872433251392,-0.24965398679118733,1,True
2024-11-20,1.0475872433251392,1.0475872433251392,0.0,0,False
2024-11-21,1.0475872433251392,1.0475872433251392,0.0,0,False
2024-11-22,1.0475872433251392,1.0475872433251392,0.0,0,False
2024-11-23,1.0475872433251392,1.0504031511021261,0.2687993572782599,1,True
2024-11-24,1.0504031511021261,1.0609323324366555,1.0023943019860315,8,True
2024-11-25,1.0609323324366555,1.0624463523948764,0.14270655271138022,1,True
2024-11-26,1.0624463523948764,1.0571461101894057,-0.49887151417323805,2,True
2024-11-27,1.0571461101894057,1.0585452652175849,0.13235209539090853,2,True
2024-11-28,1.0585452652175849,1.0585452652175849,0.0,0,False
2024-11-29,1.0585452652175849,1.0585452652175849,0.0,0,False
2024-11-30,1.0585452652175849,1.0634466176967858,0.4630271978207201,1,True
2024-12-01,1.0634466176967858,1.0634466176967858,0.0,0,False
2024-12-02,1.0634466176967858,1.065965573047343,0.23686711760038115,1,True
2024-12-03,1.065965573047343,1.0684939202009125,0.2371884437450955,1,True
2024-12-04,1.0684939202009125,1.066989404639917,-0.1408071241727371,4,True
2024-12-05,1.066989404639917,1.0702435296190265,0.30498193936683293,1,True
2024-12-06,1.0702435296190265,1.0713253073574613,0.1010777181544853,1,True
2024-12-07,1.0713253073574613,1.0721551017276951,0.07745493964672612,1,True
2024-12-08,1.0721551017276951,1.0721551017276951,0.0,0,False
2024-12-09,1.0721551017276951,1.0694767266868572,-0.24981227403776396,1,True
2024-12-10,1.0694767266868572,1.0652430495243865,-0.39586435654249685,5,True
2024-12-11,1.0652430495243865,1.0650891805378953,-0.014444495700771665,0,True
2024-12-12,1.0650891805378953,1.0650891805378953,0.0,0,False
2024-12-13,1.0650891805378953,1.0650891805378953,0.0,0,False
2024-12-14,1.0650891805378953,1.0650891805378953,0.0,0,False
2024-12-15,1.0650891805378953,1.0614836488535364,-0.33851922921026567,2,True
2024-12-16,1.0614836488535364,1.0597815273136948,-0.16035306259121196,0,True
2024-12-17,1.0597815273136948,1.0597815273136948,0.0,0,False
2024-12-18,1.0597815273136948,1.0571363704769303,-0.24959454081723287,1,True
2024-12-19,1.0571363704769303,1.0583640516221053,0.11613271281369908,1,True
2024-12-20,1.0583640516221053,1.0559716781018578,-0.22604448030721924,2,True
2024-12-21,1.0559716781018578,1.0559716781018578,0.0,0,False
2024-12-22,1.0559716781018578,1.0559716781018578,0.0,0,False
2024-12-23,1.0559716781018578,1.0559716781018578,0.0,0,False
2024-12-24,1.0559716781018578,1.0559716781018578,0.0,0,False
2024-12-25,1.0559716781018578,1.0614504205686865,0.5188342244819566,1,True
2024-12-26,1.0614504205686865,1.0611950311519407,-0.024060418819094043,1,True
2024-12-27,1.0611950311519407,1.06123699366733,0.003954269870987126,0,True
2024-12-28,1.06123699366733,1.06123699366733,0.0,0,False
2024-12-29,1.06123699366733,1.06123699366733,0.0,0,False
2024-12-30,1.06123699366733,1.0628614663033806,0.15307350250173268,1,True
2024-12-31,1.0628614663033806,1.0628614663033806,0.0,0,False
