day,start_equity,end_equity,return_pct,entries,active
2021-09-02,1.0,1.0,0.0,0,False
2021-09-03,1.0,1.0,0.0,0,False
2021-09-04,1.0,1.0,0.0,0,False
2021-09-05,1.0,1.0,0.0,0,False
2021-09-06,1.0,1.0,0.0,0,False
2021-09-07,1.0,1.0,0.0,0,False
2021-09-08,1.0,1.0,0.0,0,False
2021-09-09,1.0,1.0,0.0,0,False
2021-09-10,1.0,1.0,0.0,0,False
2021-09-11,1.0,1.0,0.0,0,False
2021-09-12,1.0,1.0,0.0,0,False
2021-09-13,1.0,1.0,0.0,0,False
2021-09-14,1.0,1.0,0.0,0,False
2021-09-15,1.0,1.0,0.0,0,False
2021-09-16,1.0,1.0,0.0,0,False
2021-09-17,1.0,1.0,0.0,0,False
2021-09-18,1.0,1.0,0.0,0,False
2021-09-19,1.0,1.0,0.0,0,False
2021-09-20,1.0,1.0,0.0,0,False
2021-09-21,1.0,1.0,0.0,0,False
2021-09-22,1.0,1.0,0.0,0,False
2021-09-23,1.0,1.0,0.0,0,False
2021-09-24,1.0,1.0,0.0,0,False
2021-09-25,1.0,1.0,0.0,0,False
2021-09-26,1.0,1.0,0.0,0,False
2021-09-27,1.0,1.0,0.0,0,False
2021-09-28,1.0,1.0,0.0,0,False
2021-09-29,1.0,1.0,0.0,0,False
2021-09-30,1.0,1.0,0.0,0,False
2021-10-01,1.0,1.0,0.0,0,False
2021-10-02,1.0,1.0,0.0,0,False
2021-10-03,1.0,1.0,0.0,0,False
2021-10-04,1.0,1.0,0.0,0,False
2021-10-05,1.0,0.9995269898820623,-0.04730101179376556,1,True
2021-10-06,0.9995269898820623,1.0056430676177626,0.6118972071401441,3,True
2021-10-07,1.0056430676177626,1.0021691745917531,-0.34543996154009493,2,True
2021-10-08,1.0021691745917531,1.0017165434430628,-0.04516514378669623,1,True
2021-10-09,1.0017165434430628,1.0030236554219536,0.1304872109227695,2,True
2021-10-10,1.0030236554219536,1.0103723326108696,0.7326524303980175,1,True
2021-10-11,1.0103723326108696,1.0070052278961181,-0.33325385168164745,0,True
2021-10-12,1.0070052278961181,1.0070052278961181,0.0,0,False
2021-10-13,1.0070052278961181,1.025182058099002,1.8050383155268968,4,True
2021-10-14,1.025182058099002,1.0413777343906143,1.5797853818904972,0,True
2021-10-15,1.0413777343906143,1.0467921355055285,0.5199267216984049,4,True
2021-10-16,1.0467921355055285,1.0438711219204677,-0.27904428071100496,2,True
2021-10-17,1.0438711219204677,1.0438288456946963,-0.004049946864481679,0,True
2021-10-18,1.0438288456946963,1.0425686717278242,-0.12072611061378913,1,True
2021-10-19,1.0425686717278242,1.045358456315206,0.2675876096255969,0,True
2021-10-20,1.045358456315206,1.045358456315206,0.0,0,False
2021-10-21,1.045358456315206,1.045358456315206,0.0,0,False
2021-10-22,1.045358456315206,1.045358456315206,0.0,0,False
2021-10-23,1.045358456315206,1.045358456315206,0.0,0,False
2021-10-24,1.045358456315206,1.045358456315206,0.0,0,False
2021-10-25,1.045358456315206,1.059072462441183,1.3118950770549587,2,True
2021-10-26,1.059072462441183,1.060005026522115,0.08805479454943033,0,True
2021-10-27,1.060005026522115,1.0548948917532563,-0.48208589968908866,7,True
2021-10-28,1.0548948917532563,1.0575655731242153,0.2531703766732729,2,True
2021-10-29,1.0575655731242153,1.0542329170394316,-0.3151252432450624,0,True
2021-10-30,1.0542329170394316,1.0547291738562152,0.0470727871196841,2,True
2021-10-31,1.0547291738562152,1.0477744479701636,-0.6593849927014284,1,True
2021-11-01,1.0477744479701636,1.059273633308278,1.0974867119914578,2,True
2021-11-02,1.059273633308278,1.0609413205114848,0.15743686529781087,1,True
2021-11-03,1.0609413205114848,1.0592833093986709,-0.15627736244777646,1,True
2021-11-04,1.0592833093986709,1.0786294564919754,1.8263430492723387,1,True
2021-11-05,1.0786294564919754,1.0657488476601786,-1.194164386506591,3,True
2021-11-06,1.0657488476601786,1.055095463112099,-0.999614925361525,2,True
2021-11-07,1.055095463112099,1.0556250921401316,0.05019726143740133,0,True
2021-11-08,1.0556250921401316,1.0556250921401316,0.0,0,False
2021-11-09,1.0556250921401316,1.0556250921401316,0.0,0,False
2021-11-10,1.0556250921401316,1.0556250921401316,0.0,0,False
2021-11-11,1.0556250921401316,1.0325021687209612,-2.190448445318005,7,True
2021-11-12,1.0325021687209612,1.02734845481087,-0.49914799854372527,1,True
2021-11-13,1.02734845481087,1.0259418703897454,-0.13691405428585268,1,True
2021-11-14,1.0259418703897454,1.0263825039860144,0.04294917762754924,0,True
2021-11-15,1.0263825039860144,1.0263825039860144,0.0,0,False
2021-11-16,1.0263825039860144,1.0396232331231439,1.2900384686711286,7,True
2021-11-17,1.0396232331231439,1.0245802125408783,-1.4469684884854561,0,True
2021-11-18,1.0245802125408783,1.0155637666556352,-0.8800136655853441,4,True
2021-11-19,1.0155637666556352,1.0310561798104694,1.5254988080022125,4,True
2021-11-20,1.0310561798104694,1.0317484883946488,0.06714557341644944,0,True
2021-11-21,1.0317484883946488,1.027808269239078,-0.3818972549891164,1,True
2021-11-22,1.027808269239078,1.0128402918163797,-1.4563005446316946,4,True
2021-11-23,1.0128402918163797,1.0098856955297568,-0.2917139365895771,0,True
2021-11-24,1.0098856955297568,1.0052563061227435,-0.458407266040628,2,True
2021-11-25,1.0052563061227435,1.014858638580071,0.9552123571712423,5,True
2021-11-26,1.014858638580071,0.9882535348680931,-2.6215575943859815,3,True
2021-11-27,0.9882535348680931,0.9882535348680931,0.0,0,False
2021-11-28,0.9882535348680931,0.9684642784856604,-2.002447315816991,5,True
2021-11-29,0.9684642784856604,0.9690808492158045,0.0636647880403185,1,True
2021-11-30,0.9690808492158045,0.9640750214778765,-0.5165541907033666,3,True
2021-12-01,0.9640750214778765,0.9611497660976995,-0.3034261146702799,1,True
2021-12-02,0.9611497660976995,0.9601152857898446,-0.10762946050072442,5,True
2021-12-03,0.9601152857898446,0.9541591322609375,-0.6203581608439035,2,True
2021-12-04,0.9541591322609375,0.933825203407824,-2.131083607084594,10,True
2021-12-05,0.933825203407824,0.92898628080614,-0.5181829087526513,3,True
2021-12-06,0.92898628080614,0.9186311459347377,-1.1146703762316523,12,True
2021-12-07,0.9186311459347377,0.9186311459347377,0.0,0,False
2021-12-08,0.9186311459347377,0.9186311459347377,0.0,0,False
2021-12-09,0.9186311459347377,0.9186311459347377,0.0,0,False
2021-12-10,0.9186311459347377,0.9186311459347377,0.0,0,False
2021-12-11,0.9186311459347377,0.9186311459347377,0.0,0,False
2021-12-12,0.9186311459347377,0.9186311459347377,0.0,0,False
2021-12-13,0.9186311459347377,0.9186311459347377,0.0,0,False
2021-12-14,0.9186311459347377,0.9186311459347377,0.0,0,False
2021-12-15,0.9186311459347377,0.9186311459347377,0.0,0,False
2021-12-16,0.9186311459347377,0.9186311459347377,0.0,0,False
2021-12-17,0.9186311459347377,0.9186311459347377,0.0,0,False
2021-12-18,0.9186311459347377,0.9186311459347377,0.0,0,False
2021-12-19,0.9186311459347377,0.9186311459347377,0.0,0,False
2021-12-20,0.9186311459347377,0.9186311459347377,0.0,0,False
2021-12-21,0.9186311459347377,0.9186311459347377,0.0,0,False
2021-12-22,0.9186311459347377,0.9186311459347377,0.0,0,False
2021-12-23,0.9186311459347377,0.9186311459347377,0.0,0,False
2021-12-24,0.9186311459347377,0.9186311459347377,0.0,0,False
2021-12-25,0.9186311459347377,0.9186311459347377,0.0,0,False
2021-12-26,0.9186311459347377,0.9186311459347377,0.0,0,False
2021-12-27,0.9186311459347377,0.9186311459347377,0.0,0,False
2021-12-28,0.9186311459347377,0.9186311459347377,0.0,0,False
2021-12-29,0.9186311459347377,0.9186311459347377,0.0,0,False
2021-12-30,0.9186311459347377,0.9186311459347377,0.0,0,False
2021-12-31,0.9186311459347377,0.9186311459347377,0.0,0,False
2022-01-01,0.9186311459347377,0.9186311459347377,0.0,0,False
2022-01-02,0.9186311459347377,0.9186311459347377,0.0,0,False
2022-01-03,0.9186311459347377,0.9186311459347377,0.0,0,False
2022-01-04,0.9186311459347377,0.9186311459347377,0.0,0,False
2022-01-05,0.9186311459347377,0.9186311459347377,0.0,0,False
2022-01-06,0.9186311459347377,0.9186311459347377,0.0,0,False
2022-01-07,0.9186311459347377,0.9186311459347377,0.0,0,False
2022-01-08,0.9186311459347377,0.9186311459347377,0.0,0,False
2022-01-09,0.9186311459347377,0.9186311459347377,0.0,0,False
2022-01-10,0.9186311459347377,0.9186311459347377,0.0,0,False
2022-01-11,0.9186311459347377,0.9186311459347377,0.0,0,False
2022-01-12,0.9186311459347377,0.9186311459347377,0.0,0,False
2022-01-13,0.9186311459347377,0.9186311459347377,0.0,0,False
2022-01-14,0.9186311459347377,0.9186311459347377,0.0,0,False
2022-01-15,0.9186311459347377,0.9186311459347377,0.0,0,False
2022-01-16,0.9186311459347377,0.9186311459347377,0.0,0,False
2022-01-17,0.9186311459347377,0.9186311459347377,0.0,0,False
2022-01-18,0.9186311459347377,0.9186311459347377,0.0,0,False
2022-01-19,0.9186311459347377,0.9186311459347377,0.0,0,False
2022-01-20,0.9186311459347377,0.9186311459347377,0.0,0,False
2022-01-21,0.9186311459347377,0.9186311459347377,0.0,0,False
2022-01-22,0.9186311459347377,0.9186311459347377,0.0,0,False
2022-01-23,0.9186311459347377,0.9186311459347377,0.0,0,False
2022-01-24,0.9186311459347377,0.9186311459347377,0.0,0,False
2022-01-25,0.9186311459347377,0.9186311459347377,0.0,0,False
2022-01-26,0.9186311459347377,0.9186311459347377,0.0,0,False
2022-01-27,0.9186311459347377,0.9186311459347377,0.0,0,False
2022-01-28,0.9186311459347377,0.9186311459347377,0.0,0,False
2022-01-29,0.9186311459347377,0.9186311459347377,0.0,0,False
2022-01-30,0.9186311459347377,0.9186311459347377,0.0,0,False
2022-01-31,0.9186311459347377,0.9186311459347377,0.0,0,False
2022-02-01,0.9186311459347377,0.9186311459347377,0.0,0,False
2022-02-02,0.9186311459347377,0.9186311459347377,0.0,0,False
2022-02-03,0.9186311459347377,0.9186311459347377,0.0,0,False
2022-02-04,0.9186311459347377,0.9186311459347377,0.0,0,False
2022-02-05,0.9186311459347377,0.9186311459347377,0.0,0,False
2022-02-06,0.9186311459347377,0.9186311459347377,0.0,0,False
2022-02-07,0.9186311459347377,0.9186311459347377,0.0,0,False
2022-02-08,0.9186311459347377,0.9186311459347377,0.0,0,False
2022-02-09,0.9186311459347377,0.9186311459347377,0.0,0,False
2022-02-10,0.9186311459347377,0.9186311459347377,0.0,0,False
2022-02-11,0.9186311459347377,0.9186311459347377,0.0,0,False
2022-02-12,0.9186311459347377,0.9186311459347377,0.0,0,False
2022-02-13,0.9186311459347377,0.9186311459347377,0.0,0,False
2022-02-14,0.9186311459347377,0.9186311459347377,0.0,0,False
2022-02-15,0.9186311459347377,0.9186311459347377,0.0,0,False
2022-02-16,0.9186311459347377,0.9186311459347377,0.0,0,False
2022-02-17,0.9186311459347377,0.9186311459347377,0.0,0,False
2022-02-18,0.9186311459347377,0.9186311459347377,0.0,0,False
2022-02-19,0.9186311459347377,0.9186311459347377,0.0,0,False
2022-02-20,0.9186311459347377,0.9186311459347377,0.0,0,False
2022-02-21,0.9186311459347377,0.9186311459347377,0.0,0,False
2022-02-22,0.9186311459347377,0.9186311459347377,0.0,0,False
2022-02-23,0.9186311459347377,0.9186311459347377,0.0,0,False
2022-02-24,0.9186311459347377,0.9186311459347377,0.0,0,False
2022-02-25,0.9186311459347377,0.9186311459347377,0.0,0,False
2022-02-26,0.9186311459347377,0.9186311459347377,0.0,0,False
2022-02-27,0.9186311459347377,0.9186311459347377,0.0,0,False
2022-02-28,0.9186311459347377,0.9186311459347377,0.0,0,False
2022-03-01,0.9186311459347377,0.9186311459347377,0.0,0,False
2022-03-02,0.9186311459347377,0.9186311459347377,0.0,0,False
2022-03-03,0.9186311459347377,0.9186311459347377,0.0,0,False
2022-03-04,0.9186311459347377,0.9186311459347377,0.0,0,False
2022-03-05,0.9186311459347377,0.9186311459347377,0.0,0,False
2022-03-06,0.9186311459347377,0.9186311459347377,0.0,0,False
2022-03-07,0.9186311459347377,0.9186311459347377,0.0,0,False
2022-03-08,0.9186311459347377,0.9186311459347377,0.0,0,False
2022-03-09,0.9186311459347377,0.9186311459347377,0.0,0,False
2022-03-10,0.9186311459347377,0.9186311459347377,0.0,0,False
2022-03-11,0.9186311459347377,0.9186311459347377,0.0,0,False
2022-03-12,0.9186311459347377,0.9186311459347377,0.0,0,False
2022-03-13,0.9186311459347377,0.9186311459347377,0.0,0,False
2022-03-14,0.9186311459347377,0.9186311459347377,0.0,0,False
2022-03-15,0.9186311459347377,0.9186311459347377,0.0,0,False
2022-03-16,0.9186311459347377,0.9186311459347377,0.0,0,False
2022-03-17,0.9186311459347377,0.9186311459347377,0.0,0,False
2022-03-18,0.9186311459347377,0.9186311459347377,0.0,0,False
2022-03-19,0.9186311459347377,0.9186311459347377,0.0,0,False
2022-03-20,0.9186311459347377,0.9186311459347377,0.0,0,False
2022-03-21,0.9186311459347377,0.9186311459347377,0.0,0,False
2022-03-22,0.9186311459347377,0.9186311459347377,0.0,0,False
2022-03-23,0.9186311459347377,0.9186311459347377,0.0,0,False
2022-03-24,0.9186311459347377,0.9186311459347377,0.0,0,False
2022-03-25,0.9186311459347377,0.9186311459347377,0.0,0,False
2022-03-26,0.9186311459347377,0.9186311459347377,0.0,0,False
2022-03-27,0.9186311459347377,0.9186311459347377,0.0,0,False
2022-03-28,0.9186311459347377,0.9186311459347377,0.0,0,False
2022-03-29,0.9186311459347377,0.9186311459347377,0.0,0,False
2022-03-30,0.9186311459347377,0.9186311459347377,0.0,0,False
2022-03-31,0.9186311459347377,0.9186311459347377,0.0,0,False
2022-04-01,0.9186311459347377,0.9186311459347377,0.0,0,False
2022-04-02,0.9186311459347377,0.9186311459347377,0.0,0,False
2022-04-03,0.9186311459347377,0.9186311459347377,0.0,0,False
2022-04-04,0.9186311459347377,0.9186311459347377,0.0,0,False
2022-04-05,0.9186311459347377,0.9186311459347377,0.0,0,False
2022-04-06,0.9186311459347377,0.9186311459347377,0.0,0,False
2022-04-07,0.9186311459347377,0.9186311459347377,0.0,0,False
2022-04-08,0.9186311459347377,0.9186311459347377,0.0,0,False
2022-04-09,0.9186311459347377,0.9186311459347377,0.0,0,False
2022-04-10,0.9186311459347377,0.9186311459347377,0.0,0,False
2022-04-11,0.9186311459347377,0.9186311459347377,0.0,0,False
2022-04-12,0.9186311459347377,0.9186311459347377,0.0,0,False
2022-04-13,0.9186311459347377,0.9186311459347377,0.0,0,False
2022-04-14,0.9186311459347377,0.9186311459347377,0.0,0,False
2022-04-15,0.9186311459347377,0.9186311459347377,0.0,0,False
2022-04-16,0.9186311459347377,0.9186311459347377,0.0,0,False
2022-04-17,0.9186311459347377,0.9186311459347377,0.0,0,False
2022-04-18,0.9186311459347377,0.9186311459347377,0.0,0,False
2022-04-19,0.9186311459347377,0.9186311459347377,0.0,0,False
2022-04-20,0.9186311459347377,0.9186311459347377,0.0,0,False
2022-04-21,0.9186311459347377,0.9186311459347377,0.0,0,False
2022-04-22,0.9186311459347377,0.9186311459347377,0.0,0,False
2022-04-23,0.9186311459347377,0.9186311459347377,0.0,0,False
2022-04-24,0.9186311459347377,0.9186311459347377,0.0,0,False
2022-04-25,0.9186311459347377,0.9186311459347377,0.0,0,False
2022-04-26,0.9186311459347377,0.9186311459347377,0.0,0,False
2022-04-27,0.9186311459347377,0.9186311459347377,0.0,0,False
2022-04-28,0.9186311459347377,0.9186311459347377,0.0,0,False
2022-04-29,0.9186311459347377,0.9186311459347377,0.0,0,False
2022-04-30,0.9186311459347377,0.9186311459347377,0.0,0,False
2022-05-01,0.9186311459347377,0.9186311459347377,0.0,0,False
2022-05-02,0.9186311459347377,0.9186311459347377,0.0,0,False
2022-05-03,0.9186311459347377,0.9186311459347377,0.0,0,False
2022-05-04,0.9186311459347377,0.9186311459347377,0.0,0,False
2022-05-05,0.9186311459347377,0.9186311459347377,0.0,0,False
2022-05-06,0.9186311459347377,0.9186311459347377,0.0,0,False
2022-05-07,0.9186311459347377,0.9186311459347377,0.0,0,False
2022-05-08,0.9186311459347377,0.9186311459347377,0.0,0,False
2022-05-09,0.9186311459347377,0.9186311459347377,0.0,0,False
2022-05-10,0.9186311459347377,0.9186311459347377,0.0,0,False
2022-05-11,0.9186311459347377,0.9186311459347377,0.0,0,False
2022-05-12,0.9186311459347377,0.9186311459347377,0.0,0,False
2022-05-13,0.9186311459347377,0.9186311459347377,0.0,0,False
2022-05-14,0.9186311459347377,0.9186311459347377,0.0,0,False
2022-05-15,0.9186311459347377,0.9186311459347377,0.0,0,False
2022-05-16,0.9186311459347377,0.9186311459347377,0.0,0,False
2022-05-17,0.9186311459347377,0.9186311459347377,0.0,0,False
2022-05-18,0.9186311459347377,0.9186311459347377,0.0,0,False
2022-05-19,0.9186311459347377,0.9186311459347377,0.0,0,False
2022-05-20,0.9186311459347377,0.9186311459347377,0.0,0,False
2022-05-21,0.9186311459347377,0.9186311459347377,0.0,0,False
2022-05-22,0.9186311459347377,0.9186311459347377,0.0,0,False
2022-05-23,0.9186311459347377,0.9186311459347377,0.0,0,False
2022-05-24,0.9186311459347377,0.9186311459347377,0.0,0,False
2022-05-25,0.9186311459347377,0.9186311459347377,0.0,0,False
2022-05-26,0.9186311459347377,0.9186311459347377,0.0,0,False
2022-05-27,0.9186311459347377,0.9186311459347377,0.0,0,False
2022-05-28,0.9186311459347377,0.9186311459347377,0.0,0,False
2022-05-29,0.9186311459347377,0.9186311459347377,0.0,0,False
2022-05-30,0.9186311459347377,0.9186311459347377,0.0,0,False
2022-05-31,0.9186311459347377,0.9186311459347377,0.0,0,False
2022-06-01,0.9186311459347377,0.9186311459347377,0.0,0,False
2022-06-02,0.9186311459347377,0.9186311459347377,0.0,0,False
2022-06-03,0.9186311459347377,0.9186311459347377,0.0,0,False
2022-06-04,0.9186311459347377,0.9186311459347377,0.0,0,False
2022-06-05,0.9186311459347377,0.9186311459347377,0.0,0,False
2022-06-06,0.9186311459347377,0.9186311459347377,0.0,0,False
2022-06-07,0.9186311459347377,0.9186311459347377,0.0,0,False
2022-06-08,0.9186311459347377,0.9186311459347377,0.0,0,False
2022-06-09,0.9186311459347377,0.9186311459347377,0.0,0,False
2022-06-10,0.9186311459347377,0.9186311459347377,0.0,0,False
2022-06-11,0.9186311459347377,0.9186311459347377,0.0,0,False
2022-06-12,0.9186311459347377,0.9186311459347377,0.0,0,False
2022-06-13,0.9186311459347377,0.9186311459347377,0.0,0,False
2022-06-14,0.9186311459347377,0.9186311459347377,0.0,0,False
2022-06-15,0.9186311459347377,0.9186311459347377,0.0,0,False
2022-06-16,0.9186311459347377,0.9186311459347377,0.0,0,False
2022-06-17,0.9186311459347377,0.9186311459347377,0.0,0,False
2022-06-18,0.9186311459347377,0.9186311459347377,0.0,0,False
2022-06-19,0.9186311459347377,0.9186311459347377,0.0,0,False
2022-06-20,0.9186311459347377,0.9186311459347377,0.0,0,False
2022-06-21,0.9186311459347377,0.9186311459347377,0.0,0,False
2022-06-22,0.9186311459347377,0.9186311459347377,0.0,0,False
2022-06-23,0.9186311459347377,0.9186311459347377,0.0,0,False
2022-06-24,0.9186311459347377,0.9186311459347377,0.0,0,False
2022-06-25,0.9186311459347377,0.9186311459347377,0.0,0,False
2022-06-26,0.9186311459347377,0.9186311459347377,0.0,0,False
2022-06-27,0.9186311459347377,0.9186311459347377,0.0,0,False
2022-06-28,0.9186311459347377,0.9186311459347377,0.0,0,False
2022-06-29,0.9186311459347377,0.9186311459347377,0.0,0,False
2022-06-30,0.9186311459347377,0.9186311459347377,0.0,0,False
2022-07-01,0.9186311459347377,0.9186311459347377,0.0,0,False
2022-07-02,0.9186311459347377,0.9186311459347377,0.0,0,False
2022-07-03,0.9186311459347377,0.9186311459347377,0.0,0,False
2022-07-04,0.9186311459347377,0.9186311459347377,0.0,0,False
2022-07-05,0.9186311459347377,0.9186311459347377,0.0,0,False
2022-07-06,0.9186311459347377,0.9186311459347377,0.0,0,False
2022-07-07,0.9186311459347377,0.9186311459347377,0.0,0,False
2022-07-08,0.9186311459347377,0.9186311459347377,0.0,0,False
2022-07-09,0.9186311459347377,0.9186311459347377,0.0,0,False
2022-07-10,0.9186311459347377,0.9186311459347377,0.0,0,False
2022-07-11,0.9186311459347377,0.9186311459347377,0.0,0,False
2022-07-12,0.9186311459347377,0.9186311459347377,0.0,0,False
2022-07-13,0.9186311459347377,0.9186311459347377,0.0,0,False
2022-07-14,0.9186311459347377,0.9186311459347377,0.0,0,False
2022-07-15,0.9186311459347377,0.9186311459347377,0.0,0,False
2022-07-16,0.9186311459347377,0.9186311459347377,0.0,0,False
2022-07-17,0.9186311459347377,0.9186311459347377,0.0,0,False
2022-07-18,0.9186311459347377,0.9186311459347377,0.0,0,False
2022-07-19,0.9186311459347377,0.9186311459347377,0.0,0,False
2022-07-20,0.9186311459347377,0.9186311459347377,0.0,0,False
2022-07-21,0.9186311459347377,0.9186311459347377,0.0,0,False
2022-07-22,0.9186311459347377,0.9186311459347377,0.0,0,False
2022-07-23,0.9186311459347377,0.9186311459347377,0.0,0,False
2022-07-24,0.9186311459347377,0.9186311459347377,0.0,0,False
2022-07-25,0.9186311459347377,0.9186311459347377,0.0,0,False
2022-07-26,0.9186311459347377,0.9186311459347377,0.0,0,False
2022-07-27,0.9186311459347377,0.9186311459347377,0.0,0,False
2022-07-28,0.9186311459347377,0.9186311459347377,0.0,0,False
2022-07-29,0.9186311459347377,0.9186311459347377,0.0,0,False
2022-07-30,0.9186311459347377,0.9186311459347377,0.0,0,False
2022-07-31,0.9186311459347377,0.9186311459347377,0.0,0,False
2022-08-01,0.9186311459347377,0.9186311459347377,0.0,0,False
2022-08-02,0.9186311459347377,0.9186311459347377,0.0,0,False
2022-08-03,0.9186311459347377,0.9186311459347377,0.0,0,False
2022-08-04,0.9186311459347377,0.9186311459347377,0.0,0,False
2022-08-05,0.9186311459347377,0.9186311459347377,0.0,0,False
2022-08-06,0.9186311459347377,0.9186311459347377,0.0,0,False
2022-08-07,0.9186311459347377,0.9186311459347377,0.0,0,False
2022-08-08,0.9186311459347377,0.9186311459347377,0.0,0,False
2022-08-09,0.9186311459347377,0.9186311459347377,0.0,0,False
2022-08-10,0.9186311459347377,0.9186311459347377,0.0,0,False
2022-08-11,0.9186311459347377,0.9186311459347377,0.0,0,False
2022-08-12,0.9186311459347377,0.9186311459347377,0.0,0,False
2022-08-13,0.9186311459347377,0.9186311459347377,0.0,0,False
2022-08-14,0.9186311459347377,0.9186311459347377,0.0,0,False
2022-08-15,0.9186311459347377,0.9186311459347377,0.0,0,False
2022-08-16,0.9186311459347377,0.9186311459347377,0.0,0,False
2022-08-17,0.9186311459347377,0.9186311459347377,0.0,0,False
2022-08-18,0.9186311459347377,0.9186311459347377,0.0,0,False
2022-08-19,0.9186311459347377,0.9186311459347377,0.0,0,False
2022-08-20,0.9186311459347377,0.9186311459347377,0.0,0,False
2022-08-21,0.9186311459347377,0.9186311459347377,0.0,0,False
2022-08-22,0.9186311459347377,0.9186311459347377,0.0,0,False
2022-08-23,0.9186311459347377,0.9186311459347377,0.0,0,False
2022-08-24,0.9186311459347377,0.9186311459347377,0.0,0,False
2022-08-25,0.9186311459347377,0.9186311459347377,0.0,0,False
2022-08-26,0.9186311459347377,0.9186311459347377,0.0,0,False
2022-08-27,0.9186311459347377,0.9186311459347377,0.0,0,False
2022-08-28,0.9186311459347377,0.9186311459347377,0.0,0,False
2022-08-29,0.9186311459347377,0.9186311459347377,0.0,0,False
2022-08-30,0.9186311459347377,0.9186311459347377,0.0,0,False
2022-08-31,0.9186311459347377,0.9186311459347377,0.0,0,False
2022-09-01,0.9186311459347377,0.9186311459347377,0.0,0,False
2022-09-02,0.9186311459347377,0.9186311459347377,0.0,0,False
2022-09-03,0.9186311459347377,0.9186311459347377,0.0,0,False
2022-09-04,0.9186311459347377,0.9186311459347377,0.0,0,False
2022-09-05,0.9186311459347377,0.9186311459347377,0.0,0,False
2022-09-06,0.9186311459347377,0.9186311459347377,0.0,0,False
2022-09-07,0.9186311459347377,0.9186311459347377,0.0,0,False
2022-09-08,0.9186311459347377,0.9186311459347377,0.0,0,False
2022-09-09,0.9186311459347377,0.9186311459347377,0.0,0,False
2022-09-10,0.9186311459347377,0.9186311459347377,0.0,0,False
2022-09-11,0.9186311459347377,0.9186311459347377,0.0,0,False
2022-09-12,0.9186311459347377,0.9186311459347377,0.0,0,False
2022-09-13,0.9186311459347377,0.9186311459347377,0.0,0,False
2022-09-14,0.9186311459347377,0.9186311459347377,0.0,0,False
2022-09-15,0.9186311459347377,0.9186311459347377,0.0,0,False
2022-09-16,0.9186311459347377,0.9186311459347377,0.0,0,False
2022-09-17,0.9186311459347377,0.9186311459347377,0.0,0,False
2022-09-18,0.9186311459347377,0.9186311459347377,0.0,0,False
2022-09-19,0.9186311459347377,0.9186311459347377,0.0,0,False
2022-09-20,0.9186311459347377,0.9186311459347377,0.0,0,False
2022-09-21,0.9186311459347377,0.9186311459347377,0.0,0,False
2022-09-22,0.9186311459347377,0.9186311459347377,0.0,0,False
2022-09-23,0.9186311459347377,0.9186311459347377,0.0,0,False
2022-09-24,0.9186311459347377,0.9186311459347377,0.0,0,False
2022-09-25,0.9186311459347377,0.9186311459347377,0.0,0,False
2022-09-26,0.9186311459347377,0.9186311459347377,0.0,0,False
2022-09-27,0.9186311459347377,0.9186311459347377,0.0,0,False
2022-09-28,0.9186311459347377,0.9186311459347377,0.0,0,False
2022-09-29,0.9186311459347377,0.9186311459347377,0.0,0,False
2022-09-30,0.9186311459347377,0.9186311459347377,0.0,0,False
2022-10-01,0.9186311459347377,0.9186311459347377,0.0,0,False
2022-10-02,0.9186311459347377,0.9186311459347377,0.0,0,False
2022-10-03,0.9186311459347377,0.9186311459347377,0.0,0,False
2022-10-04,0.9186311459347377,0.9186311459347377,0.0,0,False
2022-10-05,0.9186311459347377,0.9186311459347377,0.0,0,False
2022-10-06,0.9186311459347377,0.9186311459347377,0.0,0,False
2022-10-07,0.9186311459347377,0.9186311459347377,0.0,0,False
2022-10-08,0.9186311459347377,0.9186311459347377,0.0,0,False
2022-10-09,0.9186311459347377,0.9186311459347377,0.0,0,False
2022-10-10,0.9186311459347377,0.9186311459347377,0.0,0,False
2022-10-11,0.9186311459347377,0.9186311459347377,0.0,0,False
2022-10-12,0.9186311459347377,0.9186311459347377,0.0,0,False
2022-10-13,0.9186311459347377,0.9186311459347377,0.0,0,False
2022-10-14,0.9186311459347377,0.9186311459347377,0.0,0,False
2022-10-15,0.9186311459347377,0.9186311459347377,0.0,0,False
2022-10-16,0.9186311459347377,0.9186311459347377,0.0,0,False
2022-10-17,0.9186311459347377,0.9186311459347377,0.0,0,False
2022-10-18,0.9186311459347377,0.9186311459347377,0.0,0,False
2022-10-19,0.9186311459347377,0.9186311459347377,0.0,0,False
2022-10-20,0.9186311459347377,0.9186311459347377,0.0,0,False
2022-10-21,0.9186311459347377,0.9186311459347377,0.0,0,False
2022-10-22,0.9186311459347377,0.9186311459347377,0.0,0,False
2022-10-23,0.9186311459347377,0.9186311459347377,0.0,0,False
2022-10-24,0.9186311459347377,0.9186311459347377,0.0,0,False
2022-10-25,0.9186311459347377,0.9186311459347377,0.0,0,False
2022-10-26,0.9186311459347377,0.9186311459347377,0.0,0,False
2022-10-27,0.9186311459347377,0.9186311459347377,0.0,0,False
2022-10-28,0.9186311459347377,0.9186311459347377,0.0,0,False
2022-10-29,0.9186311459347377,0.9186311459347377,0.0,0,False
2022-10-30,0.9186311459347377,0.9186311459347377,0.0,0,False
2022-10-31,0.9186311459347377,0.9186311459347377,0.0,0,False
2022-11-01,0.9186311459347377,0.9186311459347377,0.0,0,False
2022-11-02,0.9186311459347377,0.9186311459347377,0.0,0,False
2022-11-03,0.9186311459347377,0.9186311459347377,0.0,0,False
2022-11-04,0.9186311459347377,0.9186311459347377,0.0,0,False
2022-11-05,0.9186311459347377,0.9186311459347377,0.0,0,False
2022-11-06,0.9186311459347377,0.9186311459347377,0.0,0,False
2022-11-07,0.9186311459347377,0.9186311459347377,0.0,0,False
2022-11-08,0.9186311459347377,0.9186311459347377,0.0,0,False
2022-11-09,0.9186311459347377,0.9186311459347377,0.0,0,False
2022-11-10,0.9186311459347377,0.9186311459347377,0.0,0,False
2022-11-11,0.9186311459347377,0.9186311459347377,0.0,0,False
2022-11-12,0.9186311459347377,0.9186311459347377,0.0,0,False
2022-11-13,0.9186311459347377,0.9186311459347377,0.0,0,False
2022-11-14,0.9186311459347377,0.9186311459347377,0.0,0,False
2022-11-15,0.9186311459347377,0.9186311459347377,0.0,0,False
2022-11-16,0.9186311459347377,0.9186311459347377,0.0,0,False
2022-11-17,0.9186311459347377,0.9186311459347377,0.0,0,False
2022-11-18,0.9186311459347377,0.9186311459347377,0.0,0,False
2022-11-19,0.9186311459347377,0.9186311459347377,0.0,0,False
2022-11-20,0.9186311459347377,0.9186311459347377,0.0,0,False
2022-11-21,0.9186311459347377,0.9186311459347377,0.0,0,False
2022-11-22,0.9186311459347377,0.9186311459347377,0.0,0,False
2022-11-23,0.9186311459347377,0.9186311459347377,0.0,0,False
2022-11-24,0.9186311459347377,0.9186311459347377,0.0,0,False
2022-11-25,0.9186311459347377,0.9186311459347377,0.0,0,False
2022-11-26,0.9186311459347377,0.9186311459347377,0.0,0,False
2022-11-27,0.9186311459347377,0.9186311459347377,0.0,0,False
2022-11-28,0.9186311459347377,0.9186311459347377,0.0,0,False
2022-11-29,0.9186311459347377,0.9186311459347377,0.0,0,False
2022-11-30,0.9186311459347377,0.9186311459347377,0.0,0,False
2022-12-01,0.9186311459347377,0.9186311459347377,0.0,0,False
2022-12-02,0.9186311459347377,0.9186311459347377,0.0,0,False
2022-12-03,0.9186311459347377,0.9186311459347377,0.0,0,False
2022-12-04,0.9186311459347377,0.9186311459347377,0.0,0,False
2022-12-05,0.9186311459347377,0.9186311459347377,0.0,0,False
2022-12-06,0.9186311459347377,0.9186311459347377,0.0,0,False
2022-12-07,0.9186311459347377,0.9186311459347377,0.0,0,False
2022-12-08,0.9186311459347377,0.9186311459347377,0.0,0,False
2022-12-09,0.9186311459347377,0.9186311459347377,0.0,0,False
2022-12-10,0.9186311459347377,0.9186311459347377,0.0,0,False
2022-12-11,0.9186311459347377,0.9186311459347377,0.0,0,False
2022-12-12,0.9186311459347377,0.9186311459347377,0.0,0,False
2022-12-13,0.9186311459347377,0.9186311459347377,0.0,0,False
2022-12-14,0.9186311459347377,0.9186311459347377,0.0,0,False
2022-12-15,0.9186311459347377,0.9186311459347377,0.0,0,False
2022-12-16,0.9186311459347377,0.9186311459347377,0.0,0,False
2022-12-17,0.9186311459347377,0.9186311459347377,0.0,0,False
2022-12-18,0.9186311459347377,0.9186311459347377,0.0,0,False
2022-12-19,0.9186311459347377,0.9186311459347377,0.0,0,False
2022-12-20,0.9186311459347377,0.9186311459347377,0.0,0,False
2022-12-21,0.9186311459347377,0.9186311459347377,0.0,0,False
2022-12-22,0.9186311459347377,0.9186311459347377,0.0,0,False
2022-12-23,0.9186311459347377,0.9186311459347377,0.0,0,False
2022-12-24,0.9186311459347377,0.9186311459347377,0.0,0,False
2022-12-25,0.9186311459347377,0.9186311459347377,0.0,0,False
2022-12-26,0.9186311459347377,0.9186311459347377,0.0,0,False
2022-12-27,0.9186311459347377,0.9186311459347377,0.0,0,False
2022-12-28,0.9186311459347377,0.9186311459347377,0.0,0,False
2022-12-29,0.9186311459347377,0.9186311459347377,0.0,0,False
2022-12-30,0.9186311459347377,0.9186311459347377,0.0,0,False
2022-12-31,0.9186311459347377,0.9186311459347377,0.0,0,False
2023-01-01,0.9186311459347377,0.9186311459347377,0.0,0,False
2023-01-02,0.9186311459347377,0.9186311459347377,0.0,0,False
2023-01-03,0.9186311459347377,0.9186311459347377,0.0,0,False
2023-01-04,0.9186311459347377,0.9186311459347377,0.0,0,False
2023-01-05,0.9186311459347377,0.9186311459347377,0.0,0,False
2023-01-06,0.9186311459347377,0.9186311459347377,0.0,0,False
2023-01-07,0.9186311459347377,0.9186311459347377,0.0,0,False
2023-01-08,0.9186311459347377,0.9186311459347377,0.0,0,False
2023-01-09,0.9186311459347377,0.9186311459347377,0.0,0,False
2023-01-10,0.9186311459347377,0.9186311459347377,0.0,0,False
2023-01-11,0.9186311459347377,0.9186311459347377,0.0,0,False
2023-01-12,0.9186311459347377,0.9186311459347377,0.0,0,False
2023-01-13,0.9186311459347377,0.9186311459347377,0.0,0,False
2023-01-14,0.9186311459347377,0.9186311459347377,0.0,0,False
2023-01-15,0.9186311459347377,0.9186311459347377,0.0,0,False
2023-01-16,0.9186311459347377,0.9186311459347377,0.0,0,False
2023-01-17,0.9186311459347377,0.9186311459347377,0.0,0,False
2023-01-18,0.9186311459347377,0.9186311459347377,0.0,0,False
2023-01-19,0.9186311459347377,0.9186311459347377,0.0,0,False
2023-01-20,0.9186311459347377,0.9186311459347377,0.0,0,False
2023-01-21,0.9186311459347377,0.9186311459347377,0.0,0,False
2023-01-22,0.9186311459347377,0.9186311459347377,0.0,0,False
2023-01-23,0.9186311459347377,0.9186311459347377,0.0,0,False
2023-01-24,0.9186311459347377,0.9186311459347377,0.0,0,False
2023-01-25,0.9186311459347377,0.9186311459347377,0.0,0,False
2023-01-26,0.9186311459347377,0.9186311459347377,0.0,0,False
2023-01-27,0.9186311459347377,0.9186311459347377,0.0,0,False
2023-01-28,0.9186311459347377,0.9186311459347377,0.0,0,False
2023-01-29,0.9186311459347377,0.9186311459347377,0.0,0,False
2023-01-30,0.9186311459347377,0.9186311459347377,0.0,0,False
2023-01-31,0.9186311459347377,0.9186311459347377,0.0,0,False
2023-02-01,0.9186311459347377,0.9186311459347377,0.0,0,False
2023-02-02,0.9186311459347377,0.9186311459347377,0.0,0,False
2023-02-03,0.9186311459347377,0.9186311459347377,0.0,0,False
2023-02-04,0.9186311459347377,0.9186311459347377,0.0,0,False
2023-02-05,0.9186311459347377,0.9186311459347377,0.0,0,False
2023-02-06,0.9186311459347377,0.9186311459347377,0.0,0,False
2023-02-07,0.9186311459347377,0.9186311459347377,0.0,0,False
2023-02-08,0.9186311459347377,0.9186311459347377,0.0,0,False
2023-02-09,0.9186311459347377,0.9186311459347377,0.0,0,False
2023-02-10,0.9186311459347377,0.9186311459347377,0.0,0,False
2023-02-11,0.9186311459347377,0.9186311459347377,0.0,0,False
2023-02-12,0.9186311459347377,0.9186311459347377,0.0,0,False
2023-02-13,0.9186311459347377,0.9186311459347377,0.0,0,False
2023-02-14,0.9186311459347377,0.9186311459347377,0.0,0,False
2023-02-15,0.9186311459347377,0.9186311459347377,0.0,0,False
2023-02-16,0.9186311459347377,0.9186311459347377,0.0,0,False
2023-02-17,0.9186311459347377,0.9186311459347377,0.0,0,False
2023-02-18,0.9186311459347377,0.9186311459347377,0.0,0,False
2023-02-19,0.9186311459347377,0.9186311459347377,0.0,0,False
2023-02-20,0.9186311459347377,0.9186311459347377,0.0,0,False
2023-02-21,0.9186311459347377,0.9186311459347377,0.0,0,False
2023-02-22,0.9186311459347377,0.9186311459347377,0.0,0,False
2023-02-23,0.9186311459347377,0.9186311459347377,0.0,0,False
2023-02-24,0.9186311459347377,0.9186311459347377,0.0,0,False
2023-02-25,0.9186311459347377,0.9186311459347377,0.0,0,False
2023-02-26,0.9186311459347377,0.9186311459347377,0.0,0,False
2023-02-27,0.9186311459347377,0.9186311459347377,0.0,0,False
2023-02-28,0.9186311459347377,0.9186311459347377,0.0,0,False
2023-03-01,0.9186311459347377,0.9186311459347377,0.0,0,False
2023-03-02,0.9186311459347377,0.9186311459347377,0.0,0,False
2023-03-03,0.9186311459347377,0.9186311459347377,0.0,0,False
2023-03-04,0.9186311459347377,0.9186311459347377,0.0,0,False
2023-03-05,0.9186311459347377,0.9186311459347377,0.0,0,False
2023-03-06,0.9186311459347377,0.9186311459347377,0.0,0,False
2023-03-07,0.9186311459347377,0.9186311459347377,0.0,0,False
2023-03-08,0.9186311459347377,0.9186311459347377,0.0,0,False
2023-03-09,0.9186311459347377,0.9186311459347377,0.0,0,False
2023-03-10,0.9186311459347377,0.9186311459347377,0.0,0,False
2023-03-11,0.9186311459347377,0.9186311459347377,0.0,0,False
2023-03-12,0.9186311459347377,0.9186311459347377,0.0,0,False
2023-03-13,0.9186311459347377,0.9186311459347377,0.0,0,False
2023-03-14,0.9186311459347377,0.9186311459347377,0.0,0,False
2023-03-15,0.9186311459347377,0.9186311459347377,0.0,0,False
2023-03-16,0.9186311459347377,0.9186311459347377,0.0,0,False
2023-03-17,0.9186311459347377,0.9186311459347377,0.0,0,False
2023-03-18,0.9186311459347377,0.9186311459347377,0.0,0,False
2023-03-19,0.9186311459347377,0.9186311459347377,0.0,0,False
2023-03-20,0.9186311459347377,0.9186311459347377,0.0,0,False
2023-03-21,0.9186311459347377,0.9186311459347377,0.0,0,False
2023-03-22,0.9186311459347377,0.9186311459347377,0.0,0,False
2023-03-23,0.9186311459347377,0.9186311459347377,0.0,0,False
2023-03-24,0.9186311459347377,0.9186311459347377,0.0,0,False
2023-03-25,0.9186311459347377,0.9186311459347377,0.0,0,False
2023-03-26,0.9186311459347377,0.9186311459347377,0.0,0,False
2023-03-27,0.9186311459347377,0.9186311459347377,0.0,0,False
2023-03-28,0.9186311459347377,0.9186311459347377,0.0,0,False
2023-03-29,0.9186311459347377,0.9186311459347377,0.0,0,False
2023-03-30,0.9186311459347377,0.9186311459347377,0.0,0,False
2023-03-31,0.9186311459347377,0.9186311459347377,0.0,0,False
2023-04-01,0.9186311459347377,0.9186311459347377,0.0,0,False
2023-04-02,0.9186311459347377,0.9186311459347377,0.0,0,False
2023-04-03,0.9186311459347377,0.9186311459347377,0.0,0,False
2023-04-04,0.9186311459347377,0.9186311459347377,0.0,0,False
2023-04-05,0.9186311459347377,0.9186311459347377,0.0,0,False
2023-04-06,0.9186311459347377,0.9186311459347377,0.0,0,False
2023-04-07,0.9186311459347377,0.9186311459347377,0.0,0,False
2023-04-08,0.9186311459347377,0.9186311459347377,0.0,0,False
2023-04-09,0.9186311459347377,0.9186311459347377,0.0,0,False
2023-04-10,0.9186311459347377,0.9186311459347377,0.0,0,False
2023-04-11,0.9186311459347377,0.9186311459347377,0.0,0,False
2023-04-12,0.9186311459347377,0.9186311459347377,0.0,0,False
2023-04-13,0.9186311459347377,0.9186311459347377,0.0,0,False
2023-04-14,0.9186311459347377,0.9186311459347377,0.0,0,False
2023-04-15,0.9186311459347377,0.9186311459347377,0.0,0,False
2023-04-16,0.9186311459347377,0.9186311459347377,0.0,0,False
2023-04-17,0.9186311459347377,0.9186311459347377,0.0,0,False
2023-04-18,0.9186311459347377,0.9186311459347377,0.0,0,False
2023-04-19,0.9186311459347377,0.9186311459347377,0.0,0,False
2023-04-20,0.9186311459347377,0.9186311459347377,0.0,0,False
2023-04-21,0.9186311459347377,0.9186311459347377,0.0,0,False
2023-04-22,0.9186311459347377,0.9186311459347377,0.0,0,False
2023-04-23,0.9186311459347377,0.9186311459347377,0.0,0,False
2023-04-24,0.9186311459347377,0.9186311459347377,0.0,0,False
2023-04-25,0.9186311459347377,0.9186311459347377,0.0,0,False
2023-04-26,0.9186311459347377,0.9186311459347377,0.0,0,False
2023-04-27,0.9186311459347377,0.9186311459347377,0.0,0,False
2023-04-28,0.9186311459347377,0.9186311459347377,0.0,0,False
2023-04-29,0.9186311459347377,0.9186311459347377,0.0,0,False
2023-04-30,0.9186311459347377,0.9186311459347377,0.0,0,False
2023-05-01,0.9186311459347377,0.9186311459347377,0.0,0,False
2023-05-02,0.9186311459347377,0.9186311459347377,0.0,0,False
2023-05-03,0.9186311459347377,0.9186311459347377,0.0,0,False
2023-05-04,0.9186311459347377,0.9186311459347377,0.0,0,False
2023-05-05,0.9186311459347377,0.9186311459347377,0.0,0,False
2023-05-06,0.9186311459347377,0.9186311459347377,0.0,0,False
2023-05-07,0.9186311459347377,0.9186311459347377,0.0,0,False
2023-05-08,0.9186311459347377,0.9186311459347377,0.0,0,False
2023-05-09,0.9186311459347377,0.9186311459347377,0.0,0,False
2023-05-10,0.9186311459347377,0.9186311459347377,0.0,0,False
2023-05-11,0.9186311459347377,0.9186311459347377,0.0,0,False
2023-05-12,0.9186311459347377,0.9186311459347377,0.0,0,False
2023-05-13,0.9186311459347377,0.9186311459347377,0.0,0,False
2023-05-14,0.9186311459347377,0.9186311459347377,0.0,0,False
2023-05-15,0.9186311459347377,0.9186311459347377,0.0,0,False
2023-05-16,0.9186311459347377,0.9186311459347377,0.0,0,False
2023-05-17,0.9186311459347377,0.9186311459347377,0.0,0,False
2023-05-18,0.9186311459347377,0.9186311459347377,0.0,0,False
2023-05-19,0.9186311459347377,0.9186311459347377,0.0,0,False
2023-05-20,0.9186311459347377,0.9186311459347377,0.0,0,False
2023-05-21,0.9186311459347377,0.9186311459347377,0.0,0,False
2023-05-22,0.9186311459347377,0.9186311459347377,0.0,0,False
2023-05-23,0.9186311459347377,0.9186311459347377,0.0,0,False
2023-05-24,0.9186311459347377,0.9186311459347377,0.0,0,False
2023-05-25,0.9186311459347377,0.9186311459347377,0.0,0,False
2023-05-26,0.9186311459347377,0.9186311459347377,0.0,0,False
2023-05-27,0.9186311459347377,0.9186311459347377,0.0,0,False
2023-05-28,0.9186311459347377,0.9186311459347377,0.0,0,False
2023-05-29,0.9186311459347377,0.9186311459347377,0.0,0,False
2023-05-30,0.9186311459347377,0.9186311459347377,0.0,0,False
2023-05-31,0.9186311459347377,0.9186311459347377,0.0,0,False
2023-06-01,0.9186311459347377,0.9186311459347377,0.0,0,False
2023-06-02,0.9186311459347377,0.9186311459347377,0.0,0,False
2023-06-03,0.9186311459347377,0.9186311459347377,0.0,0,False
2023-06-04,0.9186311459347377,0.9186311459347377,0.0,0,False
2023-06-05,0.9186311459347377,0.9186311459347377,0.0,0,False
2023-06-06,0.9186311459347377,0.9186311459347377,0.0,0,False
2023-06-07,0.9186311459347377,0.9186311459347377,0.0,0,False
2023-06-08,0.9186311459347377,0.9186311459347377,0.0,0,False
2023-06-09,0.9186311459347377,0.9186311459347377,0.0,0,False
2023-06-10,0.9186311459347377,0.9186311459347377,0.0,0,False
2023-06-11,0.9186311459347377,0.9186311459347377,0.0,0,False
2023-06-12,0.9186311459347377,0.9186311459347377,0.0,0,False
2023-06-13,0.9186311459347377,0.9186311459347377,0.0,0,False
2023-06-14,0.9186311459347377,0.9186311459347377,0.0,0,False
2023-06-15,0.9186311459347377,0.9186311459347377,0.0,0,False
2023-06-16,0.9186311459347377,0.9186311459347377,0.0,0,False
2023-06-17,0.9186311459347377,0.9186311459347377,0.0,0,False
2023-06-18,0.9186311459347377,0.9186311459347377,0.0,0,False
2023-06-19,0.9186311459347377,0.9186311459347377,0.0,0,False
2023-06-20,0.9186311459347377,0.9186311459347377,0.0,0,False
2023-06-21,0.9186311459347377,0.9186311459347377,0.0,0,False
2023-06-22,0.9186311459347377,0.9186311459347377,0.0,0,False
2023-06-23,0.9186311459347377,0.9186311459347377,0.0,0,False
2023-06-24,0.9186311459347377,0.9186311459347377,0.0,0,False
2023-06-25,0.9186311459347377,0.9186311459347377,0.0,0,False
2023-06-26,0.9186311459347377,0.9186311459347377,0.0,0,False
2023-06-27,0.9186311459347377,0.9186311459347377,0.0,0,False
2023-06-28,0.9186311459347377,0.9186311459347377,0.0,0,False
2023-06-29,0.9186311459347377,0.9186311459347377,0.0,0,False
2023-06-30,0.9186311459347377,0.9186311459347377,0.0,0,False
2023-07-01,0.9186311459347377,0.9186311459347377,0.0,0,False
2023-07-02,0.9186311459347377,0.9186311459347377,0.0,0,False
2023-07-03,0.9186311459347377,0.9186311459347377,0.0,0,False
2023-07-04,0.9186311459347377,0.9186311459347377,0.0,0,False
2023-07-05,0.9186311459347377,0.9186311459347377,0.0,0,False
2023-07-06,0.9186311459347377,0.9186311459347377,0.0,0,False
2023-07-07,0.9186311459347377,0.9186311459347377,0.0,0,False
2023-07-08,0.9186311459347377,0.9186311459347377,0.0,0,False
2023-07-09,0.9186311459347377,0.9186311459347377,0.0,0,False
2023-07-10,0.9186311459347377,0.9186311459347377,0.0,0,False
2023-07-11,0.9186311459347377,0.9186311459347377,0.0,0,False
2023-07-12,0.9186311459347377,0.9186311459347377,0.0,0,False
2023-07-13,0.9186311459347377,0.9186311459347377,0.0,0,False
2023-07-14,0.9186311459347377,0.9186311459347377,0.0,0,False
2023-07-15,0.9186311459347377,0.9186311459347377,0.0,0,False
2023-07-16,0.9186311459347377,0.9186311459347377,0.0,0,False
2023-07-17,0.9186311459347377,0.9186311459347377,0.0,0,False
2023-07-18,0.9186311459347377,0.9186311459347377,0.0,0,False
2023-07-19,0.9186311459347377,0.9186311459347377,0.0,0,False
2023-07-20,0.9186311459347377,0.9186311459347377,0.0,0,False
2023-07-21,0.9186311459347377,0.9186311459347377,0.0,0,False
2023-07-22,0.9186311459347377,0.9186311459347377,0.0,0,False
2023-07-23,0.9186311459347377,0.9186311459347377,0.0,0,False
2023-07-24,0.9186311459347377,0.9186311459347377,0.0,0,False
2023-07-25,0.9186311459347377,0.9186311459347377,0.0,0,False
2023-07-26,0.9186311459347377,0.9186311459347377,0.0,0,False
2023-07-27,0.9186311459347377,0.9186311459347377,0.0,0,False
2023-07-28,0.9186311459347377,0.9186311459347377,0.0,0,False
2023-07-29,0.9186311459347377,0.9186311459347377,0.0,0,False
2023-07-30,0.9186311459347377,0.9186311459347377,0.0,0,False
2023-07-31,0.9186311459347377,0.9186311459347377,0.0,0,False
2023-08-01,0.9186311459347377,0.9186311459347377,0.0,0,False
2023-08-02,0.9186311459347377,0.9186311459347377,0.0,0,False
2023-08-03,0.9186311459347377,0.9186311459347377,0.0,0,False
2023-08-04,0.9186311459347377,0.9186311459347377,0.0,0,False
2023-08-05,0.9186311459347377,0.9186311459347377,0.0,0,False
2023-08-06,0.9186311459347377,0.9186311459347377,0.0,0,False
2023-08-07,0.9186311459347377,0.9186311459347377,0.0,0,False
2023-08-08,0.9186311459347377,0.9186311459347377,0.0,0,False
2023-08-09,0.9186311459347377,0.9186311459347377,0.0,0,False
2023-08-10,0.9186311459347377,0.9186311459347377,0.0,0,False
2023-08-11,0.9186311459347377,0.9186311459347377,0.0,0,False
2023-08-12,0.9186311459347377,0.9186311459347377,0.0,0,False
2023-08-13,0.9186311459347377,0.9186311459347377,0.0,0,False
2023-08-14,0.9186311459347377,0.9186311459347377,0.0,0,False
2023-08-15,0.9186311459347377,0.9186311459347377,0.0,0,False
2023-08-16,0.9186311459347377,0.9186311459347377,0.0,0,False
2023-08-17,0.9186311459347377,0.9186311459347377,0.0,0,False
2023-08-18,0.9186311459347377,0.9186311459347377,0.0,0,False
2023-08-19,0.9186311459347377,0.9186311459347377,0.0,0,False
2023-08-20,0.9186311459347377,0.9186311459347377,0.0,0,False
2023-08-21,0.9186311459347377,0.9186311459347377,0.0,0,False
2023-08-22,0.9186311459347377,0.9186311459347377,0.0,0,False
2023-08-23,0.9186311459347377,0.9186311459347377,0.0,0,False
2023-08-24,0.9186311459347377,0.9186311459347377,0.0,0,False
2023-08-25,0.9186311459347377,0.9186311459347377,0.0,0,False
2023-08-26,0.9186311459347377,0.9186311459347377,0.0,0,False
2023-08-27,0.9186311459347377,0.9186311459347377,0.0,0,False
2023-08-28,0.9186311459347377,0.9186311459347377,0.0,0,False
2023-08-29,0.9186311459347377,0.9186311459347377,0.0,0,False
2023-08-30,0.9186311459347377,0.9186311459347377,0.0,0,False
2023-08-31,0.9186311459347377,0.9186311459347377,0.0,0,False
2023-09-01,0.9186311459347377,0.9186311459347377,0.0,0,False
2023-09-02,0.9186311459347377,0.9186311459347377,0.0,0,False
2023-09-03,0.9186311459347377,0.9186311459347377,0.0,0,False
2023-09-04,0.9186311459347377,0.9186311459347377,0.0,0,False
2023-09-05,0.9186311459347377,0.9186311459347377,0.0,0,False
2023-09-06,0.9186311459347377,0.9186311459347377,0.0,0,False
2023-09-07,0.9186311459347377,0.9186311459347377,0.0,0,False
2023-09-08,0.9186311459347377,0.9186311459347377,0.0,0,False
2023-09-09,0.9186311459347377,0.9186311459347377,0.0,0,False
2023-09-10,0.9186311459347377,0.9186311459347377,0.0,0,False
2023-09-11,0.9186311459347377,0.9186311459347377,0.0,0,False
2023-09-12,0.9186311459347377,0.9186311459347377,0.0,0,False
2023-09-13,0.9186311459347377,0.9186311459347377,0.0,0,False
2023-09-14,0.9186311459347377,0.9186311459347377,0.0,0,False
2023-09-15,0.9186311459347377,0.9186311459347377,0.0,0,False
2023-09-16,0.9186311459347377,0.9186311459347377,0.0,0,False
2023-09-17,0.9186311459347377,0.9186311459347377,0.0,0,False
2023-09-18,0.9186311459347377,0.9186311459347377,0.0,0,False
2023-09-19,0.9186311459347377,0.9186311459347377,0.0,0,False
2023-09-20,0.9186311459347377,0.9186311459347377,0.0,0,False
2023-09-21,0.9186311459347377,0.9186311459347377,0.0,0,False
2023-09-22,0.9186311459347377,0.9186311459347377,0.0,0,False
2023-09-23,0.9186311459347377,0.9186311459347377,0.0,0,False
2023-09-24,0.9186311459347377,0.9186311459347377,0.0,0,False
2023-09-25,0.9186311459347377,0.9186311459347377,0.0,0,False
2023-09-26,0.9186311459347377,0.9186311459347377,0.0,0,False
2023-09-27,0.9186311459347377,0.9186311459347377,0.0,0,False
2023-09-28,0.9186311459347377,0.9186311459347377,0.0,0,False
2023-09-29,0.9186311459347377,0.9186311459347377,0.0,0,False
2023-09-30,0.9186311459347377,0.9186311459347377,0.0,0,False
2023-10-01,0.9186311459347377,0.9186311459347377,0.0,0,False
2023-10-02,0.9186311459347377,0.9186311459347377,0.0,0,False
2023-10-03,0.9186311459347377,0.9186311459347377,0.0,0,False
2023-10-04,0.9186311459347377,0.9186311459347377,0.0,0,False
2023-10-05,0.9186311459347377,0.9186311459347377,0.0,0,False
2023-10-06,0.9186311459347377,0.9186311459347377,0.0,0,False
2023-10-07,0.9186311459347377,0.9186311459347377,0.0,0,False
2023-10-08,0.9186311459347377,0.9186311459347377,0.0,0,False
2023-10-09,0.9186311459347377,0.9186311459347377,0.0,0,False
2023-10-10,0.9186311459347377,0.9186311459347377,0.0,0,False
2023-10-11,0.9186311459347377,0.9186311459347377,0.0,0,False
2023-10-12,0.9186311459347377,0.9186311459347377,0.0,0,False
2023-10-13,0.9186311459347377,0.9186311459347377,0.0,0,False
2023-10-14,0.9186311459347377,0.9186311459347377,0.0,0,False
2023-10-15,0.9186311459347377,0.9186311459347377,0.0,0,False
2023-10-16,0.9186311459347377,0.9186311459347377,0.0,0,False
2023-10-17,0.9186311459347377,0.9186311459347377,0.0,0,False
2023-10-18,0.9186311459347377,0.9186311459347377,0.0,0,False
2023-10-19,0.9186311459347377,0.9186311459347377,0.0,0,False
2023-10-20,0.9186311459347377,0.9186311459347377,0.0,0,False
2023-10-21,0.9186311459347377,0.9186311459347377,0.0,0,False
2023-10-22,0.9186311459347377,0.9186311459347377,0.0,0,False
2023-10-23,0.9186311459347377,0.9186311459347377,0.0,0,False
2023-10-24,0.9186311459347377,0.9186311459347377,0.0,0,False
2023-10-25,0.9186311459347377,0.9186311459347377,0.0,0,False
2023-10-26,0.9186311459347377,0.9186311459347377,0.0,0,False
2023-10-27,0.9186311459347377,0.9186311459347377,0.0,0,False
2023-10-28,0.9186311459347377,0.9186311459347377,0.0,0,False
2023-10-29,0.9186311459347377,0.9186311459347377,0.0,0,False
2023-10-30,0.9186311459347377,0.9186311459347377,0.0,0,False
2023-10-31,0.9186311459347377,0.9186311459347377,0.0,0,False
2023-11-01,0.9186311459347377,0.9186311459347377,0.0,0,False
2023-11-02,0.9186311459347377,0.9186311459347377,0.0,0,False
2023-11-03,0.9186311459347377,0.9186311459347377,0.0,0,False
2023-11-04,0.9186311459347377,0.9186311459347377,0.0,0,False
2023-11-05,0.9186311459347377,0.9186311459347377,0.0,0,False
2023-11-06,0.9186311459347377,0.9186311459347377,0.0,0,False
2023-11-07,0.9186311459347377,0.9186311459347377,0.0,0,False
2023-11-08,0.9186311459347377,0.9186311459347377,0.0,0,False
2023-11-09,0.9186311459347377,0.9186311459347377,0.0,0,False
2023-11-10,0.9186311459347377,0.9186311459347377,0.0,0,False
2023-11-11,0.9186311459347377,0.9186311459347377,0.0,0,False
2023-11-12,0.9186311459347377,0.9186311459347377,0.0,0,False
2023-11-13,0.9186311459347377,0.9186311459347377,0.0,0,False
2023-11-14,0.9186311459347377,0.9186311459347377,0.0,0,False
2023-11-15,0.9186311459347377,0.9186311459347377,0.0,0,False
2023-11-16,0.9186311459347377,0.9186311459347377,0.0,0,False
2023-11-17,0.9186311459347377,0.9186311459347377,0.0,0,False
2023-11-18,0.9186311459347377,0.9186311459347377,0.0,0,False
2023-11-19,0.9186311459347377,0.9186311459347377,0.0,0,False
2023-11-20,0.9186311459347377,0.9186311459347377,0.0,0,False
2023-11-21,0.9186311459347377,0.9186311459347377,0.0,0,False
2023-11-22,0.9186311459347377,0.9186311459347377,0.0,0,False
2023-11-23,0.9186311459347377,0.9186311459347377,0.0,0,False
2023-11-24,0.9186311459347377,0.9186311459347377,0.0,0,False
2023-11-25,0.9186311459347377,0.9186311459347377,0.0,0,False
2023-11-26,0.9186311459347377,0.9186311459347377,0.0,0,False
2023-11-27,0.9186311459347377,0.9186311459347377,0.0,0,False
2023-11-28,0.9186311459347377,0.9186311459347377,0.0,0,False
2023-11-29,0.9186311459347377,0.9186311459347377,0.0,0,False
2023-11-30,0.9186311459347377,0.9186311459347377,0.0,0,False
2023-12-01,0.9186311459347377,0.9186311459347377,0.0,0,False
2023-12-02,0.9186311459347377,0.9186311459347377,0.0,0,False
2023-12-03,0.9186311459347377,0.9186311459347377,0.0,0,False
2023-12-04,0.9186311459347377,0.9186311459347377,0.0,0,False
2023-12-05,0.9186311459347377,0.9186311459347377,0.0,0,False
2023-12-06,0.9186311459347377,0.9186311459347377,0.0,0,False
2023-12-07,0.9186311459347377,0.9186311459347377,0.0,0,False
2023-12-08,0.9186311459347377,0.9186311459347377,0.0,0,False
2023-12-09,0.9186311459347377,0.9186311459347377,0.0,0,False
2023-12-10,0.9186311459347377,0.9186311459347377,0.0,0,False
2023-12-11,0.9186311459347377,0.9186311459347377,0.0,0,False
2023-12-12,0.9186311459347377,0.9186311459347377,0.0,0,False
2023-12-13,0.9186311459347377,0.9186311459347377,0.0,0,False
2023-12-14,0.9186311459347377,0.9186311459347377,0.0,0,False
2023-12-15,0.9186311459347377,0.9186311459347377,0.0,0,False
2023-12-16,0.9186311459347377,0.9186311459347377,0.0,0,False
2023-12-17,0.9186311459347377,0.9186311459347377,0.0,0,False
2023-12-18,0.9186311459347377,0.9186311459347377,0.0,0,False
2023-12-19,0.9186311459347377,0.9186311459347377,0.0,0,False
2023-12-20,0.9186311459347377,0.9186311459347377,0.0,0,False
2023-12-21,0.9186311459347377,0.9186311459347377,0.0,0,False
2023-12-22,0.9186311459347377,0.9186311459347377,0.0,0,False
2023-12-23,0.9186311459347377,0.9186311459347377,0.0,0,False
2023-12-24,0.9186311459347377,0.9186311459347377,0.0,0,False
2023-12-25,0.9186311459347377,0.9186311459347377,0.0,0,False
2023-12-26,0.9186311459347377,0.9186311459347377,0.0,0,False
2023-12-27,0.9186311459347377,0.9186311459347377,0.0,0,False
2023-12-28,0.9186311459347377,0.9186311459347377,0.0,0,False
2023-12-29,0.9186311459347377,0.9186311459347377,0.0,0,False
2023-12-30,0.9186311459347377,0.9186311459347377,0.0,0,False
2023-12-31,0.9186311459347377,0.9186311459347377,0.0,0,False
