day,start_equity,end_equity,return_pct,entries,active
2021-09-02,1.0,1.0,0.0,0,False
2021-09-03,1.0,1.0,0.0,0,False
2021-09-04,1.0,1.0,0.0,0,False
2021-09-05,1.0,1.0,0.0,0,False
2021-09-06,1.0,1.0,0.0,0,False
2021-09-07,1.0,1.0,0.0,0,False
2021-09-08,1.0,1.0,0.0,0,False
2021-09-09,1.0,1.0,0.0,0,False
2021-09-10,1.0,1.0,0.0,0,False
2021-09-11,1.0,1.0,0.0,0,False
2021-09-12,1.0,1.0,0.0,0,False
2021-09-13,1.0,1.0,0.0,0,False
2021-09-14,1.0,1.0,0.0,0,False
2021-09-15,1.0,1.0,0.0,0,False
2021-09-16,1.0,1.0,0.0,0,False
2021-09-17,1.0,1.0,0.0,0,False
2021-09-18,1.0,1.0,0.0,0,False
2021-09-19,1.0,1.0,0.0,0,False
2021-09-20,1.0,1.0,0.0,0,False
2021-09-21,1.0,1.0,0.0,0,False
2021-09-22,1.0,1.0,0.0,0,False
2021-09-23,1.0,1.0,0.0,0,False
2021-09-24,1.0,1.0,0.0,0,False
2021-09-25,1.0,1.0,0.0,0,False
2021-09-26,1.0,1.0,0.0,0,False
2021-09-27,1.0,1.0,0.0,0,False
2021-09-28,1.0,1.0,0.0,0,False
2021-09-29,1.0,1.0,0.0,0,False
2021-09-30,1.0,1.0,0.0,0,False
2021-10-01,1.0,1.0,0.0,0,False
2021-10-02,1.0,1.0,0.0,0,False
2021-10-03,1.0,1.0,0.0,0,False
2021-10-04,1.0,1.0,0.0,0,False
2021-10-05,1.0,1.0,0.0,0,False
2021-10-06,1.0,1.001489821323389,0.1489821323388929,1,True
2021-10-07,1.001489821323389,1.0006266840307554,-0.08618532852315841,0,True
2021-10-08,1.0006266840307554,1.0006266840307554,0.0,0,False
2021-10-09,1.0006266840307554,0.9986866545947173,-0.19388144120074946,3,True
2021-10-10,0.9986866545947173,1.0011029499451742,0.24194729541444637,1,True
2021-10-11,1.0011029499451742,0.9973633736513651,-0.3735456272518145,0,True
2021-10-12,0.9973633736513651,0.9973633736513651,0.0,0,False
2021-10-13,0.9973633736513651,1.0110936133521444,1.376653691473817,4,True
2021-10-14,1.0110936133521444,1.0244328406068035,1.319287064867769,0,True
2021-10-15,1.0244328406068035,1.0275945664412545,0.3086318311094072,1,True
2021-10-16,1.0275945664412545,1.0436681398378378,1.5641940821319311,0,True
2021-10-17,1.0436681398378378,1.0436681398378378,0.0,0,False
2021-10-18,1.0436681398378378,1.0427058494593981,-0.09220271671693814,1,True
2021-10-19,1.0427058494593981,1.0448361766498737,0.20430758987111108,0,True
2021-10-20,1.0448361766498737,1.0448361766498737,0.0,0,False
2021-10-21,1.0448361766498737,1.0448361766498737,0.0,0,False
2021-10-22,1.0448361766498737,1.0448361766498737,0.0,0,False
2021-10-23,1.0448361766498737,1.0448361766498737,0.0,0,False
2021-10-24,1.0448361766498737,1.0448361766498737,0.0,0,False
2021-10-25,1.0448361766498737,1.0485201893257912,0.3525923736417358,1,True
2021-10-26,1.0485201893257912,1.0485201893257912,0.0,0,False
2021-10-27,1.0485201893257912,1.0426326053674393,-0.5615136473564375,6,True
2021-10-28,1.0426326053674393,1.045998795374134,0.32285485696166294,0,True
2021-10-29,1.045998795374134,1.045998795374134,0.0,0,False
2021-10-30,1.045998795374134,1.045998795374134,0.0,0,False
2021-10-31,1.045998795374134,1.045998795374134,0.0,0,False
2021-11-01,1.045998795374134,1.047374151683937,0.13148737033783497,1,True
2021-11-02,1.047374151683937,1.0469076720768313,-0.04453801025695592,0,True
2021-11-03,1.0469076720768313,1.0470652448432294,0.015051257202602919,1,True
2021-11-04,1.0470652448432294,1.066729826354878,1.878066491892083,1,True
2021-11-05,1.066729826354878,1.059616517660216,-0.6668332054582948,0,True
2021-11-06,1.059616517660216,1.0565212765193943,-0.2921095593768519,1,True
2021-11-07,1.0565212765193943,1.0567007810458955,0.016990147807760536,0,True
2021-11-08,1.0567007810458955,1.0567007810458955,0.0,0,False
2021-11-09,1.0567007810458955,1.0567007810458955,0.0,0,False
2021-11-10,1.0567007810458955,1.0567007810458955,0.0,0,False
2021-11-11,1.0567007810458955,1.050200955736763,-0.6151055649546322,9,True
2021-11-12,1.050200955736763,1.0511021359790815,0.08581026682519255,0,True
2021-11-13,1.0511021359790815,1.05000842546004,-0.1040536862788155,1,True
2021-11-14,1.05000842546004,1.0503510466294805,0.03263032573195268,0,True
2021-11-15,1.0503510466294805,1.0503510466294805,0.0,0,False
2021-11-16,1.0503510466294805,1.066814957386534,1.5674674490862017,5,True
2021-11-17,1.066814957386534,1.0518085644524418,-1.4066537809757196,0,True
2021-11-18,1.0518085644524418,1.0490463682305566,-0.26261396942732773,2,True
2021-11-19,1.0490463682305566,1.0528956106843912,0.36692777082172334,1,True
2021-11-20,1.0528956106843912,1.0534361514291763,0.05133849351255382,0,True
2021-11-21,1.0534361514291763,1.0534361514291763,0.0,0,False
2021-11-22,1.0534361514291763,1.0481775234515003,-0.4991881065161685,1,True
2021-11-23,1.0481775234515003,1.0481775234515003,0.0,0,False
2021-11-24,1.0481775234515003,1.0481775234515003,0.0,0,False
2021-11-25,1.0481775234515003,1.0508166502843026,0.2517824293839066,2,True
2021-11-26,1.0508166502843026,1.028554839385757,-2.1185247581033795,7,True
2021-11-27,1.028554839385757,1.0403593757897032,1.1476817717366972,0,True
2021-11-28,1.0403593757897032,1.0351665685913622,-0.4991359062246348,1,True
2021-11-29,1.0351665685913622,1.0351665685913622,0.0,0,False
2021-11-30,1.0351665685913622,1.0351665685913622,0.0,0,False
2021-12-01,1.0351665685913622,1.0330993100674843,-0.19970298371314588,1,True
2021-12-02,1.0330993100674843,1.031076638166797,-0.19578678264291494,2,True
2021-12-03,1.031076638166797,1.025824199388566,-0.5094130333095026,1,True
2021-12-04,1.025824199388566,0.9561277114237817,-6.7941941715087495,15,True
2021-12-05,0.9561277114237817,0.9533408713048065,-0.29147153520164837,1,True
2021-12-06,0.9533408713048065,0.9412242562302633,-1.2709635597558666,7,True
2021-12-07,0.9412242562302633,0.9587049456973891,1.8572289601989755,0,True
2021-12-08,0.9587049456973891,0.9621604030650759,0.3604297008370283,1,True
2021-12-09,0.9621604030650759,0.9598429868639022,-0.2408554949664521,0,True
2021-12-10,0.9598429868639022,0.955047810614982,-0.49957923478584076,1,True
2021-12-11,0.955047810614982,0.9547840139069034,-0.027621309126790727,1,True
2021-12-12,0.9547840139069034,0.9563125905042418,0.16009658468030263,0,True
2021-12-13,0.9563125905042418,0.9529921730036522,-0.3472104763191264,1,True
2021-12-14,0.9529921730036522,0.9515365269545966,-0.1527448063364245,0,True
2021-12-15,0.9515365269545966,0.9515365269545966,0.0,0,False
2021-12-16,0.9515365269545966,0.9515365269545966,0.0,0,False
2021-12-17,0.9515365269545966,0.952048591214192,0.053814461672252456,2,True
2021-12-18,0.952048591214192,0.9576773253759788,0.5912234116756787,0,True
2021-12-19,0.9576773253759788,0.9547630155656441,-0.30431020272830844,1,True
2021-12-20,0.9547630155656441,0.952892430660371,-0.1959213830842521,0,True
2021-12-21,0.952892430660371,0.950384056818775,-0.263237880886269,1,True
2021-12-22,0.950384056818775,0.95082440535954,0.046333746615978555,0,True
2021-12-23,0.95082440535954,0.95082440535954,0.0,0,False
2021-12-24,0.95082440535954,0.95082440535954,0.0,0,False
2021-12-25,0.95082440535954,0.9525242924057575,0.17878033384877146,1,True
2021-12-26,0.9525242924057575,0.9521984336403672,-0.034210021517389055,0,True
2021-12-27,0.9521984336403672,0.9521984336403672,0.0,0,False
2021-12-28,0.9521984336403672,0.9521984336403672,0.0,0,False
2021-12-29,0.9521984336403672,0.9521984336403672,0.0,0,False
2021-12-30,0.9521984336403672,0.9521984336403672,0.0,0,False
2021-12-31,0.9521984336403672,0.9521984336403672,0.0,0,False
2022-01-01,0.9521984336403672,0.9521984336403672,0.0,0,False
2022-01-02,0.9521984336403672,0.9521984336403672,0.0,0,False
2022-01-03,0.9521984336403672,0.9521984336403672,0.0,0,False
2022-01-04,0.9521984336403672,0.9521984336403672,0.0,0,False
2022-01-05,0.9521984336403672,0.953595264292068,0.14669533180815542,1,True
2022-01-06,0.953595264292068,0.938129007033736,-1.6218890589619117,9,True
2022-01-07,0.938129007033736,0.9494560441419782,1.2074071927545393,4,True
2022-01-08,0.9494560441419782,0.9503134740012702,0.09030748338296757,0,True
2022-01-09,0.9503134740012702,0.9509675920078418,0.06883181439250041,1,True
2022-01-10,0.9509675920078418,0.9524171624392169,0.15243110738554222,0,True
2022-01-11,0.9524171624392169,0.9524171624392169,0.0,0,False
2022-01-12,0.9524171624392169,0.9524171624392169,0.0,0,False
2022-01-13,0.9524171624392169,0.9524171624392169,0.0,0,False
2022-01-14,0.9524171624392169,0.9524171624392169,0.0,0,False
2022-01-15,0.9524171624392169,0.9528765363493243,0.048232426737349066,1,True
2022-01-16,0.9528765363493243,0.9518857725650838,-0.10397609201674429,0,True
2022-01-17,0.9518857725650838,0.9540157322463875,0.22376210914090144,1,True
2022-01-18,0.9540157322463875,0.9599622718416705,0.623316722595435,0,True
2022-01-19,0.9599622718416705,0.9599622718416705,0.0,0,False
2022-01-20,0.9599622718416705,0.9599622718416705,0.0,0,False
2022-01-21,0.9599622718416705,0.9289865792136943,-3.226761461005112,7,True
2022-01-22,0.9289865792136943,0.9070994451982197,-2.356022627797283,8,True
2022-01-23,0.9070994451982197,0.9160816567370843,0.9902124388249112,0,True
2022-01-24,0.9160816567370843,0.9106185747220439,-0.5963531716701942,2,True
2022-01-25,0.9106185747220439,0.9256914901537343,1.655239180278234,0,True
2022-01-26,0.9256914901537343,0.9256914901537343,0.0,0,False
2022-01-27,0.9256914901537343,0.9390397126585779,1.4419731246126943,4,True
2022-01-28,0.9390397126585779,0.9266061565358313,-1.3240713843235774,0,True
2022-01-29,0.9266061565358313,0.9266061565358313,0.0,0,False
2022-01-30,0.9266061565358313,0.9332592152074916,0.7180028564166996,1,True
2022-01-31,0.9332592152074916,0.9320255563099665,-0.1321882363894744,0,True
2022-02-01,0.9320255563099665,0.9320255563099665,0.0,0,False
2022-02-02,0.9320255563099665,0.9320255563099665,0.0,0,False
2022-02-03,0.9320255563099665,0.9296384097676614,-0.2561245800765555,3,True
2022-02-04,0.9296384097676614,0.9355826015974716,0.6394090183188261,0,True
2022-02-05,0.9355826015974716,0.9355826015974716,0.0,0,False
2022-02-06,0.9355826015974716,0.9355826015974716,0.0,0,False
2022-02-07,0.9355826015974716,0.9355826015974716,0.0,0,False
2022-02-08,0.9355826015974716,0.9355826015974716,0.0,0,False
2022-02-09,0.9355826015974716,0.9380874871595511,0.26773537235542655,2,True
2022-02-10,0.9380874871595511,0.9398849800578506,0.19161250127555096,5,True
2022-02-11,0.9398849800578506,0.9309350376192947,-0.9522380534270236,0,True
2022-02-12,0.9309350376192947,0.9123748557009921,-1.993713972326916,4,True
2022-02-13,0.9123748557009921,0.9123748557009921,0.0,0,False
2022-02-14,0.9123748557009921,0.9123748557009921,0.0,0,False
2022-02-15,0.9123748557009921,0.9123748557009921,0.0,0,False
2022-02-16,0.9123748557009921,0.9123748557009921,0.0,0,False
2022-02-17,0.9123748557009921,0.9123748557009921,0.0,0,False
2022-02-18,0.9123748557009921,0.9123748557009921,0.0,0,False
2022-02-19,0.9123748557009921,0.9123748557009921,0.0,0,False
2022-02-20,0.9123748557009921,0.9123748557009921,0.0,0,False
2022-02-21,0.9123748557009921,0.9123748557009921,0.0,0,False
2022-02-22,0.9123748557009921,0.911013636987188,-0.14919511484764447,2,True
2022-02-23,0.911013636987188,0.9102382857567972,-0.0851086305310278,0,True
2022-02-24,0.9102382857567972,0.8921009445877384,-1.9925926488555623,4,True
2022-02-25,0.8921009445877384,0.8921009445877384,0.0,0,False
2022-02-26,0.8921009445877384,0.8921009445877384,0.0,0,False
2022-02-27,0.8921009445877384,0.8921009445877384,0.0,0,False
2022-02-28,0.8921009445877384,0.8943761371845897,0.25503757289515594,1,True
2022-03-01,0.8943761371845897,0.8970929128922233,0.3037620968047827,0,True
2022-03-02,0.8970929128922233,0.8970929128922233,0.0,0,False
2022-03-03,0.8970929128922233,0.8970929128922233,0.0,0,False
2022-03-04,0.8970929128922233,0.8954549632012786,-0.18258417466078258,1,True
2022-03-05,0.8954549632012786,0.8948404943807866,-0.0686208514937725,0,True
2022-03-06,0.8948404943807866,0.8890851017364274,-0.6431752564284521,3,True
2022-03-07,0.8890851017364274,0.8840877216421992,-0.5620811871066222,0,True
2022-03-08,0.8840877216421992,0.8851551822642462,0.12074148253797823,1,True
2022-03-09,0.8851551822642462,0.8934414214549349,0.9361340651582006,1,True
2022-03-10,0.8934414214549349,0.8912353076715112,-0.24692315919617736,3,True
2022-03-11,0.8912353076715112,0.8871924147094855,-0.4536280067929943,0,True
2022-03-12,0.8871924147094855,0.8871924147094855,0.0,0,False
2022-03-13,0.8871924147094855,0.8871924147094855,0.0,0,False
2022-03-14,0.8871924147094855,0.8827647706423122,-0.4990624349085704,1,True
2022-03-15,0.8827647706423122,0.883728651156298,0.10918882878441227,1,True
2022-03-16,0.883728651156298,0.8869403673366558,0.3634278662523416,1,True
2022-03-17,0.8869403673366558,0.8882343811254435,0.14589636873485468,1,True
2022-03-18,0.8882343811254435,0.8873644150141538,-0.09794330525547679,0,True
2022-03-19,0.8873644150141538,0.8873644150141538,0.0,0,False
2022-03-20,0.8873644150141538,0.8829319388119262,-0.49951024936658595,1,True
2022-03-21,0.8829319388119262,0.8829897156884535,0.006543752013898896,3,True
2022-03-22,0.8829897156884535,0.8794010664172663,-0.40642027958266436,0,True
2022-03-23,0.8794010664172663,0.8794010664172663,0.0,0,False
2022-03-24,0.8794010664172663,0.8794010664172663,0.0,0,False
2022-03-25,0.8794010664172663,0.8794010664172663,0.0,0,False
2022-03-26,0.8794010664172663,0.8794010664172663,0.0,0,False
2022-03-27,0.8794010664172663,0.8794010664172663,0.0,0,False
2022-03-28,0.8794010664172663,0.8794010664172663,0.0,0,False
2022-03-29,0.8794010664172663,0.8794010664172663,0.0,0,False
2022-03-30,0.8794010664172663,0.8866194467233953,0.8208291508602583,4,True
2022-03-31,0.8866194467233953,0.8926112015332341,0.6757978106595841,5,True
2022-04-01,0.8926112015332341,0.8721533643957159,-2.2919090755726512,0,True
2022-04-02,0.8721533643957159,0.8721533643957159,0.0,0,False
2022-04-03,0.8721533643957159,0.8677998956255781,-0.4991632146204128,1,True
2022-04-04,0.8677998956255781,0.8677998956255781,0.0,0,False
2022-04-05,0.8677998956255781,0.8678220381566485,0.002551571068631908,3,True
2022-04-06,0.8678220381566485,0.844198632605448,-2.7221486102587567,7,True
2022-04-07,0.844198632605448,0.8405202633855102,-0.43572319094917766,0,True
2022-04-08,0.8405202633855102,0.8405202633855102,0.0,0,False
2022-04-09,0.8405202633855102,0.8405202633855102,0.0,0,False
2022-04-10,0.8405202633855102,0.8405202633855102,0.0,0,False
2022-04-11,0.8405202633855102,0.8334298958423695,-0.8435689003595925,6,True
2022-04-12,0.8334298958423695,0.8381203663106405,0.5627912427511594,0,True
2022-04-13,0.8381203663106405,0.8381203663106405,0.0,0,False
2022-04-14,0.8381203663106405,0.8381203663106405,0.0,0,False
2022-04-15,0.8381203663106405,0.8381203663106405,0.0,0,False
2022-04-16,0.8381203663106405,0.8381203663106405,0.0,0,False
2022-04-17,0.8381203663106405,0.8419722830559205,0.4595899228932998,1,True
2022-04-18,0.8419722830559205,0.8441010112190629,0.2528263941677711,6,True
2022-04-19,0.8441010112190629,0.8571381373802847,1.5444983465181972,0,True
2022-04-20,0.8571381373802847,0.8571381373802847,0.0,0,False
2022-04-21,0.8571381373802847,0.8595276222341028,0.27877476798796597,2,True
2022-04-22,0.8595276222341028,0.8550914612783886,-0.5161161597324382,0,True
2022-04-23,0.8550914612783886,0.8550914612783886,0.0,0,False
2022-04-24,0.8550914612783886,0.8550914612783886,0.0,0,False
2022-04-25,0.8550914612783886,0.8501394627572413,-0.5791191639013649,3,True
2022-04-26,0.8501394627572413,0.8534837010143718,0.3933752523714418,2,True
2022-04-27,0.8534837010143718,0.8522644432546034,-0.1428565956583916,0,True
2022-04-28,0.8522644432546034,0.8522644432546034,0.0,0,False
2022-04-29,0.8522644432546034,0.8522644432546034,0.0,0,False
2022-04-30,0.8522644432546034,0.8498267621048934,-0.28602403502849816,1,True
2022-05-01,0.8498267621048934,0.8545409206022998,0.5547199391238378,6,True
2022-05-02,0.8545409206022998,0.8569087188526978,0.2770842441025767,0,True
2022-05-03,0.8569087188526978,0.8580732306596914,0.13589683257659857,3,True
2022-05-04,0.8580732306596914,0.8512522578927065,-0.7949173244503727,1,True
2022-05-05,0.8512522578927065,0.8512522578927065,0.0,0,False
2022-05-06,0.8512522578927065,0.8403169901943892,-1.2846095381159772,4,True
2022-05-07,0.8403169901943892,0.8365911531220454,-0.4433847126525392,2,True
2022-05-08,0.8365911531220454,0.8259792091611282,-1.2684743224112283,3,True
2022-05-09,0.8259792091611282,0.8171189785850146,-1.072694140220809,3,True
2022-05-10,0.8171189785850146,0.8001324217915262,-2.078835180514782,7,True
2022-05-11,0.8001324217915262,0.7799037024380908,-2.5281714379405518,8,True
2022-05-12,0.7799037024380908,0.7715057886097447,-1.0767885576248748,0,True
2022-05-13,0.7715057886097447,0.7715057886097447,0.0,0,False
2022-05-14,0.7715057886097447,0.7620244914142194,-1.2289340320583597,4,True
2022-05-15,0.7620244914142194,0.7848392894140596,2.9939717498447926,1,True
2022-05-16,0.7848392894140596,0.7826152444950178,-0.28337583872771743,6,True
2022-05-17,0.7826152444950178,0.7905709249755664,1.016550666053262,4,True
2022-05-18,0.7905709249755664,0.7763494129367337,-1.7988913568092846,0,True
2022-05-19,0.7763494129367337,0.7910163900911807,1.88922370649649,6,True
2022-05-20,0.7910163900911807,0.7998479776325802,1.1164860364500706,1,True
2022-05-21,0.7998479776325802,0.7998479776325802,0.0,0,False
2022-05-22,0.7998479776325802,0.7998479776325802,0.0,0,False
2022-05-23,0.7998479776325802,0.8000579700974697,0.026254047114182555,1,True
2022-05-24,0.8000579700974697,0.7877311232161206,-1.5407442138033245,6,True
2022-05-25,0.7877311232161206,0.7862616624026559,-0.18654344993570549,1,True
2022-05-26,0.7862616624026559,0.7700532442088799,-2.06145345358012,8,True
2022-05-27,0.7700532442088799,0.7621136445034886,-1.0310455497850812,2,True
2022-05-28,0.7621136445034886,0.7630647060994195,0.12479262151912085,0,True
2022-05-29,0.7630647060994195,0.7592594827364698,-0.49867636814194816,1,True
2022-05-30,0.7592594827364698,0.7592594827364698,0.0,0,False
2022-05-31,0.7592594827364698,0.7574029099863047,-0.24452414390319088,1,True
2022-06-01,0.7574029099863047,0.7614038354803804,0.5282426884454461,1,True
2022-06-02,0.7614038354803804,0.7623996268590457,0.13078360421405755,1,True
2022-06-03,0.7623996268590457,0.7636611138825042,0.16546270210751057,0,True
2022-06-04,0.7636611138825042,0.7636611138825042,0.0,0,False
2022-06-05,0.7636611138825042,0.7636611138825042,0.0,0,False
2022-06-06,0.7636611138825042,0.765294179993083,0.21384696443114137,1,True
2022-06-07,0.765294179993083,0.7624985054278643,-0.36530717707065063,4,True
2022-06-08,0.7624985054278643,0.773816224613414,1.484293950084381,3,True
2022-06-09,0.773816224613414,0.7725105834376508,-0.16872755238693804,2,True
2022-06-10,0.7725105834376508,0.7697008357755191,-0.3637163972082358,4,True
2022-06-11,0.7697008357755191,0.7462178826724158,-3.0509195276425483,3,True
2022-06-12,0.7462178826724158,0.7360471788114428,-1.3629670498579993,7,True
2022-06-13,0.7360471788114428,0.7088736543869674,-3.691818297348115,4,True
2022-06-14,0.7088736543869674,0.7178680475828122,1.2688288159930616,4,True
2022-06-15,0.7178680475828122,0.717914417826253,0.006459438276573692,4,True
2022-06-16,0.717914417826253,0.7261931315950049,1.1531616531422761,1,True
2022-06-17,0.7261931315950049,0.7277540388954298,0.21494382589333227,0,True
2022-06-18,0.7277540388954298,0.7226516564927772,-0.7011135809561253,5,True
2022-06-19,0.7226516564927772,0.7251444763294049,0.34495455925833696,2,True
2022-06-20,0.7251444763294049,0.7263908208464064,0.17187533763067808,0,True
2022-06-21,0.7263908208464064,0.7263908208464064,0.0,0,False
2022-06-22,0.7263908208464064,0.7263908208464064,0.0,0,False
2022-06-23,0.7263908208464064,0.7263908208464064,0.0,0,False
2022-06-24,0.7263908208464064,0.7227663338036728,-0.49897203250864886,1,True
2022-06-25,0.7227663338036728,0.7217626656800497,-0.13886481379690174,3,True
2022-06-26,0.7217626656800497,0.7254140647460647,0.5059002411235358,0,True
2022-06-27,0.7254140647460647,0.7225065046877461,-0.40081385233913247,4,True
2022-06-28,0.7225065046877461,0.7203492734625653,-0.29857602819965967,2,True
2022-06-29,0.7203492734625653,0.7210908647022485,0.10294884259667292,2,True
2022-06-30,0.7210908647022485,0.7213633176258678,0.0377834385312692,1,True
2022-07-01,0.7213633176258678,0.7211673198692038,-0.027170463464798456,1,True
2022-07-02,0.7211673198692038,0.719929944135879,-0.17157956263870178,1,True
2022-07-03,0.719929944135879,0.7209350428050614,0.13961062147356262,1,True
2022-07-04,0.7209350428050614,0.723669139210112,0.37924309996260064,0,True
2022-07-05,0.723669139210112,0.723669139210112,0.0,0,False
2022-07-06,0.723669139210112,0.723669139210112,0.0,0,False
2022-07-07,0.723669139210112,0.723669139210112,0.0,0,False
2022-07-08,0.723669139210112,0.723669139210112,0.0,0,False
2022-07-09,0.723669139210112,0.723669139210112,0.0,0,False
2022-07-10,0.723669139210112,0.723669139210112,0.0,0,False
2022-07-11,0.723669139210112,0.7200555112589693,-0.499348079854145,1,True
2022-07-12,0.7200555112589693,0.7211845451192042,0.15679816938847235,2,True
2022-07-13,0.7211845451192042,0.7263546429521186,0.7168897153862153,5,True
2022-07-14,0.7263546429521186,0.7397433999003606,1.8432809755061452,0,True
2022-07-15,0.7397433999003606,0.7397433999003606,0.0,0,False
2022-07-16,0.7397433999003606,0.7397433999003606,0.0,0,False
2022-07-17,0.7397433999003606,0.7397433999003606,0.0,0,False
2022-07-18,0.7397433999003606,0.7397433999003606,0.0,0,False
2022-07-19,0.7397433999003606,0.7397433999003606,0.0,0,False
2022-07-20,0.7397433999003606,0.7398312217892494,0.011871939499652484,1,True
2022-07-21,0.7398312217892494,0.7341982108220468,-0.7613913553931151,5,True
2022-07-22,0.7341982108220468,0.7342173214908673,0.0026029304537544817,0,True
2022-07-23,0.7342173214908673,0.7330200543088468,-0.1630671392482852,1,True
2022-07-24,0.7330200543088468,0.7367402705006654,0.5075190194252288,1,True
2022-07-25,0.7367402705006654,0.7371874092117813,0.060691498621623374,1,True
2022-07-26,0.7371874092117813,0.7367995477404303,-0.05261368635767205,1,True
2022-07-27,0.7367995477404303,0.7381900032518149,0.18871557612227807,0,True
2022-07-28,0.7381900032518149,0.7381900032518149,0.0,0,False
2022-07-29,0.7381900032518149,0.7381900032518149,0.0,0,False
2022-07-30,0.7381900032518149,0.7381900032518149,0.0,0,False
2022-07-31,0.7381900032518149,0.7374770202064616,-0.09658530218678019,1,True
2022-08-01,0.7374770202064616,0.7374358796465761,-0.005578554823848503,1,True
2022-08-02,0.7374358796465761,0.7363256026607813,-0.1505591220116509,1,True
2022-08-03,0.7363256026607813,0.738745867822975,0.32869496231664463,1,True
2022-08-04,0.738745867822975,0.7367700408386573,-0.2674569253619419,0,True
2022-08-05,0.7367700408386573,0.7383789558406739,0.21837410763678733,1,True
2022-08-06,0.7383789558406739,0.7382667133509832,-0.0152012037725191,0,True
2022-08-07,0.7382667133509832,0.7390971661646873,0.11248682876880967,2,True
2022-08-08,0.7390971661646873,0.739606328317969,0.0688897450282333,0,True
2022-08-09,0.739606328317969,0.7369908348914148,-0.3536331865226727,5,True
2022-08-10,0.7369908348914148,0.7479296509599213,1.4842540165534324,1,True
2022-08-11,0.7479296509599213,0.7500875073965207,0.2885106151133465,1,True
2022-08-12,0.7500875073965207,0.7489051258717158,-0.15763247796366509,1,True
2022-08-13,0.7489051258717158,0.7489051258717158,0.0,0,False
2022-08-14,0.7489051258717158,0.7489051258717158,0.0,0,False
2022-08-15,0.7489051258717158,0.7489051258717158,0.0,0,False
2022-08-16,0.7489051258717158,0.748424705395673,-0.06414971128466673,1,True
2022-08-17,0.748424705395673,0.7460098757170978,-0.3226549927021094,1,True
2022-08-18,0.7460098757170978,0.7424172713776932,-0.48157597591468315,1,True
2022-08-19,0.7424172713776932,0.7263529124286853,-2.1637911142877275,10,True
2022-08-20,0.7263529124286853,0.7264275166687204,0.010271073297651867,1,True
2022-08-21,0.7264275166687204,0.7302097147319054,0.5206573231875344,0,True
2022-08-22,0.7302097147319054,0.7302097147319054,0.0,0,False
2022-08-23,0.7302097147319054,0.7302097147319054,0.0,0,False
2022-08-24,0.7302097147319054,0.7302097147319054,0.0,0,False
2022-08-25,0.7302097147319054,0.7289026947627785,-0.17899241036621882,1,True
2022-08-26,0.7289026947627785,0.7277582337345141,-0.1570114963886704,0,True
2022-08-27,0.7277582337345141,0.7211294872134872,-0.9108445928548647,3,True
2022-08-28,0.7211294872134872,0.719774558630816,-0.18788977662067552,0,True
2022-08-29,0.719774558630816,0.7198102781577402,0.004962599260549538,1,True
2022-08-30,0.7198102781577402,0.7176192732546903,-0.30438644314131347,1,True
2022-08-31,0.7176192732546903,0.7176192732546903,0.0,0,False
2022-09-01,0.7176192732546903,0.7176192732546903,0.0,0,False
2022-09-02,0.7176192732546903,0.7176192732546903,0.0,0,False
2022-09-03,0.7176192732546903,0.7176192732546903,0.0,0,False
2022-09-04,0.7176192732546903,0.7176192732546903,0.0,0,False
2022-09-05,0.7176192732546903,0.7176192732546903,0.0,0,False
2022-09-06,0.7176192732546903,0.7161314851691734,-0.2073227602666372,1,True
2022-09-07,0.7161314851691734,0.704791560646731,-1.5834975500013782,5,True
2022-09-08,0.704791560646731,0.7047911280708962,-6.137642091230688e-05,0,True
2022-09-09,0.7047911280708962,0.7047911280708962,0.0,0,False
2022-09-10,0.7047911280708962,0.7047911280708962,0.0,0,False
2022-09-11,0.7047911280708962,0.7047911280708962,0.0,0,False
2022-09-12,0.7047911280708962,0.7047911280708962,0.0,0,False
2022-09-13,0.7047911280708962,0.6986941211919436,-0.8650799699537637,4,True
2022-09-14,0.6986941211919436,0.6942055557718201,-0.6424220963053506,0,True
2022-09-15,0.6942055557718201,0.6969025337708802,0.3884984752191345,1,True
2022-09-16,0.6969025337708802,0.6949537356065644,-0.27963711851799467,1,True
2022-09-17,0.6949537356065644,0.6944229550825336,-0.07637638260444835,1,True
2022-09-18,0.6944229550825336,0.6953999929108697,0.1406978011289972,0,True
2022-09-19,0.6953999929108697,0.6900111362466221,-0.774929065168728,8,True
2022-09-20,0.6900111362466221,0.6900189904952717,0.0011382785344959956,0,True
2022-09-21,0.6900189904952717,0.6900189904952717,0.0,0,False
2022-09-22,0.6900189904952717,0.6908203751730607,0.11613951048126125,1,True
2022-09-23,0.6908203751730607,0.6911302044719734,0.044849473183972144,0,True
2022-09-24,0.6911302044719734,0.6911302044719734,0.0,0,False
2022-09-25,0.6911302044719734,0.6911302044719734,0.0,0,False
2022-09-26,0.6911302044719734,0.6911302044719734,0.0,0,False
2022-09-27,0.6911302044719734,0.6911302044719734,0.0,0,False
2022-09-28,0.6911302044719734,0.6911302044719734,0.0,0,False
2022-09-29,0.6911302044719734,0.6911302044719734,0.0,0,False
2022-09-30,0.6911302044719734,0.6911302044719734,0.0,0,False
2022-10-01,0.6911302044719734,0.6911302044719734,0.0,0,False
2022-10-02,0.6911302044719734,0.6911302044719734,0.0,0,False
2022-10-03,0.6911302044719734,0.6911302044719734,0.0,0,False
2022-10-04,0.6911302044719734,0.6911302044719734,0.0,0,False
2022-10-05,0.6911302044719734,0.6911302044719734,0.0,0,False
2022-10-06,0.6911302044719734,0.6911302044719734,0.0,0,False
2022-10-07,0.6911302044719734,0.6911302044719734,0.0,0,False
2022-10-08,0.6911302044719734,0.689713432177383,-0.2049935432459904,1,True
2022-10-09,0.689713432177383,0.6888522399303773,-0.12486232786376172,0,True
2022-10-10,0.6888522399303773,0.6888522399303773,0.0,0,False
2022-10-11,0.6888522399303773,0.7030361058141162,2.0590578155298633,5,True
2022-10-12,0.7030361058141162,0.6992480164936333,-0.5388186025092279,2,True
2022-10-13,0.6992480164936333,0.6991346488319171,-0.01621279703940548,1,True
2022-10-14,0.6991346488319171,0.7054460286240911,0.902741668249285,0,True
2022-10-15,0.7054460286240911,0.7054460286240911,0.0,0,False
2022-10-16,0.7054460286240911,0.7054460286240911,0.0,0,False
2022-10-17,0.7054460286240911,0.7054460286240911,0.0,0,False
2022-10-18,0.7054460286240911,0.7054460286240911,0.0,0,False
2022-10-19,0.7054460286240911,0.7054460286240911,0.0,0,False
2022-10-20,0.7054460286240911,0.7089515515931969,0.4969229149879739,2,True
2022-10-21,0.7089515515931969,0.7055560784362895,-0.4789429050937044,0,True
2022-10-22,0.7055560784362895,0.7055560784362895,0.0,0,False
2022-10-23,0.7055560784362895,0.7055560784362895,0.0,0,False
2022-10-24,0.7055560784362895,0.7055560784362895,0.0,0,False
2022-10-25,0.7055560784362895,0.7051291222187984,-0.060513434798459276,1,True
2022-10-26,0.7051291222187984,0.7062191493663929,0.1545854671502589,0,True
2022-10-27,0.7062191493663929,0.7062191493663929,0.0,0,False
2022-10-28,0.7062191493663929,0.7062191493663929,0.0,0,False
2022-10-29,0.7062191493663929,0.7062191493663929,0.0,0,False
2022-10-30,0.7062191493663929,0.7062191493663929,0.0,0,False
2022-10-31,0.7062191493663929,0.7062191493663929,0.0,0,False
2022-11-01,0.7062191493663929,0.7062191493663929,0.0,0,False
2022-11-02,0.7062191493663929,0.709807781430724,0.5081470911049157,2,True
2022-11-03,0.709807781430724,0.7113383750148696,0.2156349400763924,0,True
2022-11-04,0.7113383750148696,0.7116644144551693,0.0458346480031846,2,True
2022-11-05,0.7116644144551693,0.7103379312896156,-0.18639166700068488,0,True
2022-11-06,0.7103379312896156,0.7106295852677433,0.041058482910827365,1,True
2022-11-07,0.7106295852677433,0.7126571832944985,0.2853241785579774,3,True
2022-11-08,0.7126571832944985,0.6940868591676019,-2.6057864232910566,6,True
2022-11-09,0.6940868591676019,0.666509337195553,-3.973209059903804,5,True
2022-11-10,0.666509337195553,0.666509337195553,0.0,0,False
2022-11-11,0.666509337195553,0.661059951002404,-0.8176008780429456,7,True
2022-11-12,0.661059951002404,0.6588460780456583,-0.334897455728278,5,True
2022-11-13,0.6588460780456583,0.6618572990726547,0.4570446918237048,1,True
2022-11-14,0.6618572990726547,0.6596669423541521,-0.3309409326710644,2,True
2022-11-15,0.6596669423541521,0.6603143429953013,0.09814053116543597,0,True
2022-11-16,0.6603143429953013,0.660001860488953,-0.047323295285517375,1,True
2022-11-17,0.660001860488953,0.661048501448315,0.15858151651064745,1,True
2022-11-18,0.661048501448315,0.6625556485014292,0.22799341497821146,0,True
2022-11-19,0.6625556485014292,0.6625053367986988,-0.007593581436393659,3,True
2022-11-20,0.6625053367986988,0.6566519572958003,-0.8835218643192699,2,True
2022-11-21,0.6566519572958003,0.6435653577513474,-1.9929278210554124,4,True
2022-11-22,0.6435653577513474,0.6409288717687728,-0.40966872296959167,0,True
2022-11-23,0.6409288717687728,0.6471084969791946,0.9641670835279781,1,True
2022-11-24,0.6471084969791946,0.6446239632106887,-0.38394392595740845,1,True
2022-11-25,0.6446239632106887,0.6435101983391214,-0.1727774540089988,1,True
2022-11-26,0.6435101983391214,0.6443998939675182,0.13825664778788216,0,True
2022-11-27,0.6443998939675182,0.6443998939675182,0.0,0,False
2022-11-28,0.6443998939675182,0.6417278600495742,-0.4146546178790511,4,True
2022-11-29,0.6417278600495742,0.6424102040957705,0.10632919165198818,0,True
2022-11-30,0.6424102040957705,0.6424102040957705,0.0,0,False
2022-12-01,0.6424102040957705,0.6423784535641185,-0.004942407740349264,1,True
2022-12-02,0.6423784535641185,0.6423784535641185,0.0,0,False
2022-12-03,0.6423784535641185,0.6423784535641185,0.0,0,False
2022-12-04,0.6423784535641185,0.6423784535641185,0.0,0,False
2022-12-05,0.6423784535641185,0.6423784535641185,0.0,0,False
2022-12-06,0.6423784535641185,0.643222058118228,0.1313251634498247,2,True
2022-12-07,0.643222058118228,0.6400278733126259,-0.4965913039342573,1,True
2022-12-08,0.6400278733126259,0.6382382148080213,-0.27962196323446653,1,True
2022-12-09,0.6382382148080213,0.6382382148080213,0.0,0,False
2022-12-10,0.6382382148080213,0.6382382148080213,0.0,0,False
2022-12-11,0.6382382148080213,0.6382382148080213,0.0,0,False
2022-12-12,0.6382382148080213,0.6379036612577494,-0.05241828873762122,1,True
2022-12-13,0.6379036612577494,0.6378722248519174,-0.004928080483190822,0,True
2022-12-14,0.6378722248519174,0.6378722248519174,0.0,0,False
2022-12-15,0.6378722248519174,0.6378722248519174,0.0,0,False
2022-12-16,0.6378722248519174,0.6389582540959851,0.17025811781030686,5,True
2022-12-17,0.6389582540959851,0.626911454931473,-1.885381257271046,5,True
2022-12-18,0.626911454931473,0.6269262345132138,0.002357523000173778,0,True
2022-12-19,0.6269262345132138,0.6269262345132138,0.0,0,False
2022-12-20,0.6269262345132138,0.6269262345132138,0.0,0,False
2022-12-21,0.6269262345132138,0.6269262345132138,0.0,0,False
2022-12-22,0.6269262345132138,0.6269262345132138,0.0,0,False
2022-12-23,0.6269262345132138,0.6269262345132138,0.0,0,False
2022-12-24,0.6269262345132138,0.6269262345132138,0.0,0,False
2022-12-25,0.6269262345132138,0.6269262345132138,0.0,0,False
2022-12-26,0.6269262345132138,0.6269262345132138,0.0,0,False
2022-12-27,0.6269262345132138,0.6269262345132138,0.0,0,False
2022-12-28,0.6269262345132138,0.6281930591172313,0.2020691644849082,4,True
2022-12-29,0.6281930591172313,0.6234225648717049,-0.7593993878617811,0,True
2022-12-30,0.6234225648717049,0.6234225648717049,0.0,0,False
2022-12-31,0.6234225648717049,0.6234225648717049,0.0,0,False
2023-01-01,0.6234225648717049,0.6234225648717049,0.0,0,False
2023-01-02,0.6234225648717049,0.6234225648717049,0.0,0,False
2023-01-03,0.6234225648717049,0.6234225648717049,0.0,0,False
2023-01-04,0.6234225648717049,0.6234225648717049,0.0,0,False
2023-01-05,0.6234225648717049,0.6234225648717049,0.0,0,False
2023-01-06,0.6234225648717049,0.6229045030720471,-0.08309962276780158,1,True
2023-01-07,0.6229045030720471,0.6239882042702815,0.17397549590503214,0,True
2023-01-08,0.6239882042702815,0.6239882042702815,0.0,0,False
2023-01-09,0.6239882042702815,0.6239882042702815,0.0,0,False
2023-01-10,0.6239882042702815,0.6230291687047876,-0.15369450238492677,2,True
2023-01-11,0.6230291687047876,0.621838971090002,-0.19103401165950773,1,True
2023-01-12,0.621838971090002,0.6224040589448707,0.09087366362359184,0,True
2023-01-13,0.6224040589448707,0.6224040589448707,0.0,0,False
2023-01-14,0.6224040589448707,0.6241403127592968,0.2789592692196585,4,True
2023-01-15,0.6241403127592968,0.625823578408834,0.2696934671781559,1,True
2023-01-16,0.625823578408834,0.6258223444285664,-0.0001971770176245613,0,True
2023-01-17,0.6258223444285664,0.6258223444285664,0.0,0,False
2023-01-18,0.6258223444285664,0.6258223444285664,0.0,0,False
2023-01-19,0.6258223444285664,0.6196207038797874,-0.9909586329075015,5,True
2023-01-20,0.6196207038797874,0.619617345910765,-0.0005419394480177253,0,True
2023-01-21,0.619617345910765,0.6202341302068161,0.09954277428183556,1,True
2023-01-22,0.6202341302068161,0.620158116859885,-0.012255589176579651,0,True
2023-01-23,0.620158116859885,0.620158116859885,0.0,0,False
2023-01-24,0.620158116859885,0.620158116859885,0.0,0,False
2023-01-25,0.620158116859885,0.6161289826569558,-0.6496946655040636,6,True
2023-01-26,0.6161289826569558,0.6309651406404241,2.4079630079224312,0,True
2023-01-27,0.6309651406404241,0.6309651406404241,0.0,0,False
2023-01-28,0.6309651406404241,0.6309651406404241,0.0,0,False
2023-01-29,0.6309651406404241,0.6309651406404241,0.0,0,False
2023-01-30,0.6309651406404241,0.6334731545971777,0.3974885132652428,4,True
2023-01-31,0.6334731545971777,0.6357402527781754,0.35788386051487375,2,True
2023-02-01,0.6357402527781754,0.6437758245352877,1.263970894087163,0,True
2023-02-02,0.6437758245352877,0.6437758245352877,0.0,0,False
2023-02-03,0.6437758245352877,0.6441477545104392,0.057773212502953974,1,True
2023-02-04,0.6441477545104392,0.6454489576300503,0.20200382761561553,0,True
2023-02-05,0.6454489576300503,0.6473999514748077,0.30226926880803084,5,True
2023-02-06,0.6473999514748077,0.64071347966176,-1.0328193256449292,0,True
2023-02-07,0.64071347966176,0.64071347966176,0.0,0,False
2023-02-08,0.64071347966176,0.639206731986034,-0.23516715717006864,1,True
2023-02-09,0.639206731986034,0.6434190237310988,0.6589873876917896,4,True
2023-02-10,0.6434190237310988,0.615485521314347,-4.3414169283912845,3,True
2023-02-11,0.615485521314347,0.615485521314347,0.0,0,False
2023-02-12,0.615485521314347,0.615485521314347,0.0,0,False
2023-02-13,0.615485521314347,0.6157682314835604,0.04593287078624719,2,True
2023-02-14,0.6157682314835604,0.6154851868323106,-0.04596610165612525,0,True
2023-02-15,0.6154851868323106,0.6154851868323106,0.0,0,False
2023-02-16,0.6154851868323106,0.6154851868323106,0.0,0,False
2023-02-17,0.6154851868323106,0.6194545219471771,0.6449115591709464,1,True
2023-02-18,0.6194545219471771,0.6187565235955275,-0.11267951510880447,0,True
2023-02-19,0.6187565235955275,0.6187565235955275,0.0,0,False
2023-02-20,0.6187565235955275,0.6231393587972968,0.7083295342570572,1,True
2023-02-21,0.6231393587972968,0.6198719584351534,-0.524345046740371,1,True
2023-02-22,0.6198719584351534,0.6198719584351534,0.0,0,False
2023-02-23,0.6198719584351534,0.6252000412077826,0.8595457013541585,1,True
2023-02-24,0.6252000412077826,0.6252000412077826,0.0,0,False
2023-02-25,0.6252000412077826,0.6249234339529692,-0.04424300009305826,1,True
2023-02-26,0.6249234339529692,0.6254674567255423,0.08705430825850513,0,True
2023-02-27,0.6254674567255423,0.6254674567255423,0.0,0,False
2023-02-28,0.6254674567255423,0.6254674567255423,0.0,0,False
2023-03-01,0.6254674567255423,0.6254674567255423,0.0,0,False
2023-03-02,0.6254674567255423,0.6232994405259915,-0.34662334166845055,1,True
2023-03-03,0.6232994405259915,0.6168108645788486,-1.0410046159623265,9,True
2023-03-04,0.6168108645788486,0.6184177836345071,0.26052054980509887,0,True
2023-03-05,0.6184177836345071,0.6231728475254865,0.7689080128054249,3,True
2023-03-06,0.6231728475254865,0.6220834749106314,-0.17481066756691588,0,True
2023-03-07,0.6220834749106314,0.6220834749106314,0.0,0,False
2023-03-08,0.6220834749106314,0.6220834749106314,0.0,0,False
2023-03-09,0.6220834749106314,0.6220834749106314,0.0,0,False
2023-03-10,0.6220834749106314,0.6078489101319194,-2.2882081509650987,7,True
2023-03-11,0.6078489101319194,0.6049424512452473,-0.47815482404029996,5,True
2023-03-12,0.6049424512452473,0.6102218461747684,0.8727102749449545,0,True
2023-03-13,0.6102218461747684,0.6102218461747684,0.0,0,False
2023-03-14,0.6102218461747684,0.6102218461747684,0.0,0,False
2023-03-15,0.6102218461747684,0.6071723870635009,-0.4997295869335616,1,True
2023-03-16,0.6071723870635009,0.6076820955324471,0.08394790010319841,1,True
2023-03-17,0.6076820955324471,0.6077495453257217,0.011099519595925145,1,True
2023-03-18,0.6077495453257217,0.6171724844536927,1.5504642003344893,1,True
2023-03-19,0.6171724844536927,0.6147615177212589,-0.39064715183599885,1,True
2023-03-20,0.6147615177212589,0.6147488376821948,-0.0020625947946606438,0,True
2023-03-21,0.6147488376821948,0.6147488376821948,0.0,0,False
2023-03-22,0.6147488376821948,0.6147488376821948,0.0,0,False
2023-03-23,0.6147488376821948,0.6275318463126097,2.0793871979670753,6,True
2023-03-24,0.6275318463126097,0.6216942498758979,-0.9302470418057096,1,True
2023-03-25,0.6216942498758979,0.6191688459725267,-0.4062131673045588,1,True
2023-03-26,0.6191688459725267,0.6193405394707032,0.02772967330209042,0,True
2023-03-27,0.6193405394707032,0.6162502665976255,-0.4989618273201879,1,True
2023-03-28,0.6162502665976255,0.6259918980488902,1.580791438038509,4,True
2023-03-29,0.6259918980488902,0.6262128180071665,0.03529118491227834,0,True
2023-03-30,0.6262128180071665,0.6262128180071665,0.0,0,False
2023-03-31,0.6262128180071665,0.6262128180071665,0.0,0,False
2023-04-01,0.6262128180071665,0.6262128180071665,0.0,0,False
2023-04-02,0.6262128180071665,0.6262128180071665,0.0,0,False
2023-04-03,0.6262128180071665,0.6262128180071665,0.0,0,False
2023-04-04,0.6262128180071665,0.6262128180071665,0.0,0,False
2023-04-05,0.6262128180071665,0.6262128180071665,0.0,0,False
2023-04-06,0.6262128180071665,0.6262128180071665,0.0,0,False
2023-04-07,0.6262128180071665,0.6244117385526131,-0.2876145940744368,1,True
2023-04-08,0.6244117385526131,0.6244117385526131,0.0,0,False
2023-04-09,0.6244117385526131,0.6244117385526131,0.0,0,False
2023-04-10,0.6244117385526131,0.6244117385526131,0.0,0,False
2023-04-11,0.6244117385526131,0.6244117385526131,0.0,0,False
2023-04-12,0.6244117385526131,0.6268689490532937,0.39352407217334573,1,True
2023-04-13,0.6268689490532937,0.6270968403337386,0.03635389514651255,0,True
2023-04-14,0.6270968403337386,0.6306637968965635,0.5688047416929409,1,True
2023-04-15,0.6306637968965635,0.630285801352454,-0.059936141248240205,0,True
2023-04-16,0.630285801352454,0.630285801352454,0.0,0,False
2023-04-17,0.630285801352454,0.630285801352454,0.0,0,False
2023-04-18,0.630285801352454,0.630285801352454,0.0,0,False
2023-04-19,0.630285801352454,0.6258738793296279,-0.6999875315863213,7,True
2023-04-20,0.6258738793296279,0.6216584543204683,-0.673526272365732,0,True
2023-04-21,0.6216584543204683,0.6216584543204683,0.0,0,False
2023-04-22,0.6216584543204683,0.6216584543204683,0.0,0,False
2023-04-23,0.6216584543204683,0.6216584543204683,0.0,0,False
2023-04-24,0.6216584543204683,0.6216584543204683,0.0,0,False
2023-04-25,0.6216584543204683,0.6216584543204683,0.0,0,False
2023-04-26,0.6216584543204683,0.6216584543204683,0.0,0,False
2023-04-27,0.6216584543204683,0.6186457274257252,-0.48462735024431547,8,True
2023-04-28,0.6186457274257252,0.6253683346294338,1.0866650985665638,0,True
2023-04-29,0.6253683346294338,0.6253683346294338,0.0,0,False
2023-04-30,0.6253683346294338,0.6253683346294338,0.0,0,False
2023-05-01,0.6253683346294338,0.6253683346294338,0.0,0,False
2023-05-02,0.6253683346294338,0.6253683346294338,0.0,0,False
2023-05-03,0.6253683346294338,0.6253683346294338,0.0,0,False
2023-05-04,0.6253683346294338,0.6253683346294338,0.0,0,False
2023-05-05,0.6253683346294338,0.6253683346294338,0.0,0,False
2023-05-06,0.6253683346294338,0.6222499048991018,-0.4986548818753045,1,True
2023-05-07,0.6222499048991018,0.6222499048991018,0.0,0,False
2023-05-08,0.6222499048991018,0.6256603718620293,0.5480863775271239,6,True
2023-05-09,0.6256603718620293,0.6119912502062718,-2.1847510679119386,6,True
2023-05-10,0.6119912502062718,0.6076927430720663,-0.7023804887335561,1,True
2023-05-11,0.6076927430720663,0.6042258626556765,-0.570498900293559,5,True
2023-05-12,0.6042258626556765,0.6019818509675238,-0.3713862359829956,0,True
2023-05-13,0.6019818509675238,0.6019818509675238,0.0,0,False
2023-05-14,0.6019818509675238,0.6019818509675238,0.0,0,False
2023-05-15,0.6019818509675238,0.6019818509675238,0.0,0,False
2023-05-16,0.6019818509675238,0.6019818509675238,0.0,0,False
2023-05-17,0.6019818509675238,0.6019818509675238,0.0,0,False
2023-05-18,0.6019818509675238,0.6005581862973867,-0.23649627772812654,1,True
2023-05-19,0.6005581862973867,0.598973014615059,-0.26394972518827275,0,True
2023-05-20,0.598973014615059,0.598973014615059,0.0,0,False
2023-05-21,0.598973014615059,0.598973014615059,0.0,0,False
2023-05-22,0.598973014615059,0.598973014615059,0.0,0,False
2023-05-23,0.598973014615059,0.598973014615059,0.0,0,False
2023-05-24,0.598973014615059,0.598973014615059,0.0,0,False
2023-05-25,0.598973014615059,0.598973014615059,0.0,0,False
2023-05-26,0.598973014615059,0.599874306021558,0.15047279001012548,1,True
2023-05-27,0.599874306021558,0.6014393998420542,0.2609036267740894,0,True
2023-05-28,0.6014393998420542,0.6014393998420542,0.0,0,False
2023-05-29,0.6014393998420542,0.6014393998420542,0.0,0,False
2023-05-30,0.6014393998420542,0.6038063512862322,0.39354778632718634,2,True
2023-05-31,0.6038063512862322,0.5985912507914032,-0.8637041468211981,1,True
2023-06-01,0.5985912507914032,0.5983114516684941,-0.046742935607424485,0,True
2023-06-02,0.5983114516684941,0.5983114516684941,0.0,0,False
2023-06-03,0.5983114516684941,0.5983114516684941,0.0,0,False
2023-06-04,0.5983114516684941,0.5953209621998607,-0.49982153279765074,1,True
2023-06-05,0.5953209621998607,0.5953209621998607,0.0,0,False
2023-06-06,0.5953209621998607,0.5883574301079535,-1.1697105484368087,9,True
2023-06-07,0.5883574301079535,0.5881548863121702,-0.0344252975179038,0,True
2023-06-08,0.5881548863121702,0.5881548863121702,0.0,0,False
2023-06-09,0.5881548863121702,0.5881548863121702,0.0,0,False
2023-06-10,0.5881548863121702,0.5932883129831829,0.8728018402091475,6,True
2023-06-11,0.5932883129831829,0.5927966497291091,-0.0828708813766399,1,True
2023-06-12,0.5927966497291091,0.5927925111239422,-0.0006981492167379422,0,True
2023-06-13,0.5927925111239422,0.5927925111239422,0.0,0,False
2023-06-14,0.5927925111239422,0.5927925111239422,0.0,0,False
2023-06-15,0.5927925111239422,0.5954864629315608,0.45445105278252296,4,True
2023-06-16,0.5954864629315608,0.600025599043507,0.7622568092648496,0,True
2023-06-17,0.600025599043507,0.600025599043507,0.0,0,False
2023-06-18,0.600025599043507,0.600025599043507,0.0,0,False
2023-06-19,0.600025599043507,0.600025599043507,0.0,0,False
2023-06-20,0.600025599043507,0.5970307105367557,-0.4991267891779061,1,True
2023-06-21,0.5970307105367557,0.5970307105367557,0.0,0,False
2023-06-22,0.5970307105367557,0.5970307105367557,0.0,0,False
2023-06-23,0.5970307105367557,0.5970307105367557,0.0,0,False
2023-06-24,0.5970307105367557,0.5970307105367557,0.0,0,False
2023-06-25,0.5970307105367557,0.5964070230871117,-0.10446488574822332,3,True
2023-06-26,0.5964070230871117,0.5944814571932687,-0.3228610360548556,0,True
2023-06-27,0.5944814571932687,0.5944814571932687,0.0,0,False
2023-06-28,0.5944814571932687,0.5944814571932687,0.0,0,False
2023-06-29,0.5944814571932687,0.5925658921960238,-0.32222451584761336,2,True
2023-06-30,0.5925658921960238,0.5854541171550877,-1.200166113945611,7,True
2023-07-01,0.5854541171550877,0.5941657991272249,1.4880213012200105,0,True
2023-07-02,0.5941657991272249,0.5941657991272249,0.0,0,False
2023-07-03,0.5941657991272249,0.5941657991272249,0.0,0,False
2023-07-04,0.5941657991272249,0.5941657991272249,0.0,0,False
2023-07-05,0.5941657991272249,0.5945775085815835,0.06929201494993986,1,True
2023-07-06,0.5945775085815835,0.5947930759701979,0.036255557181874565,1,True
2023-07-07,0.5947930759701979,0.5943248250683012,-0.07872500888362888,0,True
2023-07-08,0.5943248250683012,0.5943248250683012,0.0,0,False
2023-07-09,0.5943248250683012,0.5943248250683012,0.0,0,False
2023-07-10,0.5943248250683012,0.5943248250683012,0.0,0,False
2023-07-11,0.5943248250683012,0.5943248250683012,0.0,0,False
2023-07-12,0.5943248250683012,0.5934433890605911,-0.14830879857807844,1,True
2023-07-13,0.5934433890605911,0.5930695693481007,-0.06299163818845877,0,True
2023-07-14,0.5930695693481007,0.5930695693481007,0.0,0,False
2023-07-15,0.5930695693481007,0.5987129792553689,0.9515595132408183,5,True
2023-07-16,0.5987129792553689,0.5994859470864591,0.12910490633617488,1,True
2023-07-17,0.5994859470864591,0.600233275663942,0.12466156731696376,0,True
2023-07-18,0.600233275663942,0.600233275663942,0.0,0,False
2023-07-19,0.600233275663942,0.600233275663942,0.0,0,False
2023-07-20,0.600233275663942,0.600233275663942,0.0,0,False
2023-07-21,0.600233275663942,0.600233275663942,0.0,0,False
2023-07-22,0.600233275663942,0.600233275663942,0.0,0,False
2023-07-23,0.600233275663942,0.600233275663942,0.0,0,False
2023-07-24,0.600233275663942,0.6001080310119016,-0.020865996124908026,2,True
2023-07-25,0.6001080310119016,0.6006319977448688,0.08731206814274195,0,True
2023-07-26,0.6006319977448688,0.6006319977448688,0.0,0,False
2023-07-27,0.6006319977448688,0.6006319977448688,0.0,0,False
2023-07-28,0.6006319977448688,0.6006319977448688,0.0,0,False
2023-07-29,0.6006319977448688,0.6006319977448688,0.0,0,False
2023-07-30,0.6006319977448688,0.6006319977448688,0.0,0,False
2023-07-31,0.6006319977448688,0.5976360483490646,-0.498799499036473,1,True
2023-08-01,0.5976360483490646,0.5948413876958183,-0.46761915733938286,2,True
2023-08-02,0.5948413876958183,0.5978140141634798,0.4997343038244617,0,True
2023-08-03,0.5978140141634798,0.5978140141634798,0.0,0,False
2023-08-04,0.5978140141634798,0.5978140141634798,0.0,0,False
2023-08-05,0.5978140141634798,0.5978140141634798,0.0,0,False
2023-08-06,0.5978140141634798,0.5978140141634798,0.0,0,False
2023-08-07,0.5978140141634798,0.5980724768972038,0.04323463946986905,1,True
2023-08-08,0.5980724768972038,0.5969392902989907,-0.1894731227379043,1,True
2023-08-09,0.5969392902989907,0.5970196998277246,0.013470302598705963,0,True
2023-08-10,0.5970196998277246,0.5944438196995808,-0.4314564710154567,1,True
2023-08-11,0.5944438196995808,0.5940359959667951,-0.06860593369307777,0,True
2023-08-12,0.5940359959667951,0.5940359959667951,0.0,0,False
2023-08-13,0.5940359959667951,0.5957327546532085,0.2856323013981532,1,True
2023-08-14,0.5957327546532085,0.5952370288453529,-0.08321278358182083,0,True
2023-08-15,0.5952370288453529,0.5952370288453529,0.0,0,False
2023-08-16,0.5952370288453529,0.5971299541983884,0.3180120290411814,6,True
2023-08-17,0.5971299541983884,0.6006267423476035,0.585599185676311,4,True
2023-08-18,0.6006267423476035,0.6142743057049409,2.2722203983117195,5,True
2023-08-19,0.6142743057049409,0.6143143074756612,0.006512037106021218,0,True
2023-08-20,0.6143143074756612,0.6143143074756612,0.0,0,False
2023-08-21,0.6143143074756612,0.6143143074756612,0.0,0,False
2023-08-22,0.6143143074756612,0.614821216776882,0.08251627791378002,1,True
2023-08-23,0.614821216776882,0.6153910159280194,0.09267721015298047,0,True
2023-08-24,0.6153910159280194,0.6153910159280194,0.0,0,False
2023-08-25,0.6153910159280194,0.6039199146150351,-1.8640345757543475,4,True
2023-08-26,0.6039199146150351,0.6039199146150351,0.0,0,False
2023-08-27,0.6039199146150351,0.6039199146150351,0.0,0,False
2023-08-28,0.6039199146150351,0.6023529955591944,-0.2594580867298468,1,True
2023-08-29,0.6023529955591944,0.6065423493383085,0.6954981231935164,1,True
2023-08-30,0.6065423493383085,0.6039887446491998,-0.4210101226887919,1,True
2023-08-31,0.6039887446491998,0.6071342429094972,0.5207875623782332,1,True
2023-09-01,0.6071342429094972,0.6060720853363313,-0.17494608244725818,0,True
2023-09-02,0.6060720853363313,0.6043766431049158,-0.2797426696322103,1,True
2023-09-03,0.6043766431049158,0.6058585245857093,0.245191719054616,0,True
2023-09-04,0.6058585245857093,0.6045947877065886,-0.20858613485464916,2,True
2023-09-05,0.6045947877065886,0.6067589219039717,0.3579478754013765,0,True
2023-09-06,0.6067589219039717,0.6067085313828354,-0.008304866944219835,2,True
2023-09-07,0.6067085313828354,0.606598741509125,-0.018095983166777074,1,True
2023-09-08,0.606598741509125,0.6060337043218831,-0.09314842721832584,1,True
2023-09-09,0.6060337043218831,0.6054119603738743,-0.10259230527523977,2,True
2023-09-10,0.6054119603738743,0.599052447704782,-1.0504438440834485,3,True
2023-09-11,0.599052447704782,0.5992641118418297,0.035333156196704074,0,True
2023-09-12,0.5992641118418297,0.5992641118418297,0.0,0,False
2023-09-13,0.5992641118418297,0.5992641118418297,0.0,0,False
2023-09-14,0.5992641118418297,0.6000526908092567,0.1315912219410853,2,True
2023-09-15,0.6000526908092567,0.6077922766487065,1.2898177040105985,0,True
2023-09-16,0.6077922766487065,0.605463869949296,-0.3830925118445072,2,True
2023-09-17,0.605463869949296,0.6056354863206713,0.028344609793085063,1,True
2023-09-18,0.6056354863206713,0.6056354863206713,0.0,0,False
2023-09-19,0.6056354863206713,0.6056354863206713,0.0,0,False
2023-09-20,0.6056354863206713,0.606783415867407,0.18954132851585204,1,True
2023-09-21,0.606783415867407,0.602608547355368,-0.6880327317566937,0,True
2023-09-22,0.602608547355368,0.6091094021445912,1.0787856922629402,1,True
2023-09-23,0.6091094021445912,0.6084768082692785,-0.1038555427129162,0,True
2023-09-24,0.6084768082692785,0.6054395780413925,-0.4991529975521991,1,True
2023-09-25,0.6054395780413925,0.6053388580299651,-0.01663584857686251,1,True
2023-09-26,0.6053388580299651,0.6054349386172099,0.01587219884702229,0,True
2023-09-27,0.6054349386172099,0.6054349386172099,0.0,0,False
2023-09-28,0.6054349386172099,0.6054349386172099,0.0,0,False
2023-09-29,0.6054349386172099,0.6024165044579992,-0.4985563215272437,1,True
2023-09-30,0.6024165044579992,0.6024165044579992,0.0,0,False
2023-10-01,0.6024165044579992,0.602105896893225,-0.0515602680995042,1,True
2023-10-02,0.602105896893225,0.6037256596035354,0.2690162509067173,0,True
2023-10-03,0.6037256596035354,0.6015672259925632,-0.35751894534177264,3,True
2023-10-04,0.6015672259925632,0.5934055674295565,-1.3567325828863441,3,True
2023-10-05,0.5934055674295565,0.588863656461088,-0.7653974309918765,0,True
2023-10-06,0.588863656461088,0.588863656461088,0.0,0,False
2023-10-07,0.588863656461088,0.58733877160184,-0.25895380747592567,1,True
2023-10-08,0.58733877160184,0.5858897829289011,-0.24670407318539977,1,True
2023-10-09,0.5858897829289011,0.5848527955579714,-0.17699359182298258,1,True
2023-10-10,0.5848527955579714,0.5829932168717737,-0.31795670642620344,1,True
2023-10-11,0.5829932168717737,0.5828992570010791,-0.016116803416477143,0,True
2023-10-12,0.5828992570010791,0.5828992570010791,0.0,0,False
2023-10-13,0.5828992570010791,0.5828992570010791,0.0,0,False
2023-10-14,0.5828992570010791,0.5828992570010791,0.0,0,False
2023-10-15,0.5828992570010791,0.5828992570010791,0.0,0,False
2023-10-16,0.5828992570010791,0.5828992570010791,0.0,0,False
2023-10-17,0.5828992570010791,0.5828992570010791,0.0,0,False
2023-10-18,0.5828992570010791,0.5804720048026185,-0.41641024058745035,3,True
2023-10-19,0.5804720048026185,0.5739437422390765,-1.124647271449697,3,True
2023-10-20,0.5739437422390765,0.5731128116641878,-0.14477561365980884,0,True
2023-10-21,0.5731128116641878,0.5735014735443629,0.06781594692439885,2,True
2023-10-22,0.5735014735443629,0.5731591222178215,-0.05969493407324,0,True
2023-10-23,0.5731591222178215,0.5731591222178215,0.0,0,False
2023-10-24,0.5731591222178215,0.5721058007573318,-0.18377470054283807,1,True
2023-10-25,0.5721058007573318,0.5760636428474291,0.6918024751467522,3,True
2023-10-26,0.5760636428474291,0.5732091609857777,-0.4955150176709555,1,True
2023-10-27,0.5732091609857777,0.5693563760927443,-0.6721429375635912,5,True
2023-10-28,0.5693563760927443,0.5696905501118379,0.05869329529371026,1,True
2023-10-29,0.5696905501118379,0.570511623377235,0.14412618661763243,0,True
2023-10-30,0.570511623377235,0.570511623377235,0.0,0,False
2023-10-31,0.570511623377235,0.5692191271736181,-0.22655037174629244,1,True
2023-11-01,0.5692191271736181,0.5679360026040767,-0.22541838604626108,1,True
2023-11-02,0.5679360026040767,0.5675198370933607,-0.07327683203878221,2,True
2023-11-03,0.5675198370933607,0.5660320924508895,-0.2621484827897813,0,True
2023-11-04,0.5660320924508895,0.565784397003165,-0.04375996538500404,1,True
2023-11-05,0.565784397003165,0.5679635242194331,0.3851515219950308,1,True
2023-11-06,0.5679635242194331,0.5613194447983602,-1.1698074150455429,2,True
2023-11-07,0.5613194447983602,0.556888177015108,-0.7894377834788968,2,True
2023-11-08,0.556888177015108,0.5576443352099022,0.13578277040233733,0,True
2023-11-09,0.5576443352099022,0.5576443352099022,0.0,0,False
2023-11-10,0.5576443352099022,0.5629648532191608,0.9541059907397509,5,True
2023-11-11,0.5629648532191608,0.562907875126543,-0.010121074573665734,0,True
2023-11-12,0.562907875126543,0.5636285881293681,0.12803391721303292,1,True
2023-11-13,0.5636285881293681,0.5644828984643275,0.15157327945247712,1,True
2023-11-14,0.5644828984643275,0.5637613112043572,-0.12783155378726097,2,True
2023-11-15,0.5637613112043572,0.5607704589246119,-0.5305174761560116,1,True
2023-11-16,0.5607704589246119,0.56012302929548,-0.11545359047148152,0,True
2023-11-17,0.56012302929548,0.5602822117893534,0.02841920177316659,2,True
2023-11-18,0.5602822117893534,0.5590514549566934,-0.21966730457664285,3,True
2023-11-19,0.5590514549566934,0.5568637631053334,-0.391322092441293,2,True
2023-11-20,0.5568637631053334,0.557890923695583,0.18445455752440498,0,True
2023-11-21,0.557890923695583,0.5614770860610476,0.642807081661978,2,True
2023-11-22,0.5614770860610476,0.5610386815557502,-0.07808056930211915,4,True
2023-11-23,0.5610386815557502,0.5609993876088671,-0.00700378568802007,2,True
2023-11-24,0.5609993876088671,0.5680636681960847,1.25923142578237,1,True
2023-11-25,0.5680636681960847,0.5695411253243581,0.26008653800464465,2,True
2023-11-26,0.5695411253243581,0.5683931436955324,-0.201562552339285,0,True
2023-11-27,0.5683931436955324,0.5683931436955324,0.0,0,False
2023-11-28,0.5683931436955324,0.5684901338671603,0.017063923571858375,1,True
2023-11-29,0.5684901338671603,0.5701032474127552,0.2837540089960289,1,True
2023-11-30,0.5701032474127552,0.5700980047076674,-0.0009196062488059376,0,True
2023-12-01,0.5700980047076674,0.5700980047076674,0.0,0,False
2023-12-02,0.5700980047076674,0.5700980047076674,0.0,0,False
2023-12-03,0.5700980047076674,0.5709562406104822,0.15054181837645952,2,True
2023-12-04,0.5709562406104822,0.5763190535534735,0.9392686446963339,4,True
2023-12-05,0.5763190535534735,0.5744054173804832,-0.33204457863940107,0,True
2023-12-06,0.5744054173804832,0.5718927956432991,-0.4374300208801474,1,True
2023-12-07,0.5718927956432991,0.5716387997294935,-0.04441320396769699,2,True
2023-12-08,0.5716387997294935,0.5723353951711966,0.12185937029338678,0,True
2023-12-09,0.5723353951711966,0.5723353951711966,0.0,0,False
2023-12-10,0.5723353951711966,0.5709166508288289,-0.24788687792816066,1,True
2023-12-11,0.5709166508288289,0.5754275890434144,0.7901220271009368,5,True
2023-12-12,0.5754275890434144,0.575455809786361,0.004904308288988801,0,True
2023-12-13,0.575455809786361,0.5765671233301081,0.19311883290562548,3,True
2023-12-14,0.5765671233301081,0.580706183359088,0.7178799937592295,0,True
2023-12-15,0.580706183359088,0.580706183359088,0.0,0,False
2023-12-16,0.580706183359088,0.586779883423356,1.045916203119246,3,True
2023-12-17,0.586779883423356,0.5800239179045998,-1.1513628380272478,2,True
2023-12-18,0.5800239179045998,0.5799002632164504,-0.021318894675270705,2,True
2023-12-19,0.5799002632164504,0.6010731999592217,3.651134183891269,1,True
2023-12-20,0.6010731999592217,0.6026913601626558,0.2692118370181573,0,True
2023-12-21,0.6026913601626558,0.6019535906058555,-0.12241249926018272,1,True
2023-12-22,0.6019535906058555,0.600537216060992,-0.2352963030651578,0,True
2023-12-23,0.600537216060992,0.6003981899454531,-0.023150291409201884,1,True
2023-12-24,0.6003981899454531,0.6001812307495276,-0.03613588441119253,1,True
2023-12-25,0.6001812307495276,0.6008472676694644,0.11097263390009715,1,True
2023-12-26,0.6008472676694644,0.6003246062163085,-0.08698740616449596,0,True
2023-12-27,0.6003246062163085,0.5970796096653389,-0.5405403205812176,7,True
2023-12-28,0.5970796096653389,0.5992067552503783,0.35625828626630884,1,True
2023-12-29,0.5992067552503783,0.6058967912432475,1.1164820713801538,0,True
2023-12-30,0.6058967912432475,0.6053784765475212,-0.08554504714618494,1,True
2023-12-31,0.6053784765475212,0.6057824218130476,0.06672606991746655,0,True
