day,start_equity,end_equity,return_pct,entries,active
2021-09-02,1.0,1.0,0.0,0,False
2021-09-03,1.0,1.0,0.0,0,False
2021-09-04,1.0,1.0,0.0,0,False
2021-09-05,1.0,1.0,0.0,0,False
2021-09-06,1.0,1.0,0.0,0,False
2021-09-07,1.0,1.0,0.0,0,False
2021-09-08,1.0,1.0,0.0,0,False
2021-09-09,1.0,1.0,0.0,0,False
2021-09-10,1.0,1.0,0.0,0,False
2021-09-11,1.0,1.0,0.0,0,False
2021-09-12,1.0,1.0,0.0,0,False
2021-09-13,1.0,1.0,0.0,0,False
2021-09-14,1.0,1.0,0.0,0,False
2021-09-15,1.0,1.0,0.0,0,False
2021-09-16,1.0,1.0,0.0,0,False
2021-09-17,1.0,1.0,0.0,0,False
2021-09-18,1.0,1.0,0.0,0,False
2021-09-19,1.0,1.0,0.0,0,False
2021-09-20,1.0,1.0,0.0,0,False
2021-09-21,1.0,1.0,0.0,0,False
2021-09-22,1.0,1.0,0.0,0,False
2021-09-23,1.0,1.0,0.0,0,False
2021-09-24,1.0,1.0,0.0,0,False
2021-09-25,1.0,1.0,0.0,0,False
2021-09-26,1.0,1.0,0.0,0,False
2021-09-27,1.0,1.0,0.0,0,False
2021-09-28,1.0,1.0,0.0,0,False
2021-09-29,1.0,1.0,0.0,0,False
2021-09-30,1.0,1.0,0.0,0,False
2021-10-01,1.0,1.0,0.0,0,False
2021-10-02,1.0,1.0,0.0,0,False
2021-10-03,1.0,1.0,0.0,0,False
2021-10-04,1.0,1.0,0.0,0,False
2021-10-05,1.0,0.9991229226558256,-0.08770773441744151,1,True
2021-10-06,0.9991229226558256,1.0069038235836238,0.7787731370545892,5,True
2021-10-07,1.0069038235836238,0.9928403438298518,-1.3967053679187935,2,True
2021-10-08,0.9928403438298518,0.992001382517593,-0.08450113026455819,1,True
2021-10-09,0.992001382517593,0.9978168951262704,0.5862403733670529,4,True
2021-10-10,0.9978168951262704,0.9856241663236088,-1.2219405045370113,1,True
2021-10-11,0.9856241663236088,0.9831757562997095,-0.2484121339102141,0,True
2021-10-12,0.9831757562997095,0.9831757562997095,0.0,0,False
2021-10-13,0.9831757562997095,1.0072751549821337,2.4511791028213326,4,True
2021-10-14,1.0072751549821337,1.0235463045665656,1.6153629426827854,1,True
2021-10-15,1.0235463045665656,1.040534938011285,1.6597816209119598,7,True
2021-10-16,1.040534938011285,1.0419679668985335,0.13772040081494463,3,True
2021-10-17,1.0419679668985335,1.0419679668985335,0.0,0,False
2021-10-18,1.0419679668985335,1.044892408769125,0.2806652376556418,2,True
2021-10-19,1.044892408769125,1.044892408769125,0.0,0,False
2021-10-20,1.044892408769125,1.044892408769125,0.0,0,False
2021-10-21,1.044892408769125,1.044892408769125,0.0,0,False
2021-10-22,1.044892408769125,1.044892408769125,0.0,0,False
2021-10-23,1.044892408769125,1.044892408769125,0.0,0,False
2021-10-24,1.044892408769125,1.049054749686195,0.3983511490884828,1,True
2021-10-25,1.049054749686195,1.0408850529543219,-0.7787674317586313,2,True
2021-10-26,1.0408850529543219,1.0408850529543219,0.0,0,False
2021-10-27,1.0408850529543219,1.0369250554643312,-0.3804452257961666,7,True
2021-10-28,1.0369250554643312,1.0305459125377563,-0.615198069808276,6,True
2021-10-29,1.0305459125377563,1.0263738122855337,-0.4048437048232656,3,True
2021-10-30,1.0263738122855337,1.0359893293548574,0.936843570464041,3,True
2021-10-31,1.0359893293548574,1.0281723164317405,-0.7545456986497001,13,True
2021-11-01,1.0281723164317405,1.0187586931637853,-0.9155686374269445,8,True
2021-11-02,1.0187586931637853,1.0433524512033385,2.414090618768272,3,True
2021-11-03,1.0433524512033385,1.0372407219814233,-0.5857780096137577,2,True
2021-11-04,1.0372407219814233,1.0461575533533836,0.8596684629703644,7,True
2021-11-05,1.0461575533533836,1.033784487785588,-1.1827153116788836,6,True
2021-11-06,1.033784487785588,1.0321023283460447,-0.16271858007335105,2,True
2021-11-07,1.0321023283460447,1.0321023283460447,0.0,0,False
2021-11-08,1.0321023283460447,1.0321023283460447,0.0,0,False
2021-11-09,1.0321023283460447,1.039613556811914,0.7277600543645901,2,True
2021-11-10,1.039613556811914,1.0603676783872835,1.996330409446978,1,True
2021-11-11,1.0603676783872835,1.0290362703774225,-2.9547682986257207,7,True
2021-11-12,1.0290362703774225,1.00818425300637,-2.0263636930313966,7,True
2021-11-13,1.00818425300637,1.0060278781096488,-0.21388698447640797,1,True
2021-11-14,1.0060278781096488,1.010686896305582,0.4631102474702331,2,True
2021-11-15,1.010686896305582,1.010686896305582,0.0,0,False
2021-11-16,1.010686896305582,1.0184331797091666,0.7664375022472303,9,True
2021-11-17,1.0184331797091666,1.0171446833789755,-0.12651751296625102,1,True
2021-11-18,1.0171446833789755,1.0045868120988706,-1.2346199597079277,4,True
2021-11-19,1.0045868120988706,1.0107231231527933,0.6108293459578862,7,True
2021-11-20,1.0107231231527933,1.0205113588147192,0.9684388768501639,0,True
2021-11-21,1.0205113588147192,1.0103248598793861,-0.9981759484935293,3,True
2021-11-22,1.0103248598793861,0.9897321453911148,-2.0382270402343416,9,True
2021-11-23,0.9897321453911148,0.9897321453911148,0.0,0,False
2021-11-24,0.9897321453911148,0.9753157927298118,-1.456591334174151,4,True
2021-11-25,0.9753157927298118,0.9791186763113193,0.38991305276248056,11,True
2021-11-26,0.9791186763113193,0.9535191662503745,-2.614546191416456,9,True
2021-11-27,0.9535191662503745,0.9569041750236823,0.3550016500055264,7,True
2021-11-28,0.9569041750236823,0.9377042146043719,-2.006466365227766,9,True
2021-11-29,0.9377042146043719,0.9362859071871629,-0.15125317718737152,2,True
2021-11-30,0.9362859071871629,0.9311543229574941,-0.5480787642190732,3,True
2021-12-01,0.9311543229574941,0.9272561652709713,-0.41863712495493477,1,True
2021-12-02,0.9272561652709713,0.923399844996717,-0.41588510475175644,8,True
2021-12-03,0.923399844996717,0.9129593685679023,-1.13065607335594,3,True
2021-12-04,0.9129593685679023,0.9066190731400627,-0.6944772841079638,3,True
2021-12-05,0.9066190731400627,0.9066190731400627,0.0,0,False
2021-12-06,0.9066190731400627,0.9066190731400627,0.0,0,False
2021-12-07,0.9066190731400627,0.9066190731400627,0.0,0,False
2021-12-08,0.9066190731400627,0.9066190731400627,0.0,0,False
2021-12-09,0.9066190731400627,0.9066190731400627,0.0,0,False
2021-12-10,0.9066190731400627,0.9066190731400627,0.0,0,False
2021-12-11,0.9066190731400627,0.9066190731400627,0.0,0,False
2021-12-12,0.9066190731400627,0.9066190731400627,0.0,0,False
2021-12-13,0.9066190731400627,0.9066190731400627,0.0,0,False
2021-12-14,0.9066190731400627,0.9066190731400627,0.0,0,False
2021-12-15,0.9066190731400627,0.9066190731400627,0.0,0,False
2021-12-16,0.9066190731400627,0.9066190731400627,0.0,0,False
2021-12-17,0.9066190731400627,0.9066190731400627,0.0,0,False
2021-12-18,0.9066190731400627,0.9066190731400627,0.0,0,False
2021-12-19,0.9066190731400627,0.9066190731400627,0.0,0,False
2021-12-20,0.9066190731400627,0.9066190731400627,0.0,0,False
2021-12-21,0.9066190731400627,0.9066190731400627,0.0,0,False
2021-12-22,0.9066190731400627,0.9066190731400627,0.0,0,False
2021-12-23,0.9066190731400627,0.9066190731400627,0.0,0,False
2021-12-24,0.9066190731400627,0.9066190731400627,0.0,0,False
2021-12-25,0.9066190731400627,0.9066190731400627,0.0,0,False
2021-12-26,0.9066190731400627,0.9066190731400627,0.0,0,False
2021-12-27,0.9066190731400627,0.9066190731400627,0.0,0,False
2021-12-28,0.9066190731400627,0.9066190731400627,0.0,0,False
2021-12-29,0.9066190731400627,0.9066190731400627,0.0,0,False
2021-12-30,0.9066190731400627,0.9066190731400627,0.0,0,False
2021-12-31,0.9066190731400627,0.9066190731400627,0.0,0,False
2022-01-01,0.9066190731400627,0.9066190731400627,0.0,0,False
2022-01-02,0.9066190731400627,0.9066190731400627,0.0,0,False
2022-01-03,0.9066190731400627,0.9066190731400627,0.0,0,False
2022-01-04,0.9066190731400627,0.9066190731400627,0.0,0,False
2022-01-05,0.9066190731400627,0.9066190731400627,0.0,0,False
2022-01-06,0.9066190731400627,0.9066190731400627,0.0,0,False
2022-01-07,0.9066190731400627,0.9066190731400627,0.0,0,False
2022-01-08,0.9066190731400627,0.9066190731400627,0.0,0,False
2022-01-09,0.9066190731400627,0.9066190731400627,0.0,0,False
2022-01-10,0.9066190731400627,0.9066190731400627,0.0,0,False
2022-01-11,0.9066190731400627,0.9066190731400627,0.0,0,False
2022-01-12,0.9066190731400627,0.9066190731400627,0.0,0,False
2022-01-13,0.9066190731400627,0.9066190731400627,0.0,0,False
2022-01-14,0.9066190731400627,0.9066190731400627,0.0,0,False
2022-01-15,0.9066190731400627,0.9066190731400627,0.0,0,False
2022-01-16,0.9066190731400627,0.9066190731400627,0.0,0,False
2022-01-17,0.9066190731400627,0.9066190731400627,0.0,0,False
2022-01-18,0.9066190731400627,0.9066190731400627,0.0,0,False
2022-01-19,0.9066190731400627,0.9066190731400627,0.0,0,False
2022-01-20,0.9066190731400627,0.9066190731400627,0.0,0,False
2022-01-21,0.9066190731400627,0.9066190731400627,0.0,0,False
2022-01-22,0.9066190731400627,0.9066190731400627,0.0,0,False
2022-01-23,0.9066190731400627,0.9066190731400627,0.0,0,False
2022-01-24,0.9066190731400627,0.9066190731400627,0.0,0,False
2022-01-25,0.9066190731400627,0.9066190731400627,0.0,0,False
2022-01-26,0.9066190731400627,0.9066190731400627,0.0,0,False
2022-01-27,0.9066190731400627,0.9066190731400627,0.0,0,False
2022-01-28,0.9066190731400627,0.9066190731400627,0.0,0,False
2022-01-29,0.9066190731400627,0.9066190731400627,0.0,0,False
2022-01-30,0.9066190731400627,0.9066190731400627,0.0,0,False
2022-01-31,0.9066190731400627,0.9066190731400627,0.0,0,False
2022-02-01,0.9066190731400627,0.9066190731400627,0.0,0,False
2022-02-02,0.9066190731400627,0.9066190731400627,0.0,0,False
2022-02-03,0.9066190731400627,0.9066190731400627,0.0,0,False
2022-02-04,0.9066190731400627,0.9066190731400627,0.0,0,False
2022-02-05,0.9066190731400627,0.9066190731400627,0.0,0,False
2022-02-06,0.9066190731400627,0.9066190731400627,0.0,0,False
2022-02-07,0.9066190731400627,0.9066190731400627,0.0,0,False
2022-02-08,0.9066190731400627,0.9066190731400627,0.0,0,False
2022-02-09,0.9066190731400627,0.9066190731400627,0.0,0,False
2022-02-10,0.9066190731400627,0.9066190731400627,0.0,0,False
2022-02-11,0.9066190731400627,0.9066190731400627,0.0,0,False
2022-02-12,0.9066190731400627,0.9066190731400627,0.0,0,False
2022-02-13,0.9066190731400627,0.9066190731400627,0.0,0,False
2022-02-14,0.9066190731400627,0.9066190731400627,0.0,0,False
2022-02-15,0.9066190731400627,0.9066190731400627,0.0,0,False
2022-02-16,0.9066190731400627,0.9066190731400627,0.0,0,False
2022-02-17,0.9066190731400627,0.9066190731400627,0.0,0,False
2022-02-18,0.9066190731400627,0.9066190731400627,0.0,0,False
2022-02-19,0.9066190731400627,0.9066190731400627,0.0,0,False
2022-02-20,0.9066190731400627,0.9066190731400627,0.0,0,False
2022-02-21,0.9066190731400627,0.9066190731400627,0.0,0,False
2022-02-22,0.9066190731400627,0.9066190731400627,0.0,0,False
2022-02-23,0.9066190731400627,0.9066190731400627,0.0,0,False
2022-02-24,0.9066190731400627,0.9066190731400627,0.0,0,False
2022-02-25,0.9066190731400627,0.9066190731400627,0.0,0,False
2022-02-26,0.9066190731400627,0.9066190731400627,0.0,0,False
2022-02-27,0.9066190731400627,0.9066190731400627,0.0,0,False
2022-02-28,0.9066190731400627,0.9066190731400627,0.0,0,False
2022-03-01,0.9066190731400627,0.9066190731400627,0.0,0,False
2022-03-02,0.9066190731400627,0.9066190731400627,0.0,0,False
2022-03-03,0.9066190731400627,0.9066190731400627,0.0,0,False
2022-03-04,0.9066190731400627,0.9066190731400627,0.0,0,False
2022-03-05,0.9066190731400627,0.9066190731400627,0.0,0,False
2022-03-06,0.9066190731400627,0.9066190731400627,0.0,0,False
2022-03-07,0.9066190731400627,0.9066190731400627,0.0,0,False
2022-03-08,0.9066190731400627,0.9066190731400627,0.0,0,False
2022-03-09,0.9066190731400627,0.9066190731400627,0.0,0,False
2022-03-10,0.9066190731400627,0.9066190731400627,0.0,0,False
2022-03-11,0.9066190731400627,0.9066190731400627,0.0,0,False
2022-03-12,0.9066190731400627,0.9066190731400627,0.0,0,False
2022-03-13,0.9066190731400627,0.9066190731400627,0.0,0,False
2022-03-14,0.9066190731400627,0.9066190731400627,0.0,0,False
2022-03-15,0.9066190731400627,0.9066190731400627,0.0,0,False
2022-03-16,0.9066190731400627,0.9066190731400627,0.0,0,False
2022-03-17,0.9066190731400627,0.9066190731400627,0.0,0,False
2022-03-18,0.9066190731400627,0.9066190731400627,0.0,0,False
2022-03-19,0.9066190731400627,0.9066190731400627,0.0,0,False
2022-03-20,0.9066190731400627,0.9066190731400627,0.0,0,False
2022-03-21,0.9066190731400627,0.9066190731400627,0.0,0,False
2022-03-22,0.9066190731400627,0.9066190731400627,0.0,0,False
2022-03-23,0.9066190731400627,0.9066190731400627,0.0,0,False
2022-03-24,0.9066190731400627,0.9066190731400627,0.0,0,False
2022-03-25,0.9066190731400627,0.9066190731400627,0.0,0,False
2022-03-26,0.9066190731400627,0.9066190731400627,0.0,0,False
2022-03-27,0.9066190731400627,0.9066190731400627,0.0,0,False
2022-03-28,0.9066190731400627,0.9066190731400627,0.0,0,False
2022-03-29,0.9066190731400627,0.9066190731400627,0.0,0,False
2022-03-30,0.9066190731400627,0.9066190731400627,0.0,0,False
2022-03-31,0.9066190731400627,0.9066190731400627,0.0,0,False
2022-04-01,0.9066190731400627,0.9066190731400627,0.0,0,False
2022-04-02,0.9066190731400627,0.9066190731400627,0.0,0,False
2022-04-03,0.9066190731400627,0.9066190731400627,0.0,0,False
2022-04-04,0.9066190731400627,0.9066190731400627,0.0,0,False
2022-04-05,0.9066190731400627,0.9066190731400627,0.0,0,False
2022-04-06,0.9066190731400627,0.9066190731400627,0.0,0,False
2022-04-07,0.9066190731400627,0.9066190731400627,0.0,0,False
2022-04-08,0.9066190731400627,0.9066190731400627,0.0,0,False
2022-04-09,0.9066190731400627,0.9066190731400627,0.0,0,False
2022-04-10,0.9066190731400627,0.9066190731400627,0.0,0,False
2022-04-11,0.9066190731400627,0.9066190731400627,0.0,0,False
2022-04-12,0.9066190731400627,0.9066190731400627,0.0,0,False
2022-04-13,0.9066190731400627,0.9066190731400627,0.0,0,False
2022-04-14,0.9066190731400627,0.9066190731400627,0.0,0,False
2022-04-15,0.9066190731400627,0.9066190731400627,0.0,0,False
2022-04-16,0.9066190731400627,0.9066190731400627,0.0,0,False
2022-04-17,0.9066190731400627,0.9066190731400627,0.0,0,False
2022-04-18,0.9066190731400627,0.9066190731400627,0.0,0,False
2022-04-19,0.9066190731400627,0.9066190731400627,0.0,0,False
2022-04-20,0.9066190731400627,0.9066190731400627,0.0,0,False
2022-04-21,0.9066190731400627,0.9066190731400627,0.0,0,False
2022-04-22,0.9066190731400627,0.9066190731400627,0.0,0,False
2022-04-23,0.9066190731400627,0.9066190731400627,0.0,0,False
2022-04-24,0.9066190731400627,0.9066190731400627,0.0,0,False
2022-04-25,0.9066190731400627,0.9066190731400627,0.0,0,False
2022-04-26,0.9066190731400627,0.9066190731400627,0.0,0,False
2022-04-27,0.9066190731400627,0.9066190731400627,0.0,0,False
2022-04-28,0.9066190731400627,0.9066190731400627,0.0,0,False
2022-04-29,0.9066190731400627,0.9066190731400627,0.0,0,False
2022-04-30,0.9066190731400627,0.9066190731400627,0.0,0,False
2022-05-01,0.9066190731400627,0.9066190731400627,0.0,0,False
2022-05-02,0.9066190731400627,0.9066190731400627,0.0,0,False
2022-05-03,0.9066190731400627,0.9066190731400627,0.0,0,False
2022-05-04,0.9066190731400627,0.9066190731400627,0.0,0,False
2022-05-05,0.9066190731400627,0.9066190731400627,0.0,0,False
2022-05-06,0.9066190731400627,0.9066190731400627,0.0,0,False
2022-05-07,0.9066190731400627,0.9066190731400627,0.0,0,False
2022-05-08,0.9066190731400627,0.9066190731400627,0.0,0,False
2022-05-09,0.9066190731400627,0.9066190731400627,0.0,0,False
2022-05-10,0.9066190731400627,0.9066190731400627,0.0,0,False
2022-05-11,0.9066190731400627,0.9066190731400627,0.0,0,False
2022-05-12,0.9066190731400627,0.9066190731400627,0.0,0,False
2022-05-13,0.9066190731400627,0.9066190731400627,0.0,0,False
2022-05-14,0.9066190731400627,0.9066190731400627,0.0,0,False
2022-05-15,0.9066190731400627,0.9066190731400627,0.0,0,False
2022-05-16,0.9066190731400627,0.9066190731400627,0.0,0,False
2022-05-17,0.9066190731400627,0.9066190731400627,0.0,0,False
2022-05-18,0.9066190731400627,0.9066190731400627,0.0,0,False
2022-05-19,0.9066190731400627,0.9066190731400627,0.0,0,False
2022-05-20,0.9066190731400627,0.9066190731400627,0.0,0,False
2022-05-21,0.9066190731400627,0.9066190731400627,0.0,0,False
2022-05-22,0.9066190731400627,0.9066190731400627,0.0,0,False
2022-05-23,0.9066190731400627,0.9066190731400627,0.0,0,False
2022-05-24,0.9066190731400627,0.9066190731400627,0.0,0,False
2022-05-25,0.9066190731400627,0.9066190731400627,0.0,0,False
2022-05-26,0.9066190731400627,0.9066190731400627,0.0,0,False
2022-05-27,0.9066190731400627,0.9066190731400627,0.0,0,False
2022-05-28,0.9066190731400627,0.9066190731400627,0.0,0,False
2022-05-29,0.9066190731400627,0.9066190731400627,0.0,0,False
2022-05-30,0.9066190731400627,0.9066190731400627,0.0,0,False
2022-05-31,0.9066190731400627,0.9066190731400627,0.0,0,False
2022-06-01,0.9066190731400627,0.9066190731400627,0.0,0,False
2022-06-02,0.9066190731400627,0.9066190731400627,0.0,0,False
2022-06-03,0.9066190731400627,0.9066190731400627,0.0,0,False
2022-06-04,0.9066190731400627,0.9066190731400627,0.0,0,False
2022-06-05,0.9066190731400627,0.9066190731400627,0.0,0,False
2022-06-06,0.9066190731400627,0.9066190731400627,0.0,0,False
2022-06-07,0.9066190731400627,0.9066190731400627,0.0,0,False
2022-06-08,0.9066190731400627,0.9066190731400627,0.0,0,False
2022-06-09,0.9066190731400627,0.9066190731400627,0.0,0,False
2022-06-10,0.9066190731400627,0.9066190731400627,0.0,0,False
2022-06-11,0.9066190731400627,0.9066190731400627,0.0,0,False
2022-06-12,0.9066190731400627,0.9066190731400627,0.0,0,False
2022-06-13,0.9066190731400627,0.9066190731400627,0.0,0,False
2022-06-14,0.9066190731400627,0.9066190731400627,0.0,0,False
2022-06-15,0.9066190731400627,0.9066190731400627,0.0,0,False
2022-06-16,0.9066190731400627,0.9066190731400627,0.0,0,False
2022-06-17,0.9066190731400627,0.9066190731400627,0.0,0,False
2022-06-18,0.9066190731400627,0.9066190731400627,0.0,0,False
2022-06-19,0.9066190731400627,0.9066190731400627,0.0,0,False
2022-06-20,0.9066190731400627,0.9066190731400627,0.0,0,False
2022-06-21,0.9066190731400627,0.9066190731400627,0.0,0,False
2022-06-22,0.9066190731400627,0.9066190731400627,0.0,0,False
2022-06-23,0.9066190731400627,0.9066190731400627,0.0,0,False
2022-06-24,0.9066190731400627,0.9066190731400627,0.0,0,False
2022-06-25,0.9066190731400627,0.9066190731400627,0.0,0,False
2022-06-26,0.9066190731400627,0.9066190731400627,0.0,0,False
2022-06-27,0.9066190731400627,0.9066190731400627,0.0,0,False
2022-06-28,0.9066190731400627,0.9066190731400627,0.0,0,False
2022-06-29,0.9066190731400627,0.9066190731400627,0.0,0,False
2022-06-30,0.9066190731400627,0.9066190731400627,0.0,0,False
2022-07-01,0.9066190731400627,0.9066190731400627,0.0,0,False
2022-07-02,0.9066190731400627,0.9066190731400627,0.0,0,False
2022-07-03,0.9066190731400627,0.9066190731400627,0.0,0,False
2022-07-04,0.9066190731400627,0.9066190731400627,0.0,0,False
2022-07-05,0.9066190731400627,0.9066190731400627,0.0,0,False
2022-07-06,0.9066190731400627,0.9066190731400627,0.0,0,False
2022-07-07,0.9066190731400627,0.9066190731400627,0.0,0,False
2022-07-08,0.9066190731400627,0.9066190731400627,0.0,0,False
2022-07-09,0.9066190731400627,0.9066190731400627,0.0,0,False
2022-07-10,0.9066190731400627,0.9066190731400627,0.0,0,False
2022-07-11,0.9066190731400627,0.9066190731400627,0.0,0,False
2022-07-12,0.9066190731400627,0.9066190731400627,0.0,0,False
2022-07-13,0.9066190731400627,0.9066190731400627,0.0,0,False
2022-07-14,0.9066190731400627,0.9066190731400627,0.0,0,False
2022-07-15,0.9066190731400627,0.9066190731400627,0.0,0,False
2022-07-16,0.9066190731400627,0.9066190731400627,0.0,0,False
2022-07-17,0.9066190731400627,0.9066190731400627,0.0,0,False
2022-07-18,0.9066190731400627,0.9066190731400627,0.0,0,False
2022-07-19,0.9066190731400627,0.9066190731400627,0.0,0,False
2022-07-20,0.9066190731400627,0.9066190731400627,0.0,0,False
2022-07-21,0.9066190731400627,0.9066190731400627,0.0,0,False
2022-07-22,0.9066190731400627,0.9066190731400627,0.0,0,False
2022-07-23,0.9066190731400627,0.9066190731400627,0.0,0,False
2022-07-24,0.9066190731400627,0.9066190731400627,0.0,0,False
2022-07-25,0.9066190731400627,0.9066190731400627,0.0,0,False
2022-07-26,0.9066190731400627,0.9066190731400627,0.0,0,False
2022-07-27,0.9066190731400627,0.9066190731400627,0.0,0,False
2022-07-28,0.9066190731400627,0.9066190731400627,0.0,0,False
2022-07-29,0.9066190731400627,0.9066190731400627,0.0,0,False
2022-07-30,0.9066190731400627,0.9066190731400627,0.0,0,False
2022-07-31,0.9066190731400627,0.9066190731400627,0.0,0,False
2022-08-01,0.9066190731400627,0.9066190731400627,0.0,0,False
2022-08-02,0.9066190731400627,0.9066190731400627,0.0,0,False
2022-08-03,0.9066190731400627,0.9066190731400627,0.0,0,False
2022-08-04,0.9066190731400627,0.9066190731400627,0.0,0,False
2022-08-05,0.9066190731400627,0.9066190731400627,0.0,0,False
2022-08-06,0.9066190731400627,0.9066190731400627,0.0,0,False
2022-08-07,0.9066190731400627,0.9066190731400627,0.0,0,False
2022-08-08,0.9066190731400627,0.9066190731400627,0.0,0,False
2022-08-09,0.9066190731400627,0.9066190731400627,0.0,0,False
2022-08-10,0.9066190731400627,0.9066190731400627,0.0,0,False
2022-08-11,0.9066190731400627,0.9066190731400627,0.0,0,False
2022-08-12,0.9066190731400627,0.9066190731400627,0.0,0,False
2022-08-13,0.9066190731400627,0.9066190731400627,0.0,0,False
2022-08-14,0.9066190731400627,0.9066190731400627,0.0,0,False
2022-08-15,0.9066190731400627,0.9066190731400627,0.0,0,False
2022-08-16,0.9066190731400627,0.9066190731400627,0.0,0,False
2022-08-17,0.9066190731400627,0.9066190731400627,0.0,0,False
2022-08-18,0.9066190731400627,0.9066190731400627,0.0,0,False
2022-08-19,0.9066190731400627,0.9066190731400627,0.0,0,False
2022-08-20,0.9066190731400627,0.9066190731400627,0.0,0,False
2022-08-21,0.9066190731400627,0.9066190731400627,0.0,0,False
2022-08-22,0.9066190731400627,0.9066190731400627,0.0,0,False
2022-08-23,0.9066190731400627,0.9066190731400627,0.0,0,False
2022-08-24,0.9066190731400627,0.9066190731400627,0.0,0,False
2022-08-25,0.9066190731400627,0.9066190731400627,0.0,0,False
2022-08-26,0.9066190731400627,0.9066190731400627,0.0,0,False
2022-08-27,0.9066190731400627,0.9066190731400627,0.0,0,False
2022-08-28,0.9066190731400627,0.9066190731400627,0.0,0,False
2022-08-29,0.9066190731400627,0.9066190731400627,0.0,0,False
2022-08-30,0.9066190731400627,0.9066190731400627,0.0,0,False
2022-08-31,0.9066190731400627,0.9066190731400627,0.0,0,False
2022-09-01,0.9066190731400627,0.9066190731400627,0.0,0,False
2022-09-02,0.9066190731400627,0.9066190731400627,0.0,0,False
2022-09-03,0.9066190731400627,0.9066190731400627,0.0,0,False
2022-09-04,0.9066190731400627,0.9066190731400627,0.0,0,False
2022-09-05,0.9066190731400627,0.9066190731400627,0.0,0,False
2022-09-06,0.9066190731400627,0.9066190731400627,0.0,0,False
2022-09-07,0.9066190731400627,0.9066190731400627,0.0,0,False
2022-09-08,0.9066190731400627,0.9066190731400627,0.0,0,False
2022-09-09,0.9066190731400627,0.9066190731400627,0.0,0,False
2022-09-10,0.9066190731400627,0.9066190731400627,0.0,0,False
2022-09-11,0.9066190731400627,0.9066190731400627,0.0,0,False
2022-09-12,0.9066190731400627,0.9066190731400627,0.0,0,False
2022-09-13,0.9066190731400627,0.9066190731400627,0.0,0,False
2022-09-14,0.9066190731400627,0.9066190731400627,0.0,0,False
2022-09-15,0.9066190731400627,0.9066190731400627,0.0,0,False
2022-09-16,0.9066190731400627,0.9066190731400627,0.0,0,False
2022-09-17,0.9066190731400627,0.9066190731400627,0.0,0,False
2022-09-18,0.9066190731400627,0.9066190731400627,0.0,0,False
2022-09-19,0.9066190731400627,0.9066190731400627,0.0,0,False
2022-09-20,0.9066190731400627,0.9066190731400627,0.0,0,False
2022-09-21,0.9066190731400627,0.9066190731400627,0.0,0,False
2022-09-22,0.9066190731400627,0.9066190731400627,0.0,0,False
2022-09-23,0.9066190731400627,0.9066190731400627,0.0,0,False
2022-09-24,0.9066190731400627,0.9066190731400627,0.0,0,False
2022-09-25,0.9066190731400627,0.9066190731400627,0.0,0,False
2022-09-26,0.9066190731400627,0.9066190731400627,0.0,0,False
2022-09-27,0.9066190731400627,0.9066190731400627,0.0,0,False
2022-09-28,0.9066190731400627,0.9066190731400627,0.0,0,False
2022-09-29,0.9066190731400627,0.9066190731400627,0.0,0,False
2022-09-30,0.9066190731400627,0.9066190731400627,0.0,0,False
2022-10-01,0.9066190731400627,0.9066190731400627,0.0,0,False
2022-10-02,0.9066190731400627,0.9066190731400627,0.0,0,False
2022-10-03,0.9066190731400627,0.9066190731400627,0.0,0,False
2022-10-04,0.9066190731400627,0.9066190731400627,0.0,0,False
2022-10-05,0.9066190731400627,0.9066190731400627,0.0,0,False
2022-10-06,0.9066190731400627,0.9066190731400627,0.0,0,False
2022-10-07,0.9066190731400627,0.9066190731400627,0.0,0,False
2022-10-08,0.9066190731400627,0.9066190731400627,0.0,0,False
2022-10-09,0.9066190731400627,0.9066190731400627,0.0,0,False
2022-10-10,0.9066190731400627,0.9066190731400627,0.0,0,False
2022-10-11,0.9066190731400627,0.9066190731400627,0.0,0,False
2022-10-12,0.9066190731400627,0.9066190731400627,0.0,0,False
2022-10-13,0.9066190731400627,0.9066190731400627,0.0,0,False
2022-10-14,0.9066190731400627,0.9066190731400627,0.0,0,False
2022-10-15,0.9066190731400627,0.9066190731400627,0.0,0,False
2022-10-16,0.9066190731400627,0.9066190731400627,0.0,0,False
2022-10-17,0.9066190731400627,0.9066190731400627,0.0,0,False
2022-10-18,0.9066190731400627,0.9066190731400627,0.0,0,False
2022-10-19,0.9066190731400627,0.9066190731400627,0.0,0,False
2022-10-20,0.9066190731400627,0.9066190731400627,0.0,0,False
2022-10-21,0.9066190731400627,0.9066190731400627,0.0,0,False
2022-10-22,0.9066190731400627,0.9066190731400627,0.0,0,False
2022-10-23,0.9066190731400627,0.9066190731400627,0.0,0,False
2022-10-24,0.9066190731400627,0.9066190731400627,0.0,0,False
2022-10-25,0.9066190731400627,0.9066190731400627,0.0,0,False
2022-10-26,0.9066190731400627,0.9066190731400627,0.0,0,False
2022-10-27,0.9066190731400627,0.9066190731400627,0.0,0,False
2022-10-28,0.9066190731400627,0.9066190731400627,0.0,0,False
2022-10-29,0.9066190731400627,0.9066190731400627,0.0,0,False
2022-10-30,0.9066190731400627,0.9066190731400627,0.0,0,False
2022-10-31,0.9066190731400627,0.9066190731400627,0.0,0,False
2022-11-01,0.9066190731400627,0.9066190731400627,0.0,0,False
2022-11-02,0.9066190731400627,0.9066190731400627,0.0,0,False
2022-11-03,0.9066190731400627,0.9066190731400627,0.0,0,False
2022-11-04,0.9066190731400627,0.9066190731400627,0.0,0,False
2022-11-05,0.9066190731400627,0.9066190731400627,0.0,0,False
2022-11-06,0.9066190731400627,0.9066190731400627,0.0,0,False
2022-11-07,0.9066190731400627,0.9066190731400627,0.0,0,False
2022-11-08,0.9066190731400627,0.9066190731400627,0.0,0,False
2022-11-09,0.9066190731400627,0.9066190731400627,0.0,0,False
2022-11-10,0.9066190731400627,0.9066190731400627,0.0,0,False
2022-11-11,0.9066190731400627,0.9066190731400627,0.0,0,False
2022-11-12,0.9066190731400627,0.9066190731400627,0.0,0,False
2022-11-13,0.9066190731400627,0.9066190731400627,0.0,0,False
2022-11-14,0.9066190731400627,0.9066190731400627,0.0,0,False
2022-11-15,0.9066190731400627,0.9066190731400627,0.0,0,False
2022-11-16,0.9066190731400627,0.9066190731400627,0.0,0,False
2022-11-17,0.9066190731400627,0.9066190731400627,0.0,0,False
2022-11-18,0.9066190731400627,0.9066190731400627,0.0,0,False
2022-11-19,0.9066190731400627,0.9066190731400627,0.0,0,False
2022-11-20,0.9066190731400627,0.9066190731400627,0.0,0,False
2022-11-21,0.9066190731400627,0.9066190731400627,0.0,0,False
2022-11-22,0.9066190731400627,0.9066190731400627,0.0,0,False
2022-11-23,0.9066190731400627,0.9066190731400627,0.0,0,False
2022-11-24,0.9066190731400627,0.9066190731400627,0.0,0,False
2022-11-25,0.9066190731400627,0.9066190731400627,0.0,0,False
2022-11-26,0.9066190731400627,0.9066190731400627,0.0,0,False
2022-11-27,0.9066190731400627,0.9066190731400627,0.0,0,False
2022-11-28,0.9066190731400627,0.9066190731400627,0.0,0,False
2022-11-29,0.9066190731400627,0.9066190731400627,0.0,0,False
2022-11-30,0.9066190731400627,0.9066190731400627,0.0,0,False
2022-12-01,0.9066190731400627,0.9066190731400627,0.0,0,False
2022-12-02,0.9066190731400627,0.9066190731400627,0.0,0,False
2022-12-03,0.9066190731400627,0.9066190731400627,0.0,0,False
2022-12-04,0.9066190731400627,0.9066190731400627,0.0,0,False
2022-12-05,0.9066190731400627,0.9066190731400627,0.0,0,False
2022-12-06,0.9066190731400627,0.9066190731400627,0.0,0,False
2022-12-07,0.9066190731400627,0.9066190731400627,0.0,0,False
2022-12-08,0.9066190731400627,0.9066190731400627,0.0,0,False
2022-12-09,0.9066190731400627,0.9066190731400627,0.0,0,False
2022-12-10,0.9066190731400627,0.9066190731400627,0.0,0,False
2022-12-11,0.9066190731400627,0.9066190731400627,0.0,0,False
2022-12-12,0.9066190731400627,0.9066190731400627,0.0,0,False
2022-12-13,0.9066190731400627,0.9066190731400627,0.0,0,False
2022-12-14,0.9066190731400627,0.9066190731400627,0.0,0,False
2022-12-15,0.9066190731400627,0.9066190731400627,0.0,0,False
2022-12-16,0.9066190731400627,0.9066190731400627,0.0,0,False
2022-12-17,0.9066190731400627,0.9066190731400627,0.0,0,False
2022-12-18,0.9066190731400627,0.9066190731400627,0.0,0,False
2022-12-19,0.9066190731400627,0.9066190731400627,0.0,0,False
2022-12-20,0.9066190731400627,0.9066190731400627,0.0,0,False
2022-12-21,0.9066190731400627,0.9066190731400627,0.0,0,False
2022-12-22,0.9066190731400627,0.9066190731400627,0.0,0,False
2022-12-23,0.9066190731400627,0.9066190731400627,0.0,0,False
2022-12-24,0.9066190731400627,0.9066190731400627,0.0,0,False
2022-12-25,0.9066190731400627,0.9066190731400627,0.0,0,False
2022-12-26,0.9066190731400627,0.9066190731400627,0.0,0,False
2022-12-27,0.9066190731400627,0.9066190731400627,0.0,0,False
2022-12-28,0.9066190731400627,0.9066190731400627,0.0,0,False
2022-12-29,0.9066190731400627,0.9066190731400627,0.0,0,False
2022-12-30,0.9066190731400627,0.9066190731400627,0.0,0,False
2022-12-31,0.9066190731400627,0.9066190731400627,0.0,0,False
2023-01-01,0.9066190731400627,0.9066190731400627,0.0,0,False
2023-01-02,0.9066190731400627,0.9066190731400627,0.0,0,False
2023-01-03,0.9066190731400627,0.9066190731400627,0.0,0,False
2023-01-04,0.9066190731400627,0.9066190731400627,0.0,0,False
2023-01-05,0.9066190731400627,0.9066190731400627,0.0,0,False
2023-01-06,0.9066190731400627,0.9066190731400627,0.0,0,False
2023-01-07,0.9066190731400627,0.9066190731400627,0.0,0,False
2023-01-08,0.9066190731400627,0.9066190731400627,0.0,0,False
2023-01-09,0.9066190731400627,0.9066190731400627,0.0,0,False
2023-01-10,0.9066190731400627,0.9066190731400627,0.0,0,False
2023-01-11,0.9066190731400627,0.9066190731400627,0.0,0,False
2023-01-12,0.9066190731400627,0.9066190731400627,0.0,0,False
2023-01-13,0.9066190731400627,0.9066190731400627,0.0,0,False
2023-01-14,0.9066190731400627,0.9066190731400627,0.0,0,False
2023-01-15,0.9066190731400627,0.9066190731400627,0.0,0,False
2023-01-16,0.9066190731400627,0.9066190731400627,0.0,0,False
2023-01-17,0.9066190731400627,0.9066190731400627,0.0,0,False
2023-01-18,0.9066190731400627,0.9066190731400627,0.0,0,False
2023-01-19,0.9066190731400627,0.9066190731400627,0.0,0,False
2023-01-20,0.9066190731400627,0.9066190731400627,0.0,0,False
2023-01-21,0.9066190731400627,0.9066190731400627,0.0,0,False
2023-01-22,0.9066190731400627,0.9066190731400627,0.0,0,False
2023-01-23,0.9066190731400627,0.9066190731400627,0.0,0,False
2023-01-24,0.9066190731400627,0.9066190731400627,0.0,0,False
2023-01-25,0.9066190731400627,0.9066190731400627,0.0,0,False
2023-01-26,0.9066190731400627,0.9066190731400627,0.0,0,False
2023-01-27,0.9066190731400627,0.9066190731400627,0.0,0,False
2023-01-28,0.9066190731400627,0.9066190731400627,0.0,0,False
2023-01-29,0.9066190731400627,0.9066190731400627,0.0,0,False
2023-01-30,0.9066190731400627,0.9066190731400627,0.0,0,False
2023-01-31,0.9066190731400627,0.9066190731400627,0.0,0,False
2023-02-01,0.9066190731400627,0.9066190731400627,0.0,0,False
2023-02-02,0.9066190731400627,0.9066190731400627,0.0,0,False
2023-02-03,0.9066190731400627,0.9066190731400627,0.0,0,False
2023-02-04,0.9066190731400627,0.9066190731400627,0.0,0,False
2023-02-05,0.9066190731400627,0.9066190731400627,0.0,0,False
2023-02-06,0.9066190731400627,0.9066190731400627,0.0,0,False
2023-02-07,0.9066190731400627,0.9066190731400627,0.0,0,False
2023-02-08,0.9066190731400627,0.9066190731400627,0.0,0,False
2023-02-09,0.9066190731400627,0.9066190731400627,0.0,0,False
2023-02-10,0.9066190731400627,0.9066190731400627,0.0,0,False
2023-02-11,0.9066190731400627,0.9066190731400627,0.0,0,False
2023-02-12,0.9066190731400627,0.9066190731400627,0.0,0,False
2023-02-13,0.9066190731400627,0.9066190731400627,0.0,0,False
2023-02-14,0.9066190731400627,0.9066190731400627,0.0,0,False
2023-02-15,0.9066190731400627,0.9066190731400627,0.0,0,False
2023-02-16,0.9066190731400627,0.9066190731400627,0.0,0,False
2023-02-17,0.9066190731400627,0.9066190731400627,0.0,0,False
2023-02-18,0.9066190731400627,0.9066190731400627,0.0,0,False
2023-02-19,0.9066190731400627,0.9066190731400627,0.0,0,False
2023-02-20,0.9066190731400627,0.9066190731400627,0.0,0,False
2023-02-21,0.9066190731400627,0.9066190731400627,0.0,0,False
2023-02-22,0.9066190731400627,0.9066190731400627,0.0,0,False
2023-02-23,0.9066190731400627,0.9066190731400627,0.0,0,False
2023-02-24,0.9066190731400627,0.9066190731400627,0.0,0,False
2023-02-25,0.9066190731400627,0.9066190731400627,0.0,0,False
2023-02-26,0.9066190731400627,0.9066190731400627,0.0,0,False
2023-02-27,0.9066190731400627,0.9066190731400627,0.0,0,False
2023-02-28,0.9066190731400627,0.9066190731400627,0.0,0,False
2023-03-01,0.9066190731400627,0.9066190731400627,0.0,0,False
2023-03-02,0.9066190731400627,0.9066190731400627,0.0,0,False
2023-03-03,0.9066190731400627,0.9066190731400627,0.0,0,False
2023-03-04,0.9066190731400627,0.9066190731400627,0.0,0,False
2023-03-05,0.9066190731400627,0.9066190731400627,0.0,0,False
2023-03-06,0.9066190731400627,0.9066190731400627,0.0,0,False
2023-03-07,0.9066190731400627,0.9066190731400627,0.0,0,False
2023-03-08,0.9066190731400627,0.9066190731400627,0.0,0,False
2023-03-09,0.9066190731400627,0.9066190731400627,0.0,0,False
2023-03-10,0.9066190731400627,0.9066190731400627,0.0,0,False
2023-03-11,0.9066190731400627,0.9066190731400627,0.0,0,False
2023-03-12,0.9066190731400627,0.9066190731400627,0.0,0,False
2023-03-13,0.9066190731400627,0.9066190731400627,0.0,0,False
2023-03-14,0.9066190731400627,0.9066190731400627,0.0,0,False
2023-03-15,0.9066190731400627,0.9066190731400627,0.0,0,False
2023-03-16,0.9066190731400627,0.9066190731400627,0.0,0,False
2023-03-17,0.9066190731400627,0.9066190731400627,0.0,0,False
2023-03-18,0.9066190731400627,0.9066190731400627,0.0,0,False
2023-03-19,0.9066190731400627,0.9066190731400627,0.0,0,False
2023-03-20,0.9066190731400627,0.9066190731400627,0.0,0,False
2023-03-21,0.9066190731400627,0.9066190731400627,0.0,0,False
2023-03-22,0.9066190731400627,0.9066190731400627,0.0,0,False
2023-03-23,0.9066190731400627,0.9066190731400627,0.0,0,False
2023-03-24,0.9066190731400627,0.9066190731400627,0.0,0,False
2023-03-25,0.9066190731400627,0.9066190731400627,0.0,0,False
2023-03-26,0.9066190731400627,0.9066190731400627,0.0,0,False
2023-03-27,0.9066190731400627,0.9066190731400627,0.0,0,False
2023-03-28,0.9066190731400627,0.9066190731400627,0.0,0,False
2023-03-29,0.9066190731400627,0.9066190731400627,0.0,0,False
2023-03-30,0.9066190731400627,0.9066190731400627,0.0,0,False
2023-03-31,0.9066190731400627,0.9066190731400627,0.0,0,False
2023-04-01,0.9066190731400627,0.9066190731400627,0.0,0,False
2023-04-02,0.9066190731400627,0.9066190731400627,0.0,0,False
2023-04-03,0.9066190731400627,0.9066190731400627,0.0,0,False
2023-04-04,0.9066190731400627,0.9066190731400627,0.0,0,False
2023-04-05,0.9066190731400627,0.9066190731400627,0.0,0,False
2023-04-06,0.9066190731400627,0.9066190731400627,0.0,0,False
2023-04-07,0.9066190731400627,0.9066190731400627,0.0,0,False
2023-04-08,0.9066190731400627,0.9066190731400627,0.0,0,False
2023-04-09,0.9066190731400627,0.9066190731400627,0.0,0,False
2023-04-10,0.9066190731400627,0.9066190731400627,0.0,0,False
2023-04-11,0.9066190731400627,0.9066190731400627,0.0,0,False
2023-04-12,0.9066190731400627,0.9066190731400627,0.0,0,False
2023-04-13,0.9066190731400627,0.9066190731400627,0.0,0,False
2023-04-14,0.9066190731400627,0.9066190731400627,0.0,0,False
2023-04-15,0.9066190731400627,0.9066190731400627,0.0,0,False
2023-04-16,0.9066190731400627,0.9066190731400627,0.0,0,False
2023-04-17,0.9066190731400627,0.9066190731400627,0.0,0,False
2023-04-18,0.9066190731400627,0.9066190731400627,0.0,0,False
2023-04-19,0.9066190731400627,0.9066190731400627,0.0,0,False
2023-04-20,0.9066190731400627,0.9066190731400627,0.0,0,False
2023-04-21,0.9066190731400627,0.9066190731400627,0.0,0,False
2023-04-22,0.9066190731400627,0.9066190731400627,0.0,0,False
2023-04-23,0.9066190731400627,0.9066190731400627,0.0,0,False
2023-04-24,0.9066190731400627,0.9066190731400627,0.0,0,False
2023-04-25,0.9066190731400627,0.9066190731400627,0.0,0,False
2023-04-26,0.9066190731400627,0.9066190731400627,0.0,0,False
2023-04-27,0.9066190731400627,0.9066190731400627,0.0,0,False
2023-04-28,0.9066190731400627,0.9066190731400627,0.0,0,False
2023-04-29,0.9066190731400627,0.9066190731400627,0.0,0,False
2023-04-30,0.9066190731400627,0.9066190731400627,0.0,0,False
2023-05-01,0.9066190731400627,0.9066190731400627,0.0,0,False
2023-05-02,0.9066190731400627,0.9066190731400627,0.0,0,False
2023-05-03,0.9066190731400627,0.9066190731400627,0.0,0,False
2023-05-04,0.9066190731400627,0.9066190731400627,0.0,0,False
2023-05-05,0.9066190731400627,0.9066190731400627,0.0,0,False
2023-05-06,0.9066190731400627,0.9066190731400627,0.0,0,False
2023-05-07,0.9066190731400627,0.9066190731400627,0.0,0,False
2023-05-08,0.9066190731400627,0.9066190731400627,0.0,0,False
2023-05-09,0.9066190731400627,0.9066190731400627,0.0,0,False
2023-05-10,0.9066190731400627,0.9066190731400627,0.0,0,False
2023-05-11,0.9066190731400627,0.9066190731400627,0.0,0,False
2023-05-12,0.9066190731400627,0.9066190731400627,0.0,0,False
2023-05-13,0.9066190731400627,0.9066190731400627,0.0,0,False
2023-05-14,0.9066190731400627,0.9066190731400627,0.0,0,False
2023-05-15,0.9066190731400627,0.9066190731400627,0.0,0,False
2023-05-16,0.9066190731400627,0.9066190731400627,0.0,0,False
2023-05-17,0.9066190731400627,0.9066190731400627,0.0,0,False
2023-05-18,0.9066190731400627,0.9066190731400627,0.0,0,False
2023-05-19,0.9066190731400627,0.9066190731400627,0.0,0,False
2023-05-20,0.9066190731400627,0.9066190731400627,0.0,0,False
2023-05-21,0.9066190731400627,0.9066190731400627,0.0,0,False
2023-05-22,0.9066190731400627,0.9066190731400627,0.0,0,False
2023-05-23,0.9066190731400627,0.9066190731400627,0.0,0,False
2023-05-24,0.9066190731400627,0.9066190731400627,0.0,0,False
2023-05-25,0.9066190731400627,0.9066190731400627,0.0,0,False
2023-05-26,0.9066190731400627,0.9066190731400627,0.0,0,False
2023-05-27,0.9066190731400627,0.9066190731400627,0.0,0,False
2023-05-28,0.9066190731400627,0.9066190731400627,0.0,0,False
2023-05-29,0.9066190731400627,0.9066190731400627,0.0,0,False
2023-05-30,0.9066190731400627,0.9066190731400627,0.0,0,False
2023-05-31,0.9066190731400627,0.9066190731400627,0.0,0,False
2023-06-01,0.9066190731400627,0.9066190731400627,0.0,0,False
2023-06-02,0.9066190731400627,0.9066190731400627,0.0,0,False
2023-06-03,0.9066190731400627,0.9066190731400627,0.0,0,False
2023-06-04,0.9066190731400627,0.9066190731400627,0.0,0,False
2023-06-05,0.9066190731400627,0.9066190731400627,0.0,0,False
2023-06-06,0.9066190731400627,0.9066190731400627,0.0,0,False
2023-06-07,0.9066190731400627,0.9066190731400627,0.0,0,False
2023-06-08,0.9066190731400627,0.9066190731400627,0.0,0,False
2023-06-09,0.9066190731400627,0.9066190731400627,0.0,0,False
2023-06-10,0.9066190731400627,0.9066190731400627,0.0,0,False
2023-06-11,0.9066190731400627,0.9066190731400627,0.0,0,False
2023-06-12,0.9066190731400627,0.9066190731400627,0.0,0,False
2023-06-13,0.9066190731400627,0.9066190731400627,0.0,0,False
2023-06-14,0.9066190731400627,0.9066190731400627,0.0,0,False
2023-06-15,0.9066190731400627,0.9066190731400627,0.0,0,False
2023-06-16,0.9066190731400627,0.9066190731400627,0.0,0,False
2023-06-17,0.9066190731400627,0.9066190731400627,0.0,0,False
2023-06-18,0.9066190731400627,0.9066190731400627,0.0,0,False
2023-06-19,0.9066190731400627,0.9066190731400627,0.0,0,False
2023-06-20,0.9066190731400627,0.9066190731400627,0.0,0,False
2023-06-21,0.9066190731400627,0.9066190731400627,0.0,0,False
2023-06-22,0.9066190731400627,0.9066190731400627,0.0,0,False
2023-06-23,0.9066190731400627,0.9066190731400627,0.0,0,False
2023-06-24,0.9066190731400627,0.9066190731400627,0.0,0,False
2023-06-25,0.9066190731400627,0.9066190731400627,0.0,0,False
2023-06-26,0.9066190731400627,0.9066190731400627,0.0,0,False
2023-06-27,0.9066190731400627,0.9066190731400627,0.0,0,False
2023-06-28,0.9066190731400627,0.9066190731400627,0.0,0,False
2023-06-29,0.9066190731400627,0.9066190731400627,0.0,0,False
2023-06-30,0.9066190731400627,0.9066190731400627,0.0,0,False
2023-07-01,0.9066190731400627,0.9066190731400627,0.0,0,False
2023-07-02,0.9066190731400627,0.9066190731400627,0.0,0,False
2023-07-03,0.9066190731400627,0.9066190731400627,0.0,0,False
2023-07-04,0.9066190731400627,0.9066190731400627,0.0,0,False
2023-07-05,0.9066190731400627,0.9066190731400627,0.0,0,False
2023-07-06,0.9066190731400627,0.9066190731400627,0.0,0,False
2023-07-07,0.9066190731400627,0.9066190731400627,0.0,0,False
2023-07-08,0.9066190731400627,0.9066190731400627,0.0,0,False
2023-07-09,0.9066190731400627,0.9066190731400627,0.0,0,False
2023-07-10,0.9066190731400627,0.9066190731400627,0.0,0,False
2023-07-11,0.9066190731400627,0.9066190731400627,0.0,0,False
2023-07-12,0.9066190731400627,0.9066190731400627,0.0,0,False
2023-07-13,0.9066190731400627,0.9066190731400627,0.0,0,False
2023-07-14,0.9066190731400627,0.9066190731400627,0.0,0,False
2023-07-15,0.9066190731400627,0.9066190731400627,0.0,0,False
2023-07-16,0.9066190731400627,0.9066190731400627,0.0,0,False
2023-07-17,0.9066190731400627,0.9066190731400627,0.0,0,False
2023-07-18,0.9066190731400627,0.9066190731400627,0.0,0,False
2023-07-19,0.9066190731400627,0.9066190731400627,0.0,0,False
2023-07-20,0.9066190731400627,0.9066190731400627,0.0,0,False
2023-07-21,0.9066190731400627,0.9066190731400627,0.0,0,False
2023-07-22,0.9066190731400627,0.9066190731400627,0.0,0,False
2023-07-23,0.9066190731400627,0.9066190731400627,0.0,0,False
2023-07-24,0.9066190731400627,0.9066190731400627,0.0,0,False
2023-07-25,0.9066190731400627,0.9066190731400627,0.0,0,False
2023-07-26,0.9066190731400627,0.9066190731400627,0.0,0,False
2023-07-27,0.9066190731400627,0.9066190731400627,0.0,0,False
2023-07-28,0.9066190731400627,0.9066190731400627,0.0,0,False
2023-07-29,0.9066190731400627,0.9066190731400627,0.0,0,False
2023-07-30,0.9066190731400627,0.9066190731400627,0.0,0,False
2023-07-31,0.9066190731400627,0.9066190731400627,0.0,0,False
2023-08-01,0.9066190731400627,0.9066190731400627,0.0,0,False
2023-08-02,0.9066190731400627,0.9066190731400627,0.0,0,False
2023-08-03,0.9066190731400627,0.9066190731400627,0.0,0,False
2023-08-04,0.9066190731400627,0.9066190731400627,0.0,0,False
2023-08-05,0.9066190731400627,0.9066190731400627,0.0,0,False
2023-08-06,0.9066190731400627,0.9066190731400627,0.0,0,False
2023-08-07,0.9066190731400627,0.9066190731400627,0.0,0,False
2023-08-08,0.9066190731400627,0.9066190731400627,0.0,0,False
2023-08-09,0.9066190731400627,0.9066190731400627,0.0,0,False
2023-08-10,0.9066190731400627,0.9066190731400627,0.0,0,False
2023-08-11,0.9066190731400627,0.9066190731400627,0.0,0,False
2023-08-12,0.9066190731400627,0.9066190731400627,0.0,0,False
2023-08-13,0.9066190731400627,0.9066190731400627,0.0,0,False
2023-08-14,0.9066190731400627,0.9066190731400627,0.0,0,False
2023-08-15,0.9066190731400627,0.9066190731400627,0.0,0,False
2023-08-16,0.9066190731400627,0.9066190731400627,0.0,0,False
2023-08-17,0.9066190731400627,0.9066190731400627,0.0,0,False
2023-08-18,0.9066190731400627,0.9066190731400627,0.0,0,False
2023-08-19,0.9066190731400627,0.9066190731400627,0.0,0,False
2023-08-20,0.9066190731400627,0.9066190731400627,0.0,0,False
2023-08-21,0.9066190731400627,0.9066190731400627,0.0,0,False
2023-08-22,0.9066190731400627,0.9066190731400627,0.0,0,False
2023-08-23,0.9066190731400627,0.9066190731400627,0.0,0,False
2023-08-24,0.9066190731400627,0.9066190731400627,0.0,0,False
2023-08-25,0.9066190731400627,0.9066190731400627,0.0,0,False
2023-08-26,0.9066190731400627,0.9066190731400627,0.0,0,False
2023-08-27,0.9066190731400627,0.9066190731400627,0.0,0,False
2023-08-28,0.9066190731400627,0.9066190731400627,0.0,0,False
2023-08-29,0.9066190731400627,0.9066190731400627,0.0,0,False
2023-08-30,0.9066190731400627,0.9066190731400627,0.0,0,False
2023-08-31,0.9066190731400627,0.9066190731400627,0.0,0,False
2023-09-01,0.9066190731400627,0.9066190731400627,0.0,0,False
2023-09-02,0.9066190731400627,0.9066190731400627,0.0,0,False
2023-09-03,0.9066190731400627,0.9066190731400627,0.0,0,False
2023-09-04,0.9066190731400627,0.9066190731400627,0.0,0,False
2023-09-05,0.9066190731400627,0.9066190731400627,0.0,0,False
2023-09-06,0.9066190731400627,0.9066190731400627,0.0,0,False
2023-09-07,0.9066190731400627,0.9066190731400627,0.0,0,False
2023-09-08,0.9066190731400627,0.9066190731400627,0.0,0,False
2023-09-09,0.9066190731400627,0.9066190731400627,0.0,0,False
2023-09-10,0.9066190731400627,0.9066190731400627,0.0,0,False
2023-09-11,0.9066190731400627,0.9066190731400627,0.0,0,False
2023-09-12,0.9066190731400627,0.9066190731400627,0.0,0,False
2023-09-13,0.9066190731400627,0.9066190731400627,0.0,0,False
2023-09-14,0.9066190731400627,0.9066190731400627,0.0,0,False
2023-09-15,0.9066190731400627,0.9066190731400627,0.0,0,False
2023-09-16,0.9066190731400627,0.9066190731400627,0.0,0,False
2023-09-17,0.9066190731400627,0.9066190731400627,0.0,0,False
2023-09-18,0.9066190731400627,0.9066190731400627,0.0,0,False
2023-09-19,0.9066190731400627,0.9066190731400627,0.0,0,False
2023-09-20,0.9066190731400627,0.9066190731400627,0.0,0,False
2023-09-21,0.9066190731400627,0.9066190731400627,0.0,0,False
2023-09-22,0.9066190731400627,0.9066190731400627,0.0,0,False
2023-09-23,0.9066190731400627,0.9066190731400627,0.0,0,False
2023-09-24,0.9066190731400627,0.9066190731400627,0.0,0,False
2023-09-25,0.9066190731400627,0.9066190731400627,0.0,0,False
2023-09-26,0.9066190731400627,0.9066190731400627,0.0,0,False
2023-09-27,0.9066190731400627,0.9066190731400627,0.0,0,False
2023-09-28,0.9066190731400627,0.9066190731400627,0.0,0,False
2023-09-29,0.9066190731400627,0.9066190731400627,0.0,0,False
2023-09-30,0.9066190731400627,0.9066190731400627,0.0,0,False
2023-10-01,0.9066190731400627,0.9066190731400627,0.0,0,False
2023-10-02,0.9066190731400627,0.9066190731400627,0.0,0,False
2023-10-03,0.9066190731400627,0.9066190731400627,0.0,0,False
2023-10-04,0.9066190731400627,0.9066190731400627,0.0,0,False
2023-10-05,0.9066190731400627,0.9066190731400627,0.0,0,False
2023-10-06,0.9066190731400627,0.9066190731400627,0.0,0,False
2023-10-07,0.9066190731400627,0.9066190731400627,0.0,0,False
2023-10-08,0.9066190731400627,0.9066190731400627,0.0,0,False
2023-10-09,0.9066190731400627,0.9066190731400627,0.0,0,False
2023-10-10,0.9066190731400627,0.9066190731400627,0.0,0,False
2023-10-11,0.9066190731400627,0.9066190731400627,0.0,0,False
2023-10-12,0.9066190731400627,0.9066190731400627,0.0,0,False
2023-10-13,0.9066190731400627,0.9066190731400627,0.0,0,False
2023-10-14,0.9066190731400627,0.9066190731400627,0.0,0,False
2023-10-15,0.9066190731400627,0.9066190731400627,0.0,0,False
2023-10-16,0.9066190731400627,0.9066190731400627,0.0,0,False
2023-10-17,0.9066190731400627,0.9066190731400627,0.0,0,False
2023-10-18,0.9066190731400627,0.9066190731400627,0.0,0,False
2023-10-19,0.9066190731400627,0.9066190731400627,0.0,0,False
2023-10-20,0.9066190731400627,0.9066190731400627,0.0,0,False
2023-10-21,0.9066190731400627,0.9066190731400627,0.0,0,False
2023-10-22,0.9066190731400627,0.9066190731400627,0.0,0,False
2023-10-23,0.9066190731400627,0.9066190731400627,0.0,0,False
2023-10-24,0.9066190731400627,0.9066190731400627,0.0,0,False
2023-10-25,0.9066190731400627,0.9066190731400627,0.0,0,False
2023-10-26,0.9066190731400627,0.9066190731400627,0.0,0,False
2023-10-27,0.9066190731400627,0.9066190731400627,0.0,0,False
2023-10-28,0.9066190731400627,0.9066190731400627,0.0,0,False
2023-10-29,0.9066190731400627,0.9066190731400627,0.0,0,False
2023-10-30,0.9066190731400627,0.9066190731400627,0.0,0,False
2023-10-31,0.9066190731400627,0.9066190731400627,0.0,0,False
2023-11-01,0.9066190731400627,0.9066190731400627,0.0,0,False
2023-11-02,0.9066190731400627,0.9066190731400627,0.0,0,False
2023-11-03,0.9066190731400627,0.9066190731400627,0.0,0,False
2023-11-04,0.9066190731400627,0.9066190731400627,0.0,0,False
2023-11-05,0.9066190731400627,0.9066190731400627,0.0,0,False
2023-11-06,0.9066190731400627,0.9066190731400627,0.0,0,False
2023-11-07,0.9066190731400627,0.9066190731400627,0.0,0,False
2023-11-08,0.9066190731400627,0.9066190731400627,0.0,0,False
2023-11-09,0.9066190731400627,0.9066190731400627,0.0,0,False
2023-11-10,0.9066190731400627,0.9066190731400627,0.0,0,False
2023-11-11,0.9066190731400627,0.9066190731400627,0.0,0,False
2023-11-12,0.9066190731400627,0.9066190731400627,0.0,0,False
2023-11-13,0.9066190731400627,0.9066190731400627,0.0,0,False
2023-11-14,0.9066190731400627,0.9066190731400627,0.0,0,False
2023-11-15,0.9066190731400627,0.9066190731400627,0.0,0,False
2023-11-16,0.9066190731400627,0.9066190731400627,0.0,0,False
2023-11-17,0.9066190731400627,0.9066190731400627,0.0,0,False
2023-11-18,0.9066190731400627,0.9066190731400627,0.0,0,False
2023-11-19,0.9066190731400627,0.9066190731400627,0.0,0,False
2023-11-20,0.9066190731400627,0.9066190731400627,0.0,0,False
2023-11-21,0.9066190731400627,0.9066190731400627,0.0,0,False
2023-11-22,0.9066190731400627,0.9066190731400627,0.0,0,False
2023-11-23,0.9066190731400627,0.9066190731400627,0.0,0,False
2023-11-24,0.9066190731400627,0.9066190731400627,0.0,0,False
2023-11-25,0.9066190731400627,0.9066190731400627,0.0,0,False
2023-11-26,0.9066190731400627,0.9066190731400627,0.0,0,False
2023-11-27,0.9066190731400627,0.9066190731400627,0.0,0,False
2023-11-28,0.9066190731400627,0.9066190731400627,0.0,0,False
2023-11-29,0.9066190731400627,0.9066190731400627,0.0,0,False
2023-11-30,0.9066190731400627,0.9066190731400627,0.0,0,False
2023-12-01,0.9066190731400627,0.9066190731400627,0.0,0,False
2023-12-02,0.9066190731400627,0.9066190731400627,0.0,0,False
2023-12-03,0.9066190731400627,0.9066190731400627,0.0,0,False
2023-12-04,0.9066190731400627,0.9066190731400627,0.0,0,False
2023-12-05,0.9066190731400627,0.9066190731400627,0.0,0,False
2023-12-06,0.9066190731400627,0.9066190731400627,0.0,0,False
2023-12-07,0.9066190731400627,0.9066190731400627,0.0,0,False
2023-12-08,0.9066190731400627,0.9066190731400627,0.0,0,False
2023-12-09,0.9066190731400627,0.9066190731400627,0.0,0,False
2023-12-10,0.9066190731400627,0.9066190731400627,0.0,0,False
2023-12-11,0.9066190731400627,0.9066190731400627,0.0,0,False
2023-12-12,0.9066190731400627,0.9066190731400627,0.0,0,False
2023-12-13,0.9066190731400627,0.9066190731400627,0.0,0,False
2023-12-14,0.9066190731400627,0.9066190731400627,0.0,0,False
2023-12-15,0.9066190731400627,0.9066190731400627,0.0,0,False
2023-12-16,0.9066190731400627,0.9066190731400627,0.0,0,False
2023-12-17,0.9066190731400627,0.9066190731400627,0.0,0,False
2023-12-18,0.9066190731400627,0.9066190731400627,0.0,0,False
2023-12-19,0.9066190731400627,0.9066190731400627,0.0,0,False
2023-12-20,0.9066190731400627,0.9066190731400627,0.0,0,False
2023-12-21,0.9066190731400627,0.9066190731400627,0.0,0,False
2023-12-22,0.9066190731400627,0.9066190731400627,0.0,0,False
2023-12-23,0.9066190731400627,0.9066190731400627,0.0,0,False
2023-12-24,0.9066190731400627,0.9066190731400627,0.0,0,False
2023-12-25,0.9066190731400627,0.9066190731400627,0.0,0,False
2023-12-26,0.9066190731400627,0.9066190731400627,0.0,0,False
2023-12-27,0.9066190731400627,0.9066190731400627,0.0,0,False
2023-12-28,0.9066190731400627,0.9066190731400627,0.0,0,False
2023-12-29,0.9066190731400627,0.9066190731400627,0.0,0,False
2023-12-30,0.9066190731400627,0.9066190731400627,0.0,0,False
2023-12-31,0.9066190731400627,0.9066190731400627,0.0,0,False
