day,start_equity,end_equity,return_pct,entries,active
2021-09-02,1.0,1.0,0.0,0,False
2021-09-03,1.0,1.0,0.0,0,False
2021-09-04,1.0,1.0,0.0,0,False
2021-09-05,1.0,1.0,0.0,0,False
2021-09-06,1.0,1.0,0.0,0,False
2021-09-07,1.0,1.0,0.0,0,False
2021-09-08,1.0,1.0,0.0,0,False
2021-09-09,1.0,1.0,0.0,0,False
2021-09-10,1.0,1.0,0.0,0,False
2021-09-11,1.0,1.0,0.0,0,False
2021-09-12,1.0,1.0,0.0,0,False
2021-09-13,1.0,1.0,0.0,0,False
2021-09-14,1.0,1.0,0.0,0,False
2021-09-15,1.0,1.0,0.0,0,False
2021-09-16,1.0,1.0,0.0,0,False
2021-09-17,1.0,1.0,0.0,0,False
2021-09-18,1.0,1.0,0.0,0,False
2021-09-19,1.0,1.0,0.0,0,False
2021-09-20,1.0,1.0,0.0,0,False
2021-09-21,1.0,1.0,0.0,0,False
2021-09-22,1.0,1.0,0.0,0,False
2021-09-23,1.0,1.0,0.0,0,False
2021-09-24,1.0,1.0,0.0,0,False
2021-09-25,1.0,1.0,0.0,0,False
2021-09-26,1.0,1.0,0.0,0,False
2021-09-27,1.0,1.0,0.0,0,False
2021-09-28,1.0,1.0,0.0,0,False
2021-09-29,1.0,1.0,0.0,0,False
2021-09-30,1.0,1.0,0.0,0,False
2021-10-01,1.0,1.0,0.0,0,False
2021-10-02,1.0,1.0,0.0,0,False
2021-10-03,1.0,1.0,0.0,0,False
2021-10-04,1.0,1.0,0.0,0,False
2021-10-05,1.0,0.9991229226558256,-0.08770773441744151,1,True
2021-10-06,0.9991229226558256,1.0053736549493055,0.6256219481847625,5,True
2021-10-07,1.0053736549493055,0.9839055038898644,-2.135340522775442,2,True
2021-10-08,0.9839055038898644,0.9830740926183422,-0.08450113026456929,1,True
2021-10-09,0.9830740926183422,0.9844562480216575,0.14059524238239085,3,True
2021-10-10,0.9844562480216575,0.9724267404460794,-1.2219443575834266,1,True
2021-10-11,0.9724267404460794,0.9700111144294237,-0.2484121339102141,0,True
2021-10-12,0.9700111144294237,0.9700111144294237,0.0,0,False
2021-10-13,0.9700111144294237,0.9928446298075166,2.3539436856374607,4,True
2021-10-14,0.9928446298075166,1.019511470836901,2.685902731281775,1,True
2021-10-15,1.019511470836901,1.0225545260254418,0.2984817018333974,6,True
2021-10-16,1.0225545260254418,1.066545522756889,4.3020685559366,2,True
2021-10-17,1.066545522756889,1.066759147549863,0.020029599151261124,0,True
2021-10-18,1.066759147549863,1.0561073374280936,-0.9985206263508073,2,True
2021-10-19,1.0561073374280936,1.0561073374280936,0.0,0,False
2021-10-20,1.0561073374280936,1.0561073374280936,0.0,0,False
2021-10-21,1.0561073374280936,1.0561073374280936,0.0,0,False
2021-10-22,1.0561073374280936,1.0561073374280936,0.0,0,False
2021-10-23,1.0561073374280936,1.0561073374280936,0.0,0,False
2021-10-24,1.0561073374280936,1.0603143531423462,0.3983511490884828,1,True
2021-10-25,1.0603143531423462,1.0515210364878111,-0.8293122344779413,2,True
2021-10-26,1.0515210364878111,1.0577402834950642,0.5914524571021484,0,True
2021-10-27,1.0577402834950642,1.0658139678863734,0.763295538355746,7,True
2021-10-28,1.0658139678863734,1.0651944830836815,-0.05812316420663599,3,True
2021-10-29,1.0651944830836815,1.060685158502707,-0.4233334524903043,2,True
2021-10-30,1.060685158502707,1.1207977134977967,5.667332526830693,2,True
2021-10-31,1.1207977134977967,1.1424923583845505,1.9356432142468405,9,True
2021-11-01,1.1424923583845505,1.1188697922729505,-2.0676344956041204,6,True
2021-11-02,1.1188697922729505,1.1306122351109735,1.0494914528140553,3,True
2021-11-03,1.1306122351109735,1.121009120168452,-0.849372989633268,2,True
2021-11-04,1.121009120168452,1.139091954341705,1.6130853753032692,5,True
2021-11-05,1.139091954341705,1.1159224304986612,-2.0340345443343733,2,True
2021-11-06,1.1159224304986612,1.112161710151693,-0.33700553409323764,3,True
2021-11-07,1.112161710151693,1.108340127651287,-0.3436175212222281,0,True
2021-11-08,1.108340127651287,1.108340127651287,0.0,0,False
2021-11-09,1.108340127651287,1.1151933010456876,0.6183276436019014,1,True
2021-11-10,1.1151933010456876,1.1398212056160992,2.208397821912911,0,True
2021-11-11,1.1398212056160992,1.115081855112878,-2.170458873841441,8,True
2021-11-12,1.115081855112878,1.0914149128835866,-2.122439901678397,5,True
2021-11-13,1.0914149128835866,1.0902477156609405,-0.10694349223818733,1,True
2021-11-14,1.0902477156609405,1.0894400827195985,-0.07407793015666853,2,True
2021-11-15,1.0894400827195985,1.0884276871377117,-0.09292806441998369,0,True
2021-11-16,1.0884276871377117,1.1012349947621303,1.1766796982258576,9,True
2021-11-17,1.1012349947621303,1.0903515424951769,-0.988295170305975,1,True
2021-11-18,1.0903515424951769,1.084016832750125,-0.5809786567142816,4,True
2021-11-19,1.084016832750125,1.089459813874064,0.5021122329005312,7,True
2021-11-20,1.089459813874064,1.0942292598348047,0.43778080659815366,0,True
2021-11-21,1.0942292598348047,1.0887644029546695,-0.4994252192598303,3,True
2021-11-22,1.0887644029546695,1.0839615677989887,-0.44112712930794995,9,True
2021-11-23,1.0839615677989887,1.0822503206331051,-0.1578697268168172,0,True
2021-11-24,1.0822503206331051,1.0743566186564912,-0.7293785759283633,4,True
2021-11-25,1.0743566186564912,1.082305185708379,0.7398443788457776,7,True
2021-11-26,1.082305185708379,1.066215590664999,-1.4866042642906807,13,True
2021-11-27,1.066215590664999,1.0703468064451929,0.38746533218645407,5,True
2021-11-28,1.0703468064451929,1.0487088422330306,-2.0215844137495664,10,True
2021-11-29,1.0487088422330306,1.0471226367897082,-0.15125317718738263,2,True
2021-11-30,1.0471226367897082,1.0396154524770933,-0.7169345832910845,2,True
2021-12-01,1.0396154524770933,1.0396154524770933,0.0,0,False
2021-12-02,1.0396154524770933,1.0396154524770933,0.0,0,False
2021-12-03,1.0396154524770933,1.0396154524770933,0.0,0,False
2021-12-04,1.0396154524770933,1.0396154524770933,0.0,0,False
2021-12-05,1.0396154524770933,1.0396154524770933,0.0,0,False
2021-12-06,1.0396154524770933,1.0396154524770933,0.0,0,False
2021-12-07,1.0396154524770933,1.0396154524770933,0.0,0,False
2021-12-08,1.0396154524770933,1.0396154524770933,0.0,0,False
2021-12-09,1.0396154524770933,1.0396154524770933,0.0,0,False
2021-12-10,1.0396154524770933,1.0396154524770933,0.0,0,False
2021-12-11,1.0396154524770933,1.0396154524770933,0.0,0,False
2021-12-12,1.0396154524770933,1.0396154524770933,0.0,0,False
2021-12-13,1.0396154524770933,1.0396154524770933,0.0,0,False
2021-12-14,1.0396154524770933,1.0396154524770933,0.0,0,False
2021-12-15,1.0396154524770933,1.0396154524770933,0.0,0,False
2021-12-16,1.0396154524770933,1.0396154524770933,0.0,0,False
2021-12-17,1.0396154524770933,1.0396154524770933,0.0,0,False
2021-12-18,1.0396154524770933,1.0396154524770933,0.0,0,False
2021-12-19,1.0396154524770933,1.0396154524770933,0.0,0,False
2021-12-20,1.0396154524770933,1.0396154524770933,0.0,0,False
2021-12-21,1.0396154524770933,1.0396154524770933,0.0,0,False
2021-12-22,1.0396154524770933,1.0396154524770933,0.0,0,False
2021-12-23,1.0396154524770933,1.0396154524770933,0.0,0,False
2021-12-24,1.0396154524770933,1.0396154524770933,0.0,0,False
2021-12-25,1.0396154524770933,1.0396154524770933,0.0,0,False
2021-12-26,1.0396154524770933,1.0396154524770933,0.0,0,False
2021-12-27,1.0396154524770933,1.0396154524770933,0.0,0,False
2021-12-28,1.0396154524770933,1.0396154524770933,0.0,0,False
2021-12-29,1.0396154524770933,1.0396154524770933,0.0,0,False
2021-12-30,1.0396154524770933,1.0396154524770933,0.0,0,False
2021-12-31,1.0396154524770933,1.0396154524770933,0.0,0,False
2022-01-01,1.0396154524770933,1.0396154524770933,0.0,0,False
2022-01-02,1.0396154524770933,1.0396154524770933,0.0,0,False
2022-01-03,1.0396154524770933,1.0396154524770933,0.0,0,False
2022-01-04,1.0396154524770933,1.0396154524770933,0.0,0,False
2022-01-05,1.0396154524770933,1.0396154524770933,0.0,0,False
2022-01-06,1.0396154524770933,1.0396154524770933,0.0,0,False
2022-01-07,1.0396154524770933,1.0396154524770933,0.0,0,False
2022-01-08,1.0396154524770933,1.0396154524770933,0.0,0,False
2022-01-09,1.0396154524770933,1.0396154524770933,0.0,0,False
2022-01-10,1.0396154524770933,1.0396154524770933,0.0,0,False
2022-01-11,1.0396154524770933,1.0396154524770933,0.0,0,False
2022-01-12,1.0396154524770933,1.0396154524770933,0.0,0,False
2022-01-13,1.0396154524770933,1.0396154524770933,0.0,0,False
2022-01-14,1.0396154524770933,1.0396154524770933,0.0,0,False
2022-01-15,1.0396154524770933,1.0396154524770933,0.0,0,False
2022-01-16,1.0396154524770933,1.0396154524770933,0.0,0,False
2022-01-17,1.0396154524770933,1.0396154524770933,0.0,0,False
2022-01-18,1.0396154524770933,1.0396154524770933,0.0,0,False
2022-01-19,1.0396154524770933,1.0396154524770933,0.0,0,False
2022-01-20,1.0396154524770933,1.0396154524770933,0.0,0,False
2022-01-21,1.0396154524770933,1.0396154524770933,0.0,0,False
2022-01-22,1.0396154524770933,1.0396154524770933,0.0,0,False
2022-01-23,1.0396154524770933,1.0396154524770933,0.0,0,False
2022-01-24,1.0396154524770933,1.0396154524770933,0.0,0,False
2022-01-25,1.0396154524770933,1.0396154524770933,0.0,0,False
2022-01-26,1.0396154524770933,1.0396154524770933,0.0,0,False
2022-01-27,1.0396154524770933,1.0396154524770933,0.0,0,False
2022-01-28,1.0396154524770933,1.0396154524770933,0.0,0,False
2022-01-29,1.0396154524770933,1.0396154524770933,0.0,0,False
2022-01-30,1.0396154524770933,1.0396154524770933,0.0,0,False
2022-01-31,1.0396154524770933,1.0396154524770933,0.0,0,False
2022-02-01,1.0396154524770933,1.0396154524770933,0.0,0,False
2022-02-02,1.0396154524770933,1.0396154524770933,0.0,0,False
2022-02-03,1.0396154524770933,1.0396154524770933,0.0,0,False
2022-02-04,1.0396154524770933,1.0396154524770933,0.0,0,False
2022-02-05,1.0396154524770933,1.0396154524770933,0.0,0,False
2022-02-06,1.0396154524770933,1.0396154524770933,0.0,0,False
2022-02-07,1.0396154524770933,1.0396154524770933,0.0,0,False
2022-02-08,1.0396154524770933,1.0396154524770933,0.0,0,False
2022-02-09,1.0396154524770933,1.0396154524770933,0.0,0,False
2022-02-10,1.0396154524770933,1.0396154524770933,0.0,0,False
2022-02-11,1.0396154524770933,1.0396154524770933,0.0,0,False
2022-02-12,1.0396154524770933,1.0396154524770933,0.0,0,False
2022-02-13,1.0396154524770933,1.0396154524770933,0.0,0,False
2022-02-14,1.0396154524770933,1.0396154524770933,0.0,0,False
2022-02-15,1.0396154524770933,1.0396154524770933,0.0,0,False
2022-02-16,1.0396154524770933,1.0396154524770933,0.0,0,False
2022-02-17,1.0396154524770933,1.0396154524770933,0.0,0,False
2022-02-18,1.0396154524770933,1.0396154524770933,0.0,0,False
2022-02-19,1.0396154524770933,1.0396154524770933,0.0,0,False
2022-02-20,1.0396154524770933,1.0396154524770933,0.0,0,False
2022-02-21,1.0396154524770933,1.0396154524770933,0.0,0,False
2022-02-22,1.0396154524770933,1.0396154524770933,0.0,0,False
2022-02-23,1.0396154524770933,1.0396154524770933,0.0,0,False
2022-02-24,1.0396154524770933,1.0396154524770933,0.0,0,False
2022-02-25,1.0396154524770933,1.0396154524770933,0.0,0,False
2022-02-26,1.0396154524770933,1.0396154524770933,0.0,0,False
2022-02-27,1.0396154524770933,1.0396154524770933,0.0,0,False
2022-02-28,1.0396154524770933,1.0396154524770933,0.0,0,False
2022-03-01,1.0396154524770933,1.0396154524770933,0.0,0,False
2022-03-02,1.0396154524770933,1.0396154524770933,0.0,0,False
2022-03-03,1.0396154524770933,1.0396154524770933,0.0,0,False
2022-03-04,1.0396154524770933,1.0396154524770933,0.0,0,False
2022-03-05,1.0396154524770933,1.0396154524770933,0.0,0,False
2022-03-06,1.0396154524770933,1.0396154524770933,0.0,0,False
2022-03-07,1.0396154524770933,1.0396154524770933,0.0,0,False
2022-03-08,1.0396154524770933,1.0396154524770933,0.0,0,False
2022-03-09,1.0396154524770933,1.0396154524770933,0.0,0,False
2022-03-10,1.0396154524770933,1.0396154524770933,0.0,0,False
2022-03-11,1.0396154524770933,1.0396154524770933,0.0,0,False
2022-03-12,1.0396154524770933,1.0396154524770933,0.0,0,False
2022-03-13,1.0396154524770933,1.0396154524770933,0.0,0,False
2022-03-14,1.0396154524770933,1.0396154524770933,0.0,0,False
2022-03-15,1.0396154524770933,1.0396154524770933,0.0,0,False
2022-03-16,1.0396154524770933,1.0396154524770933,0.0,0,False
2022-03-17,1.0396154524770933,1.0396154524770933,0.0,0,False
2022-03-18,1.0396154524770933,1.0396154524770933,0.0,0,False
2022-03-19,1.0396154524770933,1.0396154524770933,0.0,0,False
2022-03-20,1.0396154524770933,1.0396154524770933,0.0,0,False
2022-03-21,1.0396154524770933,1.0396154524770933,0.0,0,False
2022-03-22,1.0396154524770933,1.0396154524770933,0.0,0,False
2022-03-23,1.0396154524770933,1.0396154524770933,0.0,0,False
2022-03-24,1.0396154524770933,1.0396154524770933,0.0,0,False
2022-03-25,1.0396154524770933,1.0396154524770933,0.0,0,False
2022-03-26,1.0396154524770933,1.0396154524770933,0.0,0,False
2022-03-27,1.0396154524770933,1.0396154524770933,0.0,0,False
2022-03-28,1.0396154524770933,1.0396154524770933,0.0,0,False
2022-03-29,1.0396154524770933,1.0396154524770933,0.0,0,False
2022-03-30,1.0396154524770933,1.0396154524770933,0.0,0,False
2022-03-31,1.0396154524770933,1.0396154524770933,0.0,0,False
2022-04-01,1.0396154524770933,1.0396154524770933,0.0,0,False
2022-04-02,1.0396154524770933,1.0396154524770933,0.0,0,False
2022-04-03,1.0396154524770933,1.0396154524770933,0.0,0,False
2022-04-04,1.0396154524770933,1.0396154524770933,0.0,0,False
2022-04-05,1.0396154524770933,1.0396154524770933,0.0,0,False
2022-04-06,1.0396154524770933,1.0396154524770933,0.0,0,False
2022-04-07,1.0396154524770933,1.0396154524770933,0.0,0,False
2022-04-08,1.0396154524770933,1.0396154524770933,0.0,0,False
2022-04-09,1.0396154524770933,1.0396154524770933,0.0,0,False
2022-04-10,1.0396154524770933,1.0396154524770933,0.0,0,False
2022-04-11,1.0396154524770933,1.0396154524770933,0.0,0,False
2022-04-12,1.0396154524770933,1.0396154524770933,0.0,0,False
2022-04-13,1.0396154524770933,1.0396154524770933,0.0,0,False
2022-04-14,1.0396154524770933,1.0396154524770933,0.0,0,False
2022-04-15,1.0396154524770933,1.0396154524770933,0.0,0,False
2022-04-16,1.0396154524770933,1.0396154524770933,0.0,0,False
2022-04-17,1.0396154524770933,1.0396154524770933,0.0,0,False
2022-04-18,1.0396154524770933,1.0396154524770933,0.0,0,False
2022-04-19,1.0396154524770933,1.0396154524770933,0.0,0,False
2022-04-20,1.0396154524770933,1.0396154524770933,0.0,0,False
2022-04-21,1.0396154524770933,1.0396154524770933,0.0,0,False
2022-04-22,1.0396154524770933,1.0396154524770933,0.0,0,False
2022-04-23,1.0396154524770933,1.0396154524770933,0.0,0,False
2022-04-24,1.0396154524770933,1.0396154524770933,0.0,0,False
2022-04-25,1.0396154524770933,1.0396154524770933,0.0,0,False
2022-04-26,1.0396154524770933,1.0396154524770933,0.0,0,False
2022-04-27,1.0396154524770933,1.0396154524770933,0.0,0,False
2022-04-28,1.0396154524770933,1.0396154524770933,0.0,0,False
2022-04-29,1.0396154524770933,1.0396154524770933,0.0,0,False
2022-04-30,1.0396154524770933,1.0396154524770933,0.0,0,False
2022-05-01,1.0396154524770933,1.0396154524770933,0.0,0,False
2022-05-02,1.0396154524770933,1.0396154524770933,0.0,0,False
2022-05-03,1.0396154524770933,1.0396154524770933,0.0,0,False
2022-05-04,1.0396154524770933,1.0396154524770933,0.0,0,False
2022-05-05,1.0396154524770933,1.0396154524770933,0.0,0,False
2022-05-06,1.0396154524770933,1.0396154524770933,0.0,0,False
2022-05-07,1.0396154524770933,1.0396154524770933,0.0,0,False
2022-05-08,1.0396154524770933,1.0396154524770933,0.0,0,False
2022-05-09,1.0396154524770933,1.0396154524770933,0.0,0,False
2022-05-10,1.0396154524770933,1.0396154524770933,0.0,0,False
2022-05-11,1.0396154524770933,1.0396154524770933,0.0,0,False
2022-05-12,1.0396154524770933,1.0396154524770933,0.0,0,False
2022-05-13,1.0396154524770933,1.0396154524770933,0.0,0,False
2022-05-14,1.0396154524770933,1.0396154524770933,0.0,0,False
2022-05-15,1.0396154524770933,1.0396154524770933,0.0,0,False
2022-05-16,1.0396154524770933,1.0396154524770933,0.0,0,False
2022-05-17,1.0396154524770933,1.0396154524770933,0.0,0,False
2022-05-18,1.0396154524770933,1.0396154524770933,0.0,0,False
2022-05-19,1.0396154524770933,1.0396154524770933,0.0,0,False
2022-05-20,1.0396154524770933,1.0396154524770933,0.0,0,False
2022-05-21,1.0396154524770933,1.0396154524770933,0.0,0,False
2022-05-22,1.0396154524770933,1.0396154524770933,0.0,0,False
2022-05-23,1.0396154524770933,1.0396154524770933,0.0,0,False
2022-05-24,1.0396154524770933,1.0396154524770933,0.0,0,False
2022-05-25,1.0396154524770933,1.0396154524770933,0.0,0,False
2022-05-26,1.0396154524770933,1.0396154524770933,0.0,0,False
2022-05-27,1.0396154524770933,1.0396154524770933,0.0,0,False
2022-05-28,1.0396154524770933,1.0396154524770933,0.0,0,False
2022-05-29,1.0396154524770933,1.0396154524770933,0.0,0,False
2022-05-30,1.0396154524770933,1.0396154524770933,0.0,0,False
2022-05-31,1.0396154524770933,1.0396154524770933,0.0,0,False
2022-06-01,1.0396154524770933,1.0396154524770933,0.0,0,False
2022-06-02,1.0396154524770933,1.0396154524770933,0.0,0,False
2022-06-03,1.0396154524770933,1.0396154524770933,0.0,0,False
2022-06-04,1.0396154524770933,1.0396154524770933,0.0,0,False
2022-06-05,1.0396154524770933,1.0396154524770933,0.0,0,False
2022-06-06,1.0396154524770933,1.0396154524770933,0.0,0,False
2022-06-07,1.0396154524770933,1.0396154524770933,0.0,0,False
2022-06-08,1.0396154524770933,1.0396154524770933,0.0,0,False
2022-06-09,1.0396154524770933,1.0396154524770933,0.0,0,False
2022-06-10,1.0396154524770933,1.0396154524770933,0.0,0,False
2022-06-11,1.0396154524770933,1.0396154524770933,0.0,0,False
2022-06-12,1.0396154524770933,1.0396154524770933,0.0,0,False
2022-06-13,1.0396154524770933,1.0396154524770933,0.0,0,False
2022-06-14,1.0396154524770933,1.0396154524770933,0.0,0,False
2022-06-15,1.0396154524770933,1.0396154524770933,0.0,0,False
2022-06-16,1.0396154524770933,1.0396154524770933,0.0,0,False
2022-06-17,1.0396154524770933,1.0396154524770933,0.0,0,False
2022-06-18,1.0396154524770933,1.0396154524770933,0.0,0,False
2022-06-19,1.0396154524770933,1.0396154524770933,0.0,0,False
2022-06-20,1.0396154524770933,1.0396154524770933,0.0,0,False
2022-06-21,1.0396154524770933,1.0396154524770933,0.0,0,False
2022-06-22,1.0396154524770933,1.0396154524770933,0.0,0,False
2022-06-23,1.0396154524770933,1.0396154524770933,0.0,0,False
2022-06-24,1.0396154524770933,1.0396154524770933,0.0,0,False
2022-06-25,1.0396154524770933,1.0396154524770933,0.0,0,False
2022-06-26,1.0396154524770933,1.0396154524770933,0.0,0,False
2022-06-27,1.0396154524770933,1.0396154524770933,0.0,0,False
2022-06-28,1.0396154524770933,1.0396154524770933,0.0,0,False
2022-06-29,1.0396154524770933,1.0396154524770933,0.0,0,False
2022-06-30,1.0396154524770933,1.0396154524770933,0.0,0,False
2022-07-01,1.0396154524770933,1.0396154524770933,0.0,0,False
2022-07-02,1.0396154524770933,1.0396154524770933,0.0,0,False
2022-07-03,1.0396154524770933,1.0396154524770933,0.0,0,False
2022-07-04,1.0396154524770933,1.0396154524770933,0.0,0,False
2022-07-05,1.0396154524770933,1.0396154524770933,0.0,0,False
2022-07-06,1.0396154524770933,1.0396154524770933,0.0,0,False
2022-07-07,1.0396154524770933,1.0396154524770933,0.0,0,False
2022-07-08,1.0396154524770933,1.0396154524770933,0.0,0,False
2022-07-09,1.0396154524770933,1.0396154524770933,0.0,0,False
2022-07-10,1.0396154524770933,1.0396154524770933,0.0,0,False
2022-07-11,1.0396154524770933,1.0396154524770933,0.0,0,False
2022-07-12,1.0396154524770933,1.0396154524770933,0.0,0,False
2022-07-13,1.0396154524770933,1.0396154524770933,0.0,0,False
2022-07-14,1.0396154524770933,1.0396154524770933,0.0,0,False
2022-07-15,1.0396154524770933,1.0396154524770933,0.0,0,False
2022-07-16,1.0396154524770933,1.0396154524770933,0.0,0,False
2022-07-17,1.0396154524770933,1.0396154524770933,0.0,0,False
2022-07-18,1.0396154524770933,1.0396154524770933,0.0,0,False
2022-07-19,1.0396154524770933,1.0396154524770933,0.0,0,False
2022-07-20,1.0396154524770933,1.0396154524770933,0.0,0,False
2022-07-21,1.0396154524770933,1.0396154524770933,0.0,0,False
2022-07-22,1.0396154524770933,1.0396154524770933,0.0,0,False
2022-07-23,1.0396154524770933,1.0396154524770933,0.0,0,False
2022-07-24,1.0396154524770933,1.0396154524770933,0.0,0,False
2022-07-25,1.0396154524770933,1.0396154524770933,0.0,0,False
2022-07-26,1.0396154524770933,1.0396154524770933,0.0,0,False
2022-07-27,1.0396154524770933,1.0396154524770933,0.0,0,False
2022-07-28,1.0396154524770933,1.0396154524770933,0.0,0,False
2022-07-29,1.0396154524770933,1.0396154524770933,0.0,0,False
2022-07-30,1.0396154524770933,1.0396154524770933,0.0,0,False
2022-07-31,1.0396154524770933,1.0396154524770933,0.0,0,False
2022-08-01,1.0396154524770933,1.0396154524770933,0.0,0,False
2022-08-02,1.0396154524770933,1.0396154524770933,0.0,0,False
2022-08-03,1.0396154524770933,1.0396154524770933,0.0,0,False
2022-08-04,1.0396154524770933,1.0396154524770933,0.0,0,False
2022-08-05,1.0396154524770933,1.0396154524770933,0.0,0,False
2022-08-06,1.0396154524770933,1.0396154524770933,0.0,0,False
2022-08-07,1.0396154524770933,1.0396154524770933,0.0,0,False
2022-08-08,1.0396154524770933,1.0396154524770933,0.0,0,False
2022-08-09,1.0396154524770933,1.0396154524770933,0.0,0,False
2022-08-10,1.0396154524770933,1.0396154524770933,0.0,0,False
2022-08-11,1.0396154524770933,1.0396154524770933,0.0,0,False
2022-08-12,1.0396154524770933,1.0396154524770933,0.0,0,False
2022-08-13,1.0396154524770933,1.0396154524770933,0.0,0,False
2022-08-14,1.0396154524770933,1.0396154524770933,0.0,0,False
2022-08-15,1.0396154524770933,1.0396154524770933,0.0,0,False
2022-08-16,1.0396154524770933,1.0396154524770933,0.0,0,False
2022-08-17,1.0396154524770933,1.0396154524770933,0.0,0,False
2022-08-18,1.0396154524770933,1.0396154524770933,0.0,0,False
2022-08-19,1.0396154524770933,1.0396154524770933,0.0,0,False
2022-08-20,1.0396154524770933,1.0396154524770933,0.0,0,False
2022-08-21,1.0396154524770933,1.0396154524770933,0.0,0,False
2022-08-22,1.0396154524770933,1.0396154524770933,0.0,0,False
2022-08-23,1.0396154524770933,1.0396154524770933,0.0,0,False
2022-08-24,1.0396154524770933,1.0396154524770933,0.0,0,False
2022-08-25,1.0396154524770933,1.0396154524770933,0.0,0,False
2022-08-26,1.0396154524770933,1.0396154524770933,0.0,0,False
2022-08-27,1.0396154524770933,1.0396154524770933,0.0,0,False
2022-08-28,1.0396154524770933,1.0396154524770933,0.0,0,False
2022-08-29,1.0396154524770933,1.0396154524770933,0.0,0,False
2022-08-30,1.0396154524770933,1.0396154524770933,0.0,0,False
2022-08-31,1.0396154524770933,1.0396154524770933,0.0,0,False
2022-09-01,1.0396154524770933,1.0396154524770933,0.0,0,False
2022-09-02,1.0396154524770933,1.0396154524770933,0.0,0,False
2022-09-03,1.0396154524770933,1.0396154524770933,0.0,0,False
2022-09-04,1.0396154524770933,1.0396154524770933,0.0,0,False
2022-09-05,1.0396154524770933,1.0396154524770933,0.0,0,False
2022-09-06,1.0396154524770933,1.0396154524770933,0.0,0,False
2022-09-07,1.0396154524770933,1.0396154524770933,0.0,0,False
2022-09-08,1.0396154524770933,1.0396154524770933,0.0,0,False
2022-09-09,1.0396154524770933,1.0396154524770933,0.0,0,False
2022-09-10,1.0396154524770933,1.0396154524770933,0.0,0,False
2022-09-11,1.0396154524770933,1.0396154524770933,0.0,0,False
2022-09-12,1.0396154524770933,1.0396154524770933,0.0,0,False
2022-09-13,1.0396154524770933,1.0396154524770933,0.0,0,False
2022-09-14,1.0396154524770933,1.0396154524770933,0.0,0,False
2022-09-15,1.0396154524770933,1.0396154524770933,0.0,0,False
2022-09-16,1.0396154524770933,1.0396154524770933,0.0,0,False
2022-09-17,1.0396154524770933,1.0396154524770933,0.0,0,False
2022-09-18,1.0396154524770933,1.0396154524770933,0.0,0,False
2022-09-19,1.0396154524770933,1.0396154524770933,0.0,0,False
2022-09-20,1.0396154524770933,1.0396154524770933,0.0,0,False
2022-09-21,1.0396154524770933,1.0396154524770933,0.0,0,False
2022-09-22,1.0396154524770933,1.0396154524770933,0.0,0,False
2022-09-23,1.0396154524770933,1.0396154524770933,0.0,0,False
2022-09-24,1.0396154524770933,1.0396154524770933,0.0,0,False
2022-09-25,1.0396154524770933,1.0396154524770933,0.0,0,False
2022-09-26,1.0396154524770933,1.0396154524770933,0.0,0,False
2022-09-27,1.0396154524770933,1.0396154524770933,0.0,0,False
2022-09-28,1.0396154524770933,1.0396154524770933,0.0,0,False
2022-09-29,1.0396154524770933,1.0396154524770933,0.0,0,False
2022-09-30,1.0396154524770933,1.0396154524770933,0.0,0,False
2022-10-01,1.0396154524770933,1.0396154524770933,0.0,0,False
2022-10-02,1.0396154524770933,1.0396154524770933,0.0,0,False
2022-10-03,1.0396154524770933,1.0396154524770933,0.0,0,False
2022-10-04,1.0396154524770933,1.0396154524770933,0.0,0,False
2022-10-05,1.0396154524770933,1.0396154524770933,0.0,0,False
2022-10-06,1.0396154524770933,1.0396154524770933,0.0,0,False
2022-10-07,1.0396154524770933,1.0396154524770933,0.0,0,False
2022-10-08,1.0396154524770933,1.0396154524770933,0.0,0,False
2022-10-09,1.0396154524770933,1.0396154524770933,0.0,0,False
2022-10-10,1.0396154524770933,1.0396154524770933,0.0,0,False
2022-10-11,1.0396154524770933,1.0396154524770933,0.0,0,False
2022-10-12,1.0396154524770933,1.0396154524770933,0.0,0,False
2022-10-13,1.0396154524770933,1.0396154524770933,0.0,0,False
2022-10-14,1.0396154524770933,1.0396154524770933,0.0,0,False
2022-10-15,1.0396154524770933,1.0396154524770933,0.0,0,False
2022-10-16,1.0396154524770933,1.0396154524770933,0.0,0,False
2022-10-17,1.0396154524770933,1.0396154524770933,0.0,0,False
2022-10-18,1.0396154524770933,1.0396154524770933,0.0,0,False
2022-10-19,1.0396154524770933,1.0396154524770933,0.0,0,False
2022-10-20,1.0396154524770933,1.0396154524770933,0.0,0,False
2022-10-21,1.0396154524770933,1.0396154524770933,0.0,0,False
2022-10-22,1.0396154524770933,1.0396154524770933,0.0,0,False
2022-10-23,1.0396154524770933,1.0396154524770933,0.0,0,False
2022-10-24,1.0396154524770933,1.0396154524770933,0.0,0,False
2022-10-25,1.0396154524770933,1.0396154524770933,0.0,0,False
2022-10-26,1.0396154524770933,1.0396154524770933,0.0,0,False
2022-10-27,1.0396154524770933,1.0396154524770933,0.0,0,False
2022-10-28,1.0396154524770933,1.0396154524770933,0.0,0,False
2022-10-29,1.0396154524770933,1.0396154524770933,0.0,0,False
2022-10-30,1.0396154524770933,1.0396154524770933,0.0,0,False
2022-10-31,1.0396154524770933,1.0396154524770933,0.0,0,False
2022-11-01,1.0396154524770933,1.0396154524770933,0.0,0,False
2022-11-02,1.0396154524770933,1.0396154524770933,0.0,0,False
2022-11-03,1.0396154524770933,1.0396154524770933,0.0,0,False
2022-11-04,1.0396154524770933,1.0396154524770933,0.0,0,False
2022-11-05,1.0396154524770933,1.0396154524770933,0.0,0,False
2022-11-06,1.0396154524770933,1.0396154524770933,0.0,0,False
2022-11-07,1.0396154524770933,1.0396154524770933,0.0,0,False
2022-11-08,1.0396154524770933,1.0396154524770933,0.0,0,False
2022-11-09,1.0396154524770933,1.0396154524770933,0.0,0,False
2022-11-10,1.0396154524770933,1.0396154524770933,0.0,0,False
2022-11-11,1.0396154524770933,1.0396154524770933,0.0,0,False
2022-11-12,1.0396154524770933,1.0396154524770933,0.0,0,False
2022-11-13,1.0396154524770933,1.0396154524770933,0.0,0,False
2022-11-14,1.0396154524770933,1.0396154524770933,0.0,0,False
2022-11-15,1.0396154524770933,1.0396154524770933,0.0,0,False
2022-11-16,1.0396154524770933,1.0396154524770933,0.0,0,False
2022-11-17,1.0396154524770933,1.0396154524770933,0.0,0,False
2022-11-18,1.0396154524770933,1.0396154524770933,0.0,0,False
2022-11-19,1.0396154524770933,1.0396154524770933,0.0,0,False
2022-11-20,1.0396154524770933,1.0396154524770933,0.0,0,False
2022-11-21,1.0396154524770933,1.0396154524770933,0.0,0,False
2022-11-22,1.0396154524770933,1.0396154524770933,0.0,0,False
2022-11-23,1.0396154524770933,1.0396154524770933,0.0,0,False
2022-11-24,1.0396154524770933,1.0396154524770933,0.0,0,False
2022-11-25,1.0396154524770933,1.0396154524770933,0.0,0,False
2022-11-26,1.0396154524770933,1.0396154524770933,0.0,0,False
2022-11-27,1.0396154524770933,1.0396154524770933,0.0,0,False
2022-11-28,1.0396154524770933,1.0396154524770933,0.0,0,False
2022-11-29,1.0396154524770933,1.0396154524770933,0.0,0,False
2022-11-30,1.0396154524770933,1.0396154524770933,0.0,0,False
2022-12-01,1.0396154524770933,1.0396154524770933,0.0,0,False
2022-12-02,1.0396154524770933,1.0396154524770933,0.0,0,False
2022-12-03,1.0396154524770933,1.0396154524770933,0.0,0,False
2022-12-04,1.0396154524770933,1.0396154524770933,0.0,0,False
2022-12-05,1.0396154524770933,1.0396154524770933,0.0,0,False
2022-12-06,1.0396154524770933,1.0396154524770933,0.0,0,False
2022-12-07,1.0396154524770933,1.0396154524770933,0.0,0,False
2022-12-08,1.0396154524770933,1.0396154524770933,0.0,0,False
2022-12-09,1.0396154524770933,1.0396154524770933,0.0,0,False
2022-12-10,1.0396154524770933,1.0396154524770933,0.0,0,False
2022-12-11,1.0396154524770933,1.0396154524770933,0.0,0,False
2022-12-12,1.0396154524770933,1.0396154524770933,0.0,0,False
2022-12-13,1.0396154524770933,1.0396154524770933,0.0,0,False
2022-12-14,1.0396154524770933,1.0396154524770933,0.0,0,False
2022-12-15,1.0396154524770933,1.0396154524770933,0.0,0,False
2022-12-16,1.0396154524770933,1.0396154524770933,0.0,0,False
2022-12-17,1.0396154524770933,1.0396154524770933,0.0,0,False
2022-12-18,1.0396154524770933,1.0396154524770933,0.0,0,False
2022-12-19,1.0396154524770933,1.0396154524770933,0.0,0,False
2022-12-20,1.0396154524770933,1.0396154524770933,0.0,0,False
2022-12-21,1.0396154524770933,1.0396154524770933,0.0,0,False
2022-12-22,1.0396154524770933,1.0396154524770933,0.0,0,False
2022-12-23,1.0396154524770933,1.0396154524770933,0.0,0,False
2022-12-24,1.0396154524770933,1.0396154524770933,0.0,0,False
2022-12-25,1.0396154524770933,1.0396154524770933,0.0,0,False
2022-12-26,1.0396154524770933,1.0396154524770933,0.0,0,False
2022-12-27,1.0396154524770933,1.0396154524770933,0.0,0,False
2022-12-28,1.0396154524770933,1.0396154524770933,0.0,0,False
2022-12-29,1.0396154524770933,1.0396154524770933,0.0,0,False
2022-12-30,1.0396154524770933,1.0396154524770933,0.0,0,False
2022-12-31,1.0396154524770933,1.0396154524770933,0.0,0,False
2023-01-01,1.0396154524770933,1.0396154524770933,0.0,0,False
2023-01-02,1.0396154524770933,1.0396154524770933,0.0,0,False
2023-01-03,1.0396154524770933,1.0396154524770933,0.0,0,False
2023-01-04,1.0396154524770933,1.0396154524770933,0.0,0,False
2023-01-05,1.0396154524770933,1.0396154524770933,0.0,0,False
2023-01-06,1.0396154524770933,1.0396154524770933,0.0,0,False
2023-01-07,1.0396154524770933,1.0396154524770933,0.0,0,False
2023-01-08,1.0396154524770933,1.0396154524770933,0.0,0,False
2023-01-09,1.0396154524770933,1.0396154524770933,0.0,0,False
2023-01-10,1.0396154524770933,1.0396154524770933,0.0,0,False
2023-01-11,1.0396154524770933,1.0396154524770933,0.0,0,False
2023-01-12,1.0396154524770933,1.0396154524770933,0.0,0,False
2023-01-13,1.0396154524770933,1.0396154524770933,0.0,0,False
2023-01-14,1.0396154524770933,1.0396154524770933,0.0,0,False
2023-01-15,1.0396154524770933,1.0396154524770933,0.0,0,False
2023-01-16,1.0396154524770933,1.0396154524770933,0.0,0,False
2023-01-17,1.0396154524770933,1.0396154524770933,0.0,0,False
2023-01-18,1.0396154524770933,1.0396154524770933,0.0,0,False
2023-01-19,1.0396154524770933,1.0396154524770933,0.0,0,False
2023-01-20,1.0396154524770933,1.0396154524770933,0.0,0,False
2023-01-21,1.0396154524770933,1.0396154524770933,0.0,0,False
2023-01-22,1.0396154524770933,1.0396154524770933,0.0,0,False
2023-01-23,1.0396154524770933,1.0396154524770933,0.0,0,False
2023-01-24,1.0396154524770933,1.0396154524770933,0.0,0,False
2023-01-25,1.0396154524770933,1.0396154524770933,0.0,0,False
2023-01-26,1.0396154524770933,1.0396154524770933,0.0,0,False
2023-01-27,1.0396154524770933,1.0396154524770933,0.0,0,False
2023-01-28,1.0396154524770933,1.0396154524770933,0.0,0,False
2023-01-29,1.0396154524770933,1.0396154524770933,0.0,0,False
2023-01-30,1.0396154524770933,1.0396154524770933,0.0,0,False
2023-01-31,1.0396154524770933,1.0396154524770933,0.0,0,False
2023-02-01,1.0396154524770933,1.0396154524770933,0.0,0,False
2023-02-02,1.0396154524770933,1.0396154524770933,0.0,0,False
2023-02-03,1.0396154524770933,1.0396154524770933,0.0,0,False
2023-02-04,1.0396154524770933,1.0396154524770933,0.0,0,False
2023-02-05,1.0396154524770933,1.0396154524770933,0.0,0,False
2023-02-06,1.0396154524770933,1.0396154524770933,0.0,0,False
2023-02-07,1.0396154524770933,1.0396154524770933,0.0,0,False
2023-02-08,1.0396154524770933,1.0396154524770933,0.0,0,False
2023-02-09,1.0396154524770933,1.0396154524770933,0.0,0,False
2023-02-10,1.0396154524770933,1.0396154524770933,0.0,0,False
2023-02-11,1.0396154524770933,1.0396154524770933,0.0,0,False
2023-02-12,1.0396154524770933,1.0396154524770933,0.0,0,False
2023-02-13,1.0396154524770933,1.0396154524770933,0.0,0,False
2023-02-14,1.0396154524770933,1.0396154524770933,0.0,0,False
2023-02-15,1.0396154524770933,1.0396154524770933,0.0,0,False
2023-02-16,1.0396154524770933,1.0396154524770933,0.0,0,False
2023-02-17,1.0396154524770933,1.0396154524770933,0.0,0,False
2023-02-18,1.0396154524770933,1.0396154524770933,0.0,0,False
2023-02-19,1.0396154524770933,1.0396154524770933,0.0,0,False
2023-02-20,1.0396154524770933,1.0396154524770933,0.0,0,False
2023-02-21,1.0396154524770933,1.0396154524770933,0.0,0,False
2023-02-22,1.0396154524770933,1.0396154524770933,0.0,0,False
2023-02-23,1.0396154524770933,1.0396154524770933,0.0,0,False
2023-02-24,1.0396154524770933,1.0396154524770933,0.0,0,False
2023-02-25,1.0396154524770933,1.0396154524770933,0.0,0,False
2023-02-26,1.0396154524770933,1.0396154524770933,0.0,0,False
2023-02-27,1.0396154524770933,1.0396154524770933,0.0,0,False
2023-02-28,1.0396154524770933,1.0396154524770933,0.0,0,False
2023-03-01,1.0396154524770933,1.0396154524770933,0.0,0,False
2023-03-02,1.0396154524770933,1.0396154524770933,0.0,0,False
2023-03-03,1.0396154524770933,1.0396154524770933,0.0,0,False
2023-03-04,1.0396154524770933,1.0396154524770933,0.0,0,False
2023-03-05,1.0396154524770933,1.0396154524770933,0.0,0,False
2023-03-06,1.0396154524770933,1.0396154524770933,0.0,0,False
2023-03-07,1.0396154524770933,1.0396154524770933,0.0,0,False
2023-03-08,1.0396154524770933,1.0396154524770933,0.0,0,False
2023-03-09,1.0396154524770933,1.0396154524770933,0.0,0,False
2023-03-10,1.0396154524770933,1.0396154524770933,0.0,0,False
2023-03-11,1.0396154524770933,1.0396154524770933,0.0,0,False
2023-03-12,1.0396154524770933,1.0396154524770933,0.0,0,False
2023-03-13,1.0396154524770933,1.0396154524770933,0.0,0,False
2023-03-14,1.0396154524770933,1.0396154524770933,0.0,0,False
2023-03-15,1.0396154524770933,1.0396154524770933,0.0,0,False
2023-03-16,1.0396154524770933,1.0396154524770933,0.0,0,False
2023-03-17,1.0396154524770933,1.0396154524770933,0.0,0,False
2023-03-18,1.0396154524770933,1.0396154524770933,0.0,0,False
2023-03-19,1.0396154524770933,1.0396154524770933,0.0,0,False
2023-03-20,1.0396154524770933,1.0396154524770933,0.0,0,False
2023-03-21,1.0396154524770933,1.0396154524770933,0.0,0,False
2023-03-22,1.0396154524770933,1.0396154524770933,0.0,0,False
2023-03-23,1.0396154524770933,1.0396154524770933,0.0,0,False
2023-03-24,1.0396154524770933,1.0396154524770933,0.0,0,False
2023-03-25,1.0396154524770933,1.0396154524770933,0.0,0,False
2023-03-26,1.0396154524770933,1.0396154524770933,0.0,0,False
2023-03-27,1.0396154524770933,1.0396154524770933,0.0,0,False
2023-03-28,1.0396154524770933,1.0396154524770933,0.0,0,False
2023-03-29,1.0396154524770933,1.0396154524770933,0.0,0,False
2023-03-30,1.0396154524770933,1.0396154524770933,0.0,0,False
2023-03-31,1.0396154524770933,1.0396154524770933,0.0,0,False
2023-04-01,1.0396154524770933,1.0396154524770933,0.0,0,False
2023-04-02,1.0396154524770933,1.0396154524770933,0.0,0,False
2023-04-03,1.0396154524770933,1.0396154524770933,0.0,0,False
2023-04-04,1.0396154524770933,1.0396154524770933,0.0,0,False
2023-04-05,1.0396154524770933,1.0396154524770933,0.0,0,False
2023-04-06,1.0396154524770933,1.0396154524770933,0.0,0,False
2023-04-07,1.0396154524770933,1.0396154524770933,0.0,0,False
2023-04-08,1.0396154524770933,1.0396154524770933,0.0,0,False
2023-04-09,1.0396154524770933,1.0396154524770933,0.0,0,False
2023-04-10,1.0396154524770933,1.0396154524770933,0.0,0,False
2023-04-11,1.0396154524770933,1.0396154524770933,0.0,0,False
2023-04-12,1.0396154524770933,1.0396154524770933,0.0,0,False
2023-04-13,1.0396154524770933,1.0396154524770933,0.0,0,False
2023-04-14,1.0396154524770933,1.0396154524770933,0.0,0,False
2023-04-15,1.0396154524770933,1.0396154524770933,0.0,0,False
2023-04-16,1.0396154524770933,1.0396154524770933,0.0,0,False
2023-04-17,1.0396154524770933,1.0396154524770933,0.0,0,False
2023-04-18,1.0396154524770933,1.0396154524770933,0.0,0,False
2023-04-19,1.0396154524770933,1.0396154524770933,0.0,0,False
2023-04-20,1.0396154524770933,1.0396154524770933,0.0,0,False
2023-04-21,1.0396154524770933,1.0396154524770933,0.0,0,False
2023-04-22,1.0396154524770933,1.0396154524770933,0.0,0,False
2023-04-23,1.0396154524770933,1.0396154524770933,0.0,0,False
2023-04-24,1.0396154524770933,1.0396154524770933,0.0,0,False
2023-04-25,1.0396154524770933,1.0396154524770933,0.0,0,False
2023-04-26,1.0396154524770933,1.0396154524770933,0.0,0,False
2023-04-27,1.0396154524770933,1.0396154524770933,0.0,0,False
2023-04-28,1.0396154524770933,1.0396154524770933,0.0,0,False
2023-04-29,1.0396154524770933,1.0396154524770933,0.0,0,False
2023-04-30,1.0396154524770933,1.0396154524770933,0.0,0,False
2023-05-01,1.0396154524770933,1.0396154524770933,0.0,0,False
2023-05-02,1.0396154524770933,1.0396154524770933,0.0,0,False
2023-05-03,1.0396154524770933,1.0396154524770933,0.0,0,False
2023-05-04,1.0396154524770933,1.0396154524770933,0.0,0,False
2023-05-05,1.0396154524770933,1.0396154524770933,0.0,0,False
2023-05-06,1.0396154524770933,1.0396154524770933,0.0,0,False
2023-05-07,1.0396154524770933,1.0396154524770933,0.0,0,False
2023-05-08,1.0396154524770933,1.0396154524770933,0.0,0,False
2023-05-09,1.0396154524770933,1.0396154524770933,0.0,0,False
2023-05-10,1.0396154524770933,1.0396154524770933,0.0,0,False
2023-05-11,1.0396154524770933,1.0396154524770933,0.0,0,False
2023-05-12,1.0396154524770933,1.0396154524770933,0.0,0,False
2023-05-13,1.0396154524770933,1.0396154524770933,0.0,0,False
2023-05-14,1.0396154524770933,1.0396154524770933,0.0,0,False
2023-05-15,1.0396154524770933,1.0396154524770933,0.0,0,False
2023-05-16,1.0396154524770933,1.0396154524770933,0.0,0,False
2023-05-17,1.0396154524770933,1.0396154524770933,0.0,0,False
2023-05-18,1.0396154524770933,1.0396154524770933,0.0,0,False
2023-05-19,1.0396154524770933,1.0396154524770933,0.0,0,False
2023-05-20,1.0396154524770933,1.0396154524770933,0.0,0,False
2023-05-21,1.0396154524770933,1.0396154524770933,0.0,0,False
2023-05-22,1.0396154524770933,1.0396154524770933,0.0,0,False
2023-05-23,1.0396154524770933,1.0396154524770933,0.0,0,False
2023-05-24,1.0396154524770933,1.0396154524770933,0.0,0,False
2023-05-25,1.0396154524770933,1.0396154524770933,0.0,0,False
2023-05-26,1.0396154524770933,1.0396154524770933,0.0,0,False
2023-05-27,1.0396154524770933,1.0396154524770933,0.0,0,False
2023-05-28,1.0396154524770933,1.0396154524770933,0.0,0,False
2023-05-29,1.0396154524770933,1.0396154524770933,0.0,0,False
2023-05-30,1.0396154524770933,1.0396154524770933,0.0,0,False
2023-05-31,1.0396154524770933,1.0396154524770933,0.0,0,False
2023-06-01,1.0396154524770933,1.0396154524770933,0.0,0,False
2023-06-02,1.0396154524770933,1.0396154524770933,0.0,0,False
2023-06-03,1.0396154524770933,1.0396154524770933,0.0,0,False
2023-06-04,1.0396154524770933,1.0396154524770933,0.0,0,False
2023-06-05,1.0396154524770933,1.0396154524770933,0.0,0,False
2023-06-06,1.0396154524770933,1.0396154524770933,0.0,0,False
2023-06-07,1.0396154524770933,1.0396154524770933,0.0,0,False
2023-06-08,1.0396154524770933,1.0396154524770933,0.0,0,False
2023-06-09,1.0396154524770933,1.0396154524770933,0.0,0,False
2023-06-10,1.0396154524770933,1.0396154524770933,0.0,0,False
2023-06-11,1.0396154524770933,1.0396154524770933,0.0,0,False
2023-06-12,1.0396154524770933,1.0396154524770933,0.0,0,False
2023-06-13,1.0396154524770933,1.0396154524770933,0.0,0,False
2023-06-14,1.0396154524770933,1.0396154524770933,0.0,0,False
2023-06-15,1.0396154524770933,1.0396154524770933,0.0,0,False
2023-06-16,1.0396154524770933,1.0396154524770933,0.0,0,False
2023-06-17,1.0396154524770933,1.0396154524770933,0.0,0,False
2023-06-18,1.0396154524770933,1.0396154524770933,0.0,0,False
2023-06-19,1.0396154524770933,1.0396154524770933,0.0,0,False
2023-06-20,1.0396154524770933,1.0396154524770933,0.0,0,False
2023-06-21,1.0396154524770933,1.0396154524770933,0.0,0,False
2023-06-22,1.0396154524770933,1.0396154524770933,0.0,0,False
2023-06-23,1.0396154524770933,1.0396154524770933,0.0,0,False
2023-06-24,1.0396154524770933,1.0396154524770933,0.0,0,False
2023-06-25,1.0396154524770933,1.0396154524770933,0.0,0,False
2023-06-26,1.0396154524770933,1.0396154524770933,0.0,0,False
2023-06-27,1.0396154524770933,1.0396154524770933,0.0,0,False
2023-06-28,1.0396154524770933,1.0396154524770933,0.0,0,False
2023-06-29,1.0396154524770933,1.0396154524770933,0.0,0,False
2023-06-30,1.0396154524770933,1.0396154524770933,0.0,0,False
2023-07-01,1.0396154524770933,1.0396154524770933,0.0,0,False
2023-07-02,1.0396154524770933,1.0396154524770933,0.0,0,False
2023-07-03,1.0396154524770933,1.0396154524770933,0.0,0,False
2023-07-04,1.0396154524770933,1.0396154524770933,0.0,0,False
2023-07-05,1.0396154524770933,1.0396154524770933,0.0,0,False
2023-07-06,1.0396154524770933,1.0396154524770933,0.0,0,False
2023-07-07,1.0396154524770933,1.0396154524770933,0.0,0,False
2023-07-08,1.0396154524770933,1.0396154524770933,0.0,0,False
2023-07-09,1.0396154524770933,1.0396154524770933,0.0,0,False
2023-07-10,1.0396154524770933,1.0396154524770933,0.0,0,False
2023-07-11,1.0396154524770933,1.0396154524770933,0.0,0,False
2023-07-12,1.0396154524770933,1.0396154524770933,0.0,0,False
2023-07-13,1.0396154524770933,1.0396154524770933,0.0,0,False
2023-07-14,1.0396154524770933,1.0396154524770933,0.0,0,False
2023-07-15,1.0396154524770933,1.0396154524770933,0.0,0,False
2023-07-16,1.0396154524770933,1.0396154524770933,0.0,0,False
2023-07-17,1.0396154524770933,1.0396154524770933,0.0,0,False
2023-07-18,1.0396154524770933,1.0396154524770933,0.0,0,False
2023-07-19,1.0396154524770933,1.0396154524770933,0.0,0,False
2023-07-20,1.0396154524770933,1.0396154524770933,0.0,0,False
2023-07-21,1.0396154524770933,1.0396154524770933,0.0,0,False
2023-07-22,1.0396154524770933,1.0396154524770933,0.0,0,False
2023-07-23,1.0396154524770933,1.0396154524770933,0.0,0,False
2023-07-24,1.0396154524770933,1.0396154524770933,0.0,0,False
2023-07-25,1.0396154524770933,1.0396154524770933,0.0,0,False
2023-07-26,1.0396154524770933,1.0396154524770933,0.0,0,False
2023-07-27,1.0396154524770933,1.0396154524770933,0.0,0,False
2023-07-28,1.0396154524770933,1.0396154524770933,0.0,0,False
2023-07-29,1.0396154524770933,1.0396154524770933,0.0,0,False
2023-07-30,1.0396154524770933,1.0396154524770933,0.0,0,False
2023-07-31,1.0396154524770933,1.0396154524770933,0.0,0,False
2023-08-01,1.0396154524770933,1.0396154524770933,0.0,0,False
2023-08-02,1.0396154524770933,1.0396154524770933,0.0,0,False
2023-08-03,1.0396154524770933,1.0396154524770933,0.0,0,False
2023-08-04,1.0396154524770933,1.0396154524770933,0.0,0,False
2023-08-05,1.0396154524770933,1.0396154524770933,0.0,0,False
2023-08-06,1.0396154524770933,1.0396154524770933,0.0,0,False
2023-08-07,1.0396154524770933,1.0396154524770933,0.0,0,False
2023-08-08,1.0396154524770933,1.0396154524770933,0.0,0,False
2023-08-09,1.0396154524770933,1.0396154524770933,0.0,0,False
2023-08-10,1.0396154524770933,1.0396154524770933,0.0,0,False
2023-08-11,1.0396154524770933,1.0396154524770933,0.0,0,False
2023-08-12,1.0396154524770933,1.0396154524770933,0.0,0,False
2023-08-13,1.0396154524770933,1.0396154524770933,0.0,0,False
2023-08-14,1.0396154524770933,1.0396154524770933,0.0,0,False
2023-08-15,1.0396154524770933,1.0396154524770933,0.0,0,False
2023-08-16,1.0396154524770933,1.0396154524770933,0.0,0,False
2023-08-17,1.0396154524770933,1.0396154524770933,0.0,0,False
2023-08-18,1.0396154524770933,1.0396154524770933,0.0,0,False
2023-08-19,1.0396154524770933,1.0396154524770933,0.0,0,False
2023-08-20,1.0396154524770933,1.0396154524770933,0.0,0,False
2023-08-21,1.0396154524770933,1.0396154524770933,0.0,0,False
2023-08-22,1.0396154524770933,1.0396154524770933,0.0,0,False
2023-08-23,1.0396154524770933,1.0396154524770933,0.0,0,False
2023-08-24,1.0396154524770933,1.0396154524770933,0.0,0,False
2023-08-25,1.0396154524770933,1.0396154524770933,0.0,0,False
2023-08-26,1.0396154524770933,1.0396154524770933,0.0,0,False
2023-08-27,1.0396154524770933,1.0396154524770933,0.0,0,False
2023-08-28,1.0396154524770933,1.0396154524770933,0.0,0,False
2023-08-29,1.0396154524770933,1.0396154524770933,0.0,0,False
2023-08-30,1.0396154524770933,1.0396154524770933,0.0,0,False
2023-08-31,1.0396154524770933,1.0396154524770933,0.0,0,False
2023-09-01,1.0396154524770933,1.0396154524770933,0.0,0,False
2023-09-02,1.0396154524770933,1.0396154524770933,0.0,0,False
2023-09-03,1.0396154524770933,1.0396154524770933,0.0,0,False
2023-09-04,1.0396154524770933,1.0396154524770933,0.0,0,False
2023-09-05,1.0396154524770933,1.0396154524770933,0.0,0,False
2023-09-06,1.0396154524770933,1.0396154524770933,0.0,0,False
2023-09-07,1.0396154524770933,1.0396154524770933,0.0,0,False
2023-09-08,1.0396154524770933,1.0396154524770933,0.0,0,False
2023-09-09,1.0396154524770933,1.0396154524770933,0.0,0,False
2023-09-10,1.0396154524770933,1.0396154524770933,0.0,0,False
2023-09-11,1.0396154524770933,1.0396154524770933,0.0,0,False
2023-09-12,1.0396154524770933,1.0396154524770933,0.0,0,False
2023-09-13,1.0396154524770933,1.0396154524770933,0.0,0,False
2023-09-14,1.0396154524770933,1.0396154524770933,0.0,0,False
2023-09-15,1.0396154524770933,1.0396154524770933,0.0,0,False
2023-09-16,1.0396154524770933,1.0396154524770933,0.0,0,False
2023-09-17,1.0396154524770933,1.0396154524770933,0.0,0,False
2023-09-18,1.0396154524770933,1.0396154524770933,0.0,0,False
2023-09-19,1.0396154524770933,1.0396154524770933,0.0,0,False
2023-09-20,1.0396154524770933,1.0396154524770933,0.0,0,False
2023-09-21,1.0396154524770933,1.0396154524770933,0.0,0,False
2023-09-22,1.0396154524770933,1.0396154524770933,0.0,0,False
2023-09-23,1.0396154524770933,1.0396154524770933,0.0,0,False
2023-09-24,1.0396154524770933,1.0396154524770933,0.0,0,False
2023-09-25,1.0396154524770933,1.0396154524770933,0.0,0,False
2023-09-26,1.0396154524770933,1.0396154524770933,0.0,0,False
2023-09-27,1.0396154524770933,1.0396154524770933,0.0,0,False
2023-09-28,1.0396154524770933,1.0396154524770933,0.0,0,False
2023-09-29,1.0396154524770933,1.0396154524770933,0.0,0,False
2023-09-30,1.0396154524770933,1.0396154524770933,0.0,0,False
2023-10-01,1.0396154524770933,1.0396154524770933,0.0,0,False
2023-10-02,1.0396154524770933,1.0396154524770933,0.0,0,False
2023-10-03,1.0396154524770933,1.0396154524770933,0.0,0,False
2023-10-04,1.0396154524770933,1.0396154524770933,0.0,0,False
2023-10-05,1.0396154524770933,1.0396154524770933,0.0,0,False
2023-10-06,1.0396154524770933,1.0396154524770933,0.0,0,False
2023-10-07,1.0396154524770933,1.0396154524770933,0.0,0,False
2023-10-08,1.0396154524770933,1.0396154524770933,0.0,0,False
2023-10-09,1.0396154524770933,1.0396154524770933,0.0,0,False
2023-10-10,1.0396154524770933,1.0396154524770933,0.0,0,False
2023-10-11,1.0396154524770933,1.0396154524770933,0.0,0,False
2023-10-12,1.0396154524770933,1.0396154524770933,0.0,0,False
2023-10-13,1.0396154524770933,1.0396154524770933,0.0,0,False
2023-10-14,1.0396154524770933,1.0396154524770933,0.0,0,False
2023-10-15,1.0396154524770933,1.0396154524770933,0.0,0,False
2023-10-16,1.0396154524770933,1.0396154524770933,0.0,0,False
2023-10-17,1.0396154524770933,1.0396154524770933,0.0,0,False
2023-10-18,1.0396154524770933,1.0396154524770933,0.0,0,False
2023-10-19,1.0396154524770933,1.0396154524770933,0.0,0,False
2023-10-20,1.0396154524770933,1.0396154524770933,0.0,0,False
2023-10-21,1.0396154524770933,1.0396154524770933,0.0,0,False
2023-10-22,1.0396154524770933,1.0396154524770933,0.0,0,False
2023-10-23,1.0396154524770933,1.0396154524770933,0.0,0,False
2023-10-24,1.0396154524770933,1.0396154524770933,0.0,0,False
2023-10-25,1.0396154524770933,1.0396154524770933,0.0,0,False
2023-10-26,1.0396154524770933,1.0396154524770933,0.0,0,False
2023-10-27,1.0396154524770933,1.0396154524770933,0.0,0,False
2023-10-28,1.0396154524770933,1.0396154524770933,0.0,0,False
2023-10-29,1.0396154524770933,1.0396154524770933,0.0,0,False
2023-10-30,1.0396154524770933,1.0396154524770933,0.0,0,False
2023-10-31,1.0396154524770933,1.0396154524770933,0.0,0,False
2023-11-01,1.0396154524770933,1.0396154524770933,0.0,0,False
2023-11-02,1.0396154524770933,1.0396154524770933,0.0,0,False
2023-11-03,1.0396154524770933,1.0396154524770933,0.0,0,False
2023-11-04,1.0396154524770933,1.0396154524770933,0.0,0,False
2023-11-05,1.0396154524770933,1.0396154524770933,0.0,0,False
2023-11-06,1.0396154524770933,1.0396154524770933,0.0,0,False
2023-11-07,1.0396154524770933,1.0396154524770933,0.0,0,False
2023-11-08,1.0396154524770933,1.0396154524770933,0.0,0,False
2023-11-09,1.0396154524770933,1.0396154524770933,0.0,0,False
2023-11-10,1.0396154524770933,1.0396154524770933,0.0,0,False
2023-11-11,1.0396154524770933,1.0396154524770933,0.0,0,False
2023-11-12,1.0396154524770933,1.0396154524770933,0.0,0,False
2023-11-13,1.0396154524770933,1.0396154524770933,0.0,0,False
2023-11-14,1.0396154524770933,1.0396154524770933,0.0,0,False
2023-11-15,1.0396154524770933,1.0396154524770933,0.0,0,False
2023-11-16,1.0396154524770933,1.0396154524770933,0.0,0,False
2023-11-17,1.0396154524770933,1.0396154524770933,0.0,0,False
2023-11-18,1.0396154524770933,1.0396154524770933,0.0,0,False
2023-11-19,1.0396154524770933,1.0396154524770933,0.0,0,False
2023-11-20,1.0396154524770933,1.0396154524770933,0.0,0,False
2023-11-21,1.0396154524770933,1.0396154524770933,0.0,0,False
2023-11-22,1.0396154524770933,1.0396154524770933,0.0,0,False
2023-11-23,1.0396154524770933,1.0396154524770933,0.0,0,False
2023-11-24,1.0396154524770933,1.0396154524770933,0.0,0,False
2023-11-25,1.0396154524770933,1.0396154524770933,0.0,0,False
2023-11-26,1.0396154524770933,1.0396154524770933,0.0,0,False
2023-11-27,1.0396154524770933,1.0396154524770933,0.0,0,False
2023-11-28,1.0396154524770933,1.0396154524770933,0.0,0,False
2023-11-29,1.0396154524770933,1.0396154524770933,0.0,0,False
2023-11-30,1.0396154524770933,1.0396154524770933,0.0,0,False
2023-12-01,1.0396154524770933,1.0396154524770933,0.0,0,False
2023-12-02,1.0396154524770933,1.0396154524770933,0.0,0,False
2023-12-03,1.0396154524770933,1.0396154524770933,0.0,0,False
2023-12-04,1.0396154524770933,1.0396154524770933,0.0,0,False
2023-12-05,1.0396154524770933,1.0396154524770933,0.0,0,False
2023-12-06,1.0396154524770933,1.0396154524770933,0.0,0,False
2023-12-07,1.0396154524770933,1.0396154524770933,0.0,0,False
2023-12-08,1.0396154524770933,1.0396154524770933,0.0,0,False
2023-12-09,1.0396154524770933,1.0396154524770933,0.0,0,False
2023-12-10,1.0396154524770933,1.0396154524770933,0.0,0,False
2023-12-11,1.0396154524770933,1.0396154524770933,0.0,0,False
2023-12-12,1.0396154524770933,1.0396154524770933,0.0,0,False
2023-12-13,1.0396154524770933,1.0396154524770933,0.0,0,False
2023-12-14,1.0396154524770933,1.0396154524770933,0.0,0,False
2023-12-15,1.0396154524770933,1.0396154524770933,0.0,0,False
2023-12-16,1.0396154524770933,1.0396154524770933,0.0,0,False
2023-12-17,1.0396154524770933,1.0396154524770933,0.0,0,False
2023-12-18,1.0396154524770933,1.0396154524770933,0.0,0,False
2023-12-19,1.0396154524770933,1.0396154524770933,0.0,0,False
2023-12-20,1.0396154524770933,1.0396154524770933,0.0,0,False
2023-12-21,1.0396154524770933,1.0396154524770933,0.0,0,False
2023-12-22,1.0396154524770933,1.0396154524770933,0.0,0,False
2023-12-23,1.0396154524770933,1.0396154524770933,0.0,0,False
2023-12-24,1.0396154524770933,1.0396154524770933,0.0,0,False
2023-12-25,1.0396154524770933,1.0396154524770933,0.0,0,False
2023-12-26,1.0396154524770933,1.0396154524770933,0.0,0,False
2023-12-27,1.0396154524770933,1.0396154524770933,0.0,0,False
2023-12-28,1.0396154524770933,1.0396154524770933,0.0,0,False
2023-12-29,1.0396154524770933,1.0396154524770933,0.0,0,False
2023-12-30,1.0396154524770933,1.0396154524770933,0.0,0,False
2023-12-31,1.0396154524770933,1.0396154524770933,0.0,0,False
