day,start_equity,end_equity,return_pct,entries,active
2021-09-02,1.0,1.0,0.0,0,False
2021-09-03,1.0,1.0,0.0,0,False
2021-09-04,1.0,1.0,0.0,0,False
2021-09-05,1.0,1.0,0.0,0,False
2021-09-06,1.0,1.0,0.0,0,False
2021-09-07,1.0,1.0,0.0,0,False
2021-09-08,1.0,1.0,0.0,0,False
2021-09-09,1.0,1.0,0.0,0,False
2021-09-10,1.0,1.0,0.0,0,False
2021-09-11,1.0,1.0,0.0,0,False
2021-09-12,1.0,1.0,0.0,0,False
2021-09-13,1.0,1.0,0.0,0,False
2021-09-14,1.0,1.0,0.0,0,False
2021-09-15,1.0,1.0,0.0,0,False
2021-09-16,1.0,1.0,0.0,0,False
2021-09-17,1.0,1.0,0.0,0,False
2021-09-18,1.0,1.0,0.0,0,False
2021-09-19,1.0,1.0,0.0,0,False
2021-09-20,1.0,1.0,0.0,0,False
2021-09-21,1.0,1.0,0.0,0,False
2021-09-22,1.0,1.0,0.0,0,False
2021-09-23,1.0,1.0,0.0,0,False
2021-09-24,1.0,1.0,0.0,0,False
2021-09-25,1.0,1.0,0.0,0,False
2021-09-26,1.0,1.0,0.0,0,False
2021-09-27,1.0,1.0,0.0,0,False
2021-09-28,1.0,1.0,0.0,0,False
2021-09-29,1.0,1.0,0.0,0,False
2021-09-30,1.0,1.0,0.0,0,False
2021-10-01,1.0,1.0,0.0,0,False
2021-10-02,1.0,1.0,0.0,0,False
2021-10-03,1.0,1.0,0.0,0,False
2021-10-04,1.0,1.0,0.0,0,False
2021-10-05,1.0,0.9993927768733932,-0.06072231266067707,1,True
2021-10-06,0.9993927768733932,1.004893207070895,0.5503772215274427,3,True
2021-10-07,1.004893207070895,1.0012258543365358,-0.36494949996217496,2,True
2021-10-08,1.0012258543365358,1.000652489427439,-0.0572662907788013,1,True
2021-10-09,1.000652489427439,1.0014825122876898,0.0829481632255602,2,True
2021-10-10,1.0014825122876898,1.008270310112028,0.6777749727084892,1,True
2021-10-11,1.008270310112028,1.0050181286788025,-0.3225505502452264,0,True
2021-10-12,1.0050181286788025,1.0050181286788025,0.0,0,False
2021-10-13,1.0050181286788025,1.0216221290928473,1.6521095431256017,4,True
2021-10-14,1.0216221290928473,1.0371229109502156,1.5172715445320506,0,True
2021-10-15,1.0371229109502156,1.0417299839659937,0.44421668513301427,4,True
2021-10-16,1.0417299839659937,1.0385954117484542,-0.3009006427563743,2,True
2021-10-17,1.0385954117484542,1.0385540371629929,-0.003983705781218649,0,True
2021-10-18,1.0385540371629929,1.0371303720905978,-0.13708146340503102,1,True
2021-10-19,1.0371303720905978,1.0397863548408992,0.25608957386404896,0,True
2021-10-20,1.0397863548408992,1.0397863548408992,0.0,0,False
2021-10-21,1.0397863548408992,1.0397863548408992,0.0,0,False
2021-10-22,1.0397863548408992,1.0397863548408992,0.0,0,False
2021-10-23,1.0397863548408992,1.0397863548408992,0.0,0,False
2021-10-24,1.0397863548408992,1.0397863548408992,0.0,0,False
2021-10-25,1.0397863548408992,1.0526609100952804,1.2381923646566095,2,True
2021-10-26,1.0526609100952804,1.0535618580979336,0.08558767538653367,0,True
2021-10-27,1.0535618580979336,1.0475349056629604,-0.5720549190964541,7,True
2021-10-28,1.0475349056629604,1.0498739913038144,0.22329429102638798,2,True
2021-10-29,1.0498739913038144,1.0466471754145588,-0.3073526838443086,0,True
2021-10-30,1.0466471754145588,1.0468450969855387,0.01891005638090526,2,True
2021-10-31,1.0468450969855387,1.0399954981268607,-0.6543087299546002,1,True
2021-11-01,1.0399954981268607,1.0507742215893194,1.0364202039212955,2,True
2021-11-02,1.0507742215893194,1.0522491659029134,0.1403673865697952,1,True
2021-11-03,1.0522491659029134,1.0504273557903985,-0.17313485926612193,1,True
2021-11-04,1.0504273557903985,1.0687421548456535,1.7435569394014916,1,True
2021-11-05,1.0687421548456535,1.0558963623132758,-1.2019543230455731,3,True
2021-11-06,1.0558963623132758,1.045348390735541,-0.9989589844429547,2,True
2021-11-07,1.045348390735541,1.0458604843859016,0.048987845095394,0,True
2021-11-08,1.0458604843859016,1.0458604843859016,0.0,0,False
2021-11-09,1.0458604843859016,1.0458604843859016,0.0,0,False
2021-11-10,1.0458604843859016,1.0458604843859016,0.0,0,False
2021-11-11,1.0458604843859016,1.022441700902784,-2.2391880975279888,7,True
2021-11-12,1.022441700902784,1.0173379804398142,-0.4991698263542399,1,True
2021-11-13,1.0173379804398142,1.0158272771080807,-0.14849571733086542,1,True
2021-11-14,1.0158272771080807,1.0162496920590676,0.041583343990270194,0,True
2021-11-15,1.0162496920590676,1.0162496920590676,0.0,0,False
2021-11-16,1.0162496920590676,1.0272834534246633,1.0857333046999207,7,True
2021-11-17,1.0272834534246633,1.0130514050715227,-1.3854061705846799,0,True
2021-11-18,1.0130514050715227,1.0037681458907073,-0.916366053523221,4,True
2021-11-19,1.0037681458907073,1.0181511296190926,1.432899000358523,4,True
2021-11-20,1.0181511296190926,1.0188125648408255,0.06496434591005684,0,True
2021-11-21,1.0188125648408255,1.014885926570508,-0.38541321591680777,1,True
2021-11-22,1.014885926570508,0.9999671743462498,-1.4699930143549644,4,True
2021-11-23,0.9999671743462498,0.9971260083955985,-0.2841259216842529,0,True
2021-11-24,0.9971260083955985,0.9923914153003983,-0.47482394956464,2,True
2021-11-25,0.9923914153003983,1.0008792052178577,0.8552865116119523,5,True
2021-11-26,1.0008792052178577,0.9750241406505947,-2.5832352628042843,3,True
2021-11-27,0.9750241406505947,0.9750241406505947,0.0,0,False
2021-11-28,0.9750241406505947,0.9553900194598056,-2.0137061609252105,5,True
2021-11-29,0.9553900194598056,0.9559173575031126,0.0551961013372404,1,True
2021-11-30,0.9559173575031126,0.9509301691573836,-0.5217175215601944,3,True
2021-12-01,0.9509301691573836,0.9480489847205064,-0.30298591109274575,1,True
2021-12-02,0.9480489847205064,0.9467010354750853,-0.14218139222188508,5,True
2021-12-03,0.9467010354750853,0.9408561851303024,-0.6173913543730092,2,True
2021-12-04,0.9408561851303024,0.9207850190357493,-2.133287362273484,10,True
2021-12-05,0.9207850190357493,0.9159504338367586,-0.5250503753909341,3,True
2021-12-06,0.9159504338367586,0.9107776524605643,-0.5647446832386271,9,True
2021-12-07,0.9107776524605643,0.9107776524605643,0.0,0,False
2021-12-08,0.9107776524605643,0.9107776524605643,0.0,0,False
2021-12-09,0.9107776524605643,0.9107776524605643,0.0,0,False
2021-12-10,0.9107776524605643,0.9107776524605643,0.0,0,False
2021-12-11,0.9107776524605643,0.9107776524605643,0.0,0,False
2021-12-12,0.9107776524605643,0.9107776524605643,0.0,0,False
2021-12-13,0.9107776524605643,0.9107776524605643,0.0,0,False
2021-12-14,0.9107776524605643,0.9107776524605643,0.0,0,False
2021-12-15,0.9107776524605643,0.9107776524605643,0.0,0,False
2021-12-16,0.9107776524605643,0.9107776524605643,0.0,0,False
2021-12-17,0.9107776524605643,0.9107776524605643,0.0,0,False
2021-12-18,0.9107776524605643,0.9107776524605643,0.0,0,False
2021-12-19,0.9107776524605643,0.9107776524605643,0.0,0,False
2021-12-20,0.9107776524605643,0.9107776524605643,0.0,0,False
2021-12-21,0.9107776524605643,0.9107776524605643,0.0,0,False
2021-12-22,0.9107776524605643,0.9107776524605643,0.0,0,False
2021-12-23,0.9107776524605643,0.9107776524605643,0.0,0,False
2021-12-24,0.9107776524605643,0.9107776524605643,0.0,0,False
2021-12-25,0.9107776524605643,0.9107776524605643,0.0,0,False
2021-12-26,0.9107776524605643,0.9107776524605643,0.0,0,False
2021-12-27,0.9107776524605643,0.9107776524605643,0.0,0,False
2021-12-28,0.9107776524605643,0.9107776524605643,0.0,0,False
2021-12-29,0.9107776524605643,0.9107776524605643,0.0,0,False
2021-12-30,0.9107776524605643,0.9107776524605643,0.0,0,False
2021-12-31,0.9107776524605643,0.9107776524605643,0.0,0,False
2022-01-01,0.9107776524605643,0.9107776524605643,0.0,0,False
2022-01-02,0.9107776524605643,0.9107776524605643,0.0,0,False
2022-01-03,0.9107776524605643,0.9107776524605643,0.0,0,False
2022-01-04,0.9107776524605643,0.9107776524605643,0.0,0,False
2022-01-05,0.9107776524605643,0.9107776524605643,0.0,0,False
2022-01-06,0.9107776524605643,0.9107776524605643,0.0,0,False
2022-01-07,0.9107776524605643,0.9107776524605643,0.0,0,False
2022-01-08,0.9107776524605643,0.9107776524605643,0.0,0,False
2022-01-09,0.9107776524605643,0.9107776524605643,0.0,0,False
2022-01-10,0.9107776524605643,0.9107776524605643,0.0,0,False
2022-01-11,0.9107776524605643,0.9107776524605643,0.0,0,False
2022-01-12,0.9107776524605643,0.9107776524605643,0.0,0,False
2022-01-13,0.9107776524605643,0.9107776524605643,0.0,0,False
2022-01-14,0.9107776524605643,0.9107776524605643,0.0,0,False
2022-01-15,0.9107776524605643,0.9107776524605643,0.0,0,False
2022-01-16,0.9107776524605643,0.9107776524605643,0.0,0,False
2022-01-17,0.9107776524605643,0.9107776524605643,0.0,0,False
2022-01-18,0.9107776524605643,0.9107776524605643,0.0,0,False
2022-01-19,0.9107776524605643,0.9107776524605643,0.0,0,False
2022-01-20,0.9107776524605643,0.9107776524605643,0.0,0,False
2022-01-21,0.9107776524605643,0.9107776524605643,0.0,0,False
2022-01-22,0.9107776524605643,0.9107776524605643,0.0,0,False
2022-01-23,0.9107776524605643,0.9107776524605643,0.0,0,False
2022-01-24,0.9107776524605643,0.9107776524605643,0.0,0,False
2022-01-25,0.9107776524605643,0.9107776524605643,0.0,0,False
2022-01-26,0.9107776524605643,0.9107776524605643,0.0,0,False
2022-01-27,0.9107776524605643,0.9107776524605643,0.0,0,False
2022-01-28,0.9107776524605643,0.9107776524605643,0.0,0,False
2022-01-29,0.9107776524605643,0.9107776524605643,0.0,0,False
2022-01-30,0.9107776524605643,0.9107776524605643,0.0,0,False
2022-01-31,0.9107776524605643,0.9107776524605643,0.0,0,False
2022-02-01,0.9107776524605643,0.9107776524605643,0.0,0,False
2022-02-02,0.9107776524605643,0.9107776524605643,0.0,0,False
2022-02-03,0.9107776524605643,0.9107776524605643,0.0,0,False
2022-02-04,0.9107776524605643,0.9107776524605643,0.0,0,False
2022-02-05,0.9107776524605643,0.9107776524605643,0.0,0,False
2022-02-06,0.9107776524605643,0.9107776524605643,0.0,0,False
2022-02-07,0.9107776524605643,0.9107776524605643,0.0,0,False
2022-02-08,0.9107776524605643,0.9107776524605643,0.0,0,False
2022-02-09,0.9107776524605643,0.9107776524605643,0.0,0,False
2022-02-10,0.9107776524605643,0.9107776524605643,0.0,0,False
2022-02-11,0.9107776524605643,0.9107776524605643,0.0,0,False
2022-02-12,0.9107776524605643,0.9107776524605643,0.0,0,False
2022-02-13,0.9107776524605643,0.9107776524605643,0.0,0,False
2022-02-14,0.9107776524605643,0.9107776524605643,0.0,0,False
2022-02-15,0.9107776524605643,0.9107776524605643,0.0,0,False
2022-02-16,0.9107776524605643,0.9107776524605643,0.0,0,False
2022-02-17,0.9107776524605643,0.9107776524605643,0.0,0,False
2022-02-18,0.9107776524605643,0.9107776524605643,0.0,0,False
2022-02-19,0.9107776524605643,0.9107776524605643,0.0,0,False
2022-02-20,0.9107776524605643,0.9107776524605643,0.0,0,False
2022-02-21,0.9107776524605643,0.9107776524605643,0.0,0,False
2022-02-22,0.9107776524605643,0.9107776524605643,0.0,0,False
2022-02-23,0.9107776524605643,0.9107776524605643,0.0,0,False
2022-02-24,0.9107776524605643,0.9107776524605643,0.0,0,False
2022-02-25,0.9107776524605643,0.9107776524605643,0.0,0,False
2022-02-26,0.9107776524605643,0.9107776524605643,0.0,0,False
2022-02-27,0.9107776524605643,0.9107776524605643,0.0,0,False
2022-02-28,0.9107776524605643,0.9107776524605643,0.0,0,False
2022-03-01,0.9107776524605643,0.9107776524605643,0.0,0,False
2022-03-02,0.9107776524605643,0.9107776524605643,0.0,0,False
2022-03-03,0.9107776524605643,0.9107776524605643,0.0,0,False
2022-03-04,0.9107776524605643,0.9107776524605643,0.0,0,False
2022-03-05,0.9107776524605643,0.9107776524605643,0.0,0,False
2022-03-06,0.9107776524605643,0.9107776524605643,0.0,0,False
2022-03-07,0.9107776524605643,0.9107776524605643,0.0,0,False
2022-03-08,0.9107776524605643,0.9107776524605643,0.0,0,False
2022-03-09,0.9107776524605643,0.9107776524605643,0.0,0,False
2022-03-10,0.9107776524605643,0.9107776524605643,0.0,0,False
2022-03-11,0.9107776524605643,0.9107776524605643,0.0,0,False
2022-03-12,0.9107776524605643,0.9107776524605643,0.0,0,False
2022-03-13,0.9107776524605643,0.9107776524605643,0.0,0,False
2022-03-14,0.9107776524605643,0.9107776524605643,0.0,0,False
2022-03-15,0.9107776524605643,0.9107776524605643,0.0,0,False
2022-03-16,0.9107776524605643,0.9107776524605643,0.0,0,False
2022-03-17,0.9107776524605643,0.9107776524605643,0.0,0,False
2022-03-18,0.9107776524605643,0.9107776524605643,0.0,0,False
2022-03-19,0.9107776524605643,0.9107776524605643,0.0,0,False
2022-03-20,0.9107776524605643,0.9107776524605643,0.0,0,False
2022-03-21,0.9107776524605643,0.9107776524605643,0.0,0,False
2022-03-22,0.9107776524605643,0.9107776524605643,0.0,0,False
2022-03-23,0.9107776524605643,0.9107776524605643,0.0,0,False
2022-03-24,0.9107776524605643,0.9107776524605643,0.0,0,False
2022-03-25,0.9107776524605643,0.9107776524605643,0.0,0,False
2022-03-26,0.9107776524605643,0.9107776524605643,0.0,0,False
2022-03-27,0.9107776524605643,0.9107776524605643,0.0,0,False
2022-03-28,0.9107776524605643,0.9107776524605643,0.0,0,False
2022-03-29,0.9107776524605643,0.9107776524605643,0.0,0,False
2022-03-30,0.9107776524605643,0.9107776524605643,0.0,0,False
2022-03-31,0.9107776524605643,0.9107776524605643,0.0,0,False
2022-04-01,0.9107776524605643,0.9107776524605643,0.0,0,False
2022-04-02,0.9107776524605643,0.9107776524605643,0.0,0,False
2022-04-03,0.9107776524605643,0.9107776524605643,0.0,0,False
2022-04-04,0.9107776524605643,0.9107776524605643,0.0,0,False
2022-04-05,0.9107776524605643,0.9107776524605643,0.0,0,False
2022-04-06,0.9107776524605643,0.9107776524605643,0.0,0,False
2022-04-07,0.9107776524605643,0.9107776524605643,0.0,0,False
2022-04-08,0.9107776524605643,0.9107776524605643,0.0,0,False
2022-04-09,0.9107776524605643,0.9107776524605643,0.0,0,False
2022-04-10,0.9107776524605643,0.9107776524605643,0.0,0,False
2022-04-11,0.9107776524605643,0.9107776524605643,0.0,0,False
2022-04-12,0.9107776524605643,0.9107776524605643,0.0,0,False
2022-04-13,0.9107776524605643,0.9107776524605643,0.0,0,False
2022-04-14,0.9107776524605643,0.9107776524605643,0.0,0,False
2022-04-15,0.9107776524605643,0.9107776524605643,0.0,0,False
2022-04-16,0.9107776524605643,0.9107776524605643,0.0,0,False
2022-04-17,0.9107776524605643,0.9107776524605643,0.0,0,False
2022-04-18,0.9107776524605643,0.9107776524605643,0.0,0,False
2022-04-19,0.9107776524605643,0.9107776524605643,0.0,0,False
2022-04-20,0.9107776524605643,0.9107776524605643,0.0,0,False
2022-04-21,0.9107776524605643,0.9107776524605643,0.0,0,False
2022-04-22,0.9107776524605643,0.9107776524605643,0.0,0,False
2022-04-23,0.9107776524605643,0.9107776524605643,0.0,0,False
2022-04-24,0.9107776524605643,0.9107776524605643,0.0,0,False
2022-04-25,0.9107776524605643,0.9107776524605643,0.0,0,False
2022-04-26,0.9107776524605643,0.9107776524605643,0.0,0,False
2022-04-27,0.9107776524605643,0.9107776524605643,0.0,0,False
2022-04-28,0.9107776524605643,0.9107776524605643,0.0,0,False
2022-04-29,0.9107776524605643,0.9107776524605643,0.0,0,False
2022-04-30,0.9107776524605643,0.9107776524605643,0.0,0,False
2022-05-01,0.9107776524605643,0.9107776524605643,0.0,0,False
2022-05-02,0.9107776524605643,0.9107776524605643,0.0,0,False
2022-05-03,0.9107776524605643,0.9107776524605643,0.0,0,False
2022-05-04,0.9107776524605643,0.9107776524605643,0.0,0,False
2022-05-05,0.9107776524605643,0.9107776524605643,0.0,0,False
2022-05-06,0.9107776524605643,0.9107776524605643,0.0,0,False
2022-05-07,0.9107776524605643,0.9107776524605643,0.0,0,False
2022-05-08,0.9107776524605643,0.9107776524605643,0.0,0,False
2022-05-09,0.9107776524605643,0.9107776524605643,0.0,0,False
2022-05-10,0.9107776524605643,0.9107776524605643,0.0,0,False
2022-05-11,0.9107776524605643,0.9107776524605643,0.0,0,False
2022-05-12,0.9107776524605643,0.9107776524605643,0.0,0,False
2022-05-13,0.9107776524605643,0.9107776524605643,0.0,0,False
2022-05-14,0.9107776524605643,0.9107776524605643,0.0,0,False
2022-05-15,0.9107776524605643,0.9107776524605643,0.0,0,False
2022-05-16,0.9107776524605643,0.9107776524605643,0.0,0,False
2022-05-17,0.9107776524605643,0.9107776524605643,0.0,0,False
2022-05-18,0.9107776524605643,0.9107776524605643,0.0,0,False
2022-05-19,0.9107776524605643,0.9107776524605643,0.0,0,False
2022-05-20,0.9107776524605643,0.9107776524605643,0.0,0,False
2022-05-21,0.9107776524605643,0.9107776524605643,0.0,0,False
2022-05-22,0.9107776524605643,0.9107776524605643,0.0,0,False
2022-05-23,0.9107776524605643,0.9107776524605643,0.0,0,False
2022-05-24,0.9107776524605643,0.9107776524605643,0.0,0,False
2022-05-25,0.9107776524605643,0.9107776524605643,0.0,0,False
2022-05-26,0.9107776524605643,0.9107776524605643,0.0,0,False
2022-05-27,0.9107776524605643,0.9107776524605643,0.0,0,False
2022-05-28,0.9107776524605643,0.9107776524605643,0.0,0,False
2022-05-29,0.9107776524605643,0.9107776524605643,0.0,0,False
2022-05-30,0.9107776524605643,0.9107776524605643,0.0,0,False
2022-05-31,0.9107776524605643,0.9107776524605643,0.0,0,False
2022-06-01,0.9107776524605643,0.9107776524605643,0.0,0,False
2022-06-02,0.9107776524605643,0.9107776524605643,0.0,0,False
2022-06-03,0.9107776524605643,0.9107776524605643,0.0,0,False
2022-06-04,0.9107776524605643,0.9107776524605643,0.0,0,False
2022-06-05,0.9107776524605643,0.9107776524605643,0.0,0,False
2022-06-06,0.9107776524605643,0.9107776524605643,0.0,0,False
2022-06-07,0.9107776524605643,0.9107776524605643,0.0,0,False
2022-06-08,0.9107776524605643,0.9107776524605643,0.0,0,False
2022-06-09,0.9107776524605643,0.9107776524605643,0.0,0,False
2022-06-10,0.9107776524605643,0.9107776524605643,0.0,0,False
2022-06-11,0.9107776524605643,0.9107776524605643,0.0,0,False
2022-06-12,0.9107776524605643,0.9107776524605643,0.0,0,False
2022-06-13,0.9107776524605643,0.9107776524605643,0.0,0,False
2022-06-14,0.9107776524605643,0.9107776524605643,0.0,0,False
2022-06-15,0.9107776524605643,0.9107776524605643,0.0,0,False
2022-06-16,0.9107776524605643,0.9107776524605643,0.0,0,False
2022-06-17,0.9107776524605643,0.9107776524605643,0.0,0,False
2022-06-18,0.9107776524605643,0.9107776524605643,0.0,0,False
2022-06-19,0.9107776524605643,0.9107776524605643,0.0,0,False
2022-06-20,0.9107776524605643,0.9107776524605643,0.0,0,False
2022-06-21,0.9107776524605643,0.9107776524605643,0.0,0,False
2022-06-22,0.9107776524605643,0.9107776524605643,0.0,0,False
2022-06-23,0.9107776524605643,0.9107776524605643,0.0,0,False
2022-06-24,0.9107776524605643,0.9107776524605643,0.0,0,False
2022-06-25,0.9107776524605643,0.9107776524605643,0.0,0,False
2022-06-26,0.9107776524605643,0.9107776524605643,0.0,0,False
2022-06-27,0.9107776524605643,0.9107776524605643,0.0,0,False
2022-06-28,0.9107776524605643,0.9107776524605643,0.0,0,False
2022-06-29,0.9107776524605643,0.9107776524605643,0.0,0,False
2022-06-30,0.9107776524605643,0.9107776524605643,0.0,0,False
2022-07-01,0.9107776524605643,0.9107776524605643,0.0,0,False
2022-07-02,0.9107776524605643,0.9107776524605643,0.0,0,False
2022-07-03,0.9107776524605643,0.9107776524605643,0.0,0,False
2022-07-04,0.9107776524605643,0.9107776524605643,0.0,0,False
2022-07-05,0.9107776524605643,0.9107776524605643,0.0,0,False
2022-07-06,0.9107776524605643,0.9107776524605643,0.0,0,False
2022-07-07,0.9107776524605643,0.9107776524605643,0.0,0,False
2022-07-08,0.9107776524605643,0.9107776524605643,0.0,0,False
2022-07-09,0.9107776524605643,0.9107776524605643,0.0,0,False
2022-07-10,0.9107776524605643,0.9107776524605643,0.0,0,False
2022-07-11,0.9107776524605643,0.9107776524605643,0.0,0,False
2022-07-12,0.9107776524605643,0.9107776524605643,0.0,0,False
2022-07-13,0.9107776524605643,0.9107776524605643,0.0,0,False
2022-07-14,0.9107776524605643,0.9107776524605643,0.0,0,False
2022-07-15,0.9107776524605643,0.9107776524605643,0.0,0,False
2022-07-16,0.9107776524605643,0.9107776524605643,0.0,0,False
2022-07-17,0.9107776524605643,0.9107776524605643,0.0,0,False
2022-07-18,0.9107776524605643,0.9107776524605643,0.0,0,False
2022-07-19,0.9107776524605643,0.9107776524605643,0.0,0,False
2022-07-20,0.9107776524605643,0.9107776524605643,0.0,0,False
2022-07-21,0.9107776524605643,0.9107776524605643,0.0,0,False
2022-07-22,0.9107776524605643,0.9107776524605643,0.0,0,False
2022-07-23,0.9107776524605643,0.9107776524605643,0.0,0,False
2022-07-24,0.9107776524605643,0.9107776524605643,0.0,0,False
2022-07-25,0.9107776524605643,0.9107776524605643,0.0,0,False
2022-07-26,0.9107776524605643,0.9107776524605643,0.0,0,False
2022-07-27,0.9107776524605643,0.9107776524605643,0.0,0,False
2022-07-28,0.9107776524605643,0.9107776524605643,0.0,0,False
2022-07-29,0.9107776524605643,0.9107776524605643,0.0,0,False
2022-07-30,0.9107776524605643,0.9107776524605643,0.0,0,False
2022-07-31,0.9107776524605643,0.9107776524605643,0.0,0,False
2022-08-01,0.9107776524605643,0.9107776524605643,0.0,0,False
2022-08-02,0.9107776524605643,0.9107776524605643,0.0,0,False
2022-08-03,0.9107776524605643,0.9107776524605643,0.0,0,False
2022-08-04,0.9107776524605643,0.9107776524605643,0.0,0,False
2022-08-05,0.9107776524605643,0.9107776524605643,0.0,0,False
2022-08-06,0.9107776524605643,0.9107776524605643,0.0,0,False
2022-08-07,0.9107776524605643,0.9107776524605643,0.0,0,False
2022-08-08,0.9107776524605643,0.9107776524605643,0.0,0,False
2022-08-09,0.9107776524605643,0.9107776524605643,0.0,0,False
2022-08-10,0.9107776524605643,0.9107776524605643,0.0,0,False
2022-08-11,0.9107776524605643,0.9107776524605643,0.0,0,False
2022-08-12,0.9107776524605643,0.9107776524605643,0.0,0,False
2022-08-13,0.9107776524605643,0.9107776524605643,0.0,0,False
2022-08-14,0.9107776524605643,0.9107776524605643,0.0,0,False
2022-08-15,0.9107776524605643,0.9107776524605643,0.0,0,False
2022-08-16,0.9107776524605643,0.9107776524605643,0.0,0,False
2022-08-17,0.9107776524605643,0.9107776524605643,0.0,0,False
2022-08-18,0.9107776524605643,0.9107776524605643,0.0,0,False
2022-08-19,0.9107776524605643,0.9107776524605643,0.0,0,False
2022-08-20,0.9107776524605643,0.9107776524605643,0.0,0,False
2022-08-21,0.9107776524605643,0.9107776524605643,0.0,0,False
2022-08-22,0.9107776524605643,0.9107776524605643,0.0,0,False
2022-08-23,0.9107776524605643,0.9107776524605643,0.0,0,False
2022-08-24,0.9107776524605643,0.9107776524605643,0.0,0,False
2022-08-25,0.9107776524605643,0.9107776524605643,0.0,0,False
2022-08-26,0.9107776524605643,0.9107776524605643,0.0,0,False
2022-08-27,0.9107776524605643,0.9107776524605643,0.0,0,False
2022-08-28,0.9107776524605643,0.9107776524605643,0.0,0,False
2022-08-29,0.9107776524605643,0.9107776524605643,0.0,0,False
2022-08-30,0.9107776524605643,0.9107776524605643,0.0,0,False
2022-08-31,0.9107776524605643,0.9107776524605643,0.0,0,False
2022-09-01,0.9107776524605643,0.9107776524605643,0.0,0,False
2022-09-02,0.9107776524605643,0.9107776524605643,0.0,0,False
2022-09-03,0.9107776524605643,0.9107776524605643,0.0,0,False
2022-09-04,0.9107776524605643,0.9107776524605643,0.0,0,False
2022-09-05,0.9107776524605643,0.9107776524605643,0.0,0,False
2022-09-06,0.9107776524605643,0.9107776524605643,0.0,0,False
2022-09-07,0.9107776524605643,0.9107776524605643,0.0,0,False
2022-09-08,0.9107776524605643,0.9107776524605643,0.0,0,False
2022-09-09,0.9107776524605643,0.9107776524605643,0.0,0,False
2022-09-10,0.9107776524605643,0.9107776524605643,0.0,0,False
2022-09-11,0.9107776524605643,0.9107776524605643,0.0,0,False
2022-09-12,0.9107776524605643,0.9107776524605643,0.0,0,False
2022-09-13,0.9107776524605643,0.9107776524605643,0.0,0,False
2022-09-14,0.9107776524605643,0.9107776524605643,0.0,0,False
2022-09-15,0.9107776524605643,0.9107776524605643,0.0,0,False
2022-09-16,0.9107776524605643,0.9107776524605643,0.0,0,False
2022-09-17,0.9107776524605643,0.9107776524605643,0.0,0,False
2022-09-18,0.9107776524605643,0.9107776524605643,0.0,0,False
2022-09-19,0.9107776524605643,0.9107776524605643,0.0,0,False
2022-09-20,0.9107776524605643,0.9107776524605643,0.0,0,False
2022-09-21,0.9107776524605643,0.9107776524605643,0.0,0,False
2022-09-22,0.9107776524605643,0.9107776524605643,0.0,0,False
2022-09-23,0.9107776524605643,0.9107776524605643,0.0,0,False
2022-09-24,0.9107776524605643,0.9107776524605643,0.0,0,False
2022-09-25,0.9107776524605643,0.9107776524605643,0.0,0,False
2022-09-26,0.9107776524605643,0.9107776524605643,0.0,0,False
2022-09-27,0.9107776524605643,0.9107776524605643,0.0,0,False
2022-09-28,0.9107776524605643,0.9107776524605643,0.0,0,False
2022-09-29,0.9107776524605643,0.9107776524605643,0.0,0,False
2022-09-30,0.9107776524605643,0.9107776524605643,0.0,0,False
2022-10-01,0.9107776524605643,0.9107776524605643,0.0,0,False
2022-10-02,0.9107776524605643,0.9107776524605643,0.0,0,False
2022-10-03,0.9107776524605643,0.9107776524605643,0.0,0,False
2022-10-04,0.9107776524605643,0.9107776524605643,0.0,0,False
2022-10-05,0.9107776524605643,0.9107776524605643,0.0,0,False
2022-10-06,0.9107776524605643,0.9107776524605643,0.0,0,False
2022-10-07,0.9107776524605643,0.9107776524605643,0.0,0,False
2022-10-08,0.9107776524605643,0.9107776524605643,0.0,0,False
2022-10-09,0.9107776524605643,0.9107776524605643,0.0,0,False
2022-10-10,0.9107776524605643,0.9107776524605643,0.0,0,False
2022-10-11,0.9107776524605643,0.9107776524605643,0.0,0,False
2022-10-12,0.9107776524605643,0.9107776524605643,0.0,0,False
2022-10-13,0.9107776524605643,0.9107776524605643,0.0,0,False
2022-10-14,0.9107776524605643,0.9107776524605643,0.0,0,False
2022-10-15,0.9107776524605643,0.9107776524605643,0.0,0,False
2022-10-16,0.9107776524605643,0.9107776524605643,0.0,0,False
2022-10-17,0.9107776524605643,0.9107776524605643,0.0,0,False
2022-10-18,0.9107776524605643,0.9107776524605643,0.0,0,False
2022-10-19,0.9107776524605643,0.9107776524605643,0.0,0,False
2022-10-20,0.9107776524605643,0.9107776524605643,0.0,0,False
2022-10-21,0.9107776524605643,0.9107776524605643,0.0,0,False
2022-10-22,0.9107776524605643,0.9107776524605643,0.0,0,False
2022-10-23,0.9107776524605643,0.9107776524605643,0.0,0,False
2022-10-24,0.9107776524605643,0.9107776524605643,0.0,0,False
2022-10-25,0.9107776524605643,0.9107776524605643,0.0,0,False
2022-10-26,0.9107776524605643,0.9107776524605643,0.0,0,False
2022-10-27,0.9107776524605643,0.9107776524605643,0.0,0,False
2022-10-28,0.9107776524605643,0.9107776524605643,0.0,0,False
2022-10-29,0.9107776524605643,0.9107776524605643,0.0,0,False
2022-10-30,0.9107776524605643,0.9107776524605643,0.0,0,False
2022-10-31,0.9107776524605643,0.9107776524605643,0.0,0,False
2022-11-01,0.9107776524605643,0.9107776524605643,0.0,0,False
2022-11-02,0.9107776524605643,0.9107776524605643,0.0,0,False
2022-11-03,0.9107776524605643,0.9107776524605643,0.0,0,False
2022-11-04,0.9107776524605643,0.9107776524605643,0.0,0,False
2022-11-05,0.9107776524605643,0.9107776524605643,0.0,0,False
2022-11-06,0.9107776524605643,0.9107776524605643,0.0,0,False
2022-11-07,0.9107776524605643,0.9107776524605643,0.0,0,False
2022-11-08,0.9107776524605643,0.9107776524605643,0.0,0,False
2022-11-09,0.9107776524605643,0.9107776524605643,0.0,0,False
2022-11-10,0.9107776524605643,0.9107776524605643,0.0,0,False
2022-11-11,0.9107776524605643,0.9107776524605643,0.0,0,False
2022-11-12,0.9107776524605643,0.9107776524605643,0.0,0,False
2022-11-13,0.9107776524605643,0.9107776524605643,0.0,0,False
2022-11-14,0.9107776524605643,0.9107776524605643,0.0,0,False
2022-11-15,0.9107776524605643,0.9107776524605643,0.0,0,False
2022-11-16,0.9107776524605643,0.9107776524605643,0.0,0,False
2022-11-17,0.9107776524605643,0.9107776524605643,0.0,0,False
2022-11-18,0.9107776524605643,0.9107776524605643,0.0,0,False
2022-11-19,0.9107776524605643,0.9107776524605643,0.0,0,False
2022-11-20,0.9107776524605643,0.9107776524605643,0.0,0,False
2022-11-21,0.9107776524605643,0.9107776524605643,0.0,0,False
2022-11-22,0.9107776524605643,0.9107776524605643,0.0,0,False
2022-11-23,0.9107776524605643,0.9107776524605643,0.0,0,False
2022-11-24,0.9107776524605643,0.9107776524605643,0.0,0,False
2022-11-25,0.9107776524605643,0.9107776524605643,0.0,0,False
2022-11-26,0.9107776524605643,0.9107776524605643,0.0,0,False
2022-11-27,0.9107776524605643,0.9107776524605643,0.0,0,False
2022-11-28,0.9107776524605643,0.9107776524605643,0.0,0,False
2022-11-29,0.9107776524605643,0.9107776524605643,0.0,0,False
2022-11-30,0.9107776524605643,0.9107776524605643,0.0,0,False
2022-12-01,0.9107776524605643,0.9107776524605643,0.0,0,False
2022-12-02,0.9107776524605643,0.9107776524605643,0.0,0,False
2022-12-03,0.9107776524605643,0.9107776524605643,0.0,0,False
2022-12-04,0.9107776524605643,0.9107776524605643,0.0,0,False
2022-12-05,0.9107776524605643,0.9107776524605643,0.0,0,False
2022-12-06,0.9107776524605643,0.9107776524605643,0.0,0,False
2022-12-07,0.9107776524605643,0.9107776524605643,0.0,0,False
2022-12-08,0.9107776524605643,0.9107776524605643,0.0,0,False
2022-12-09,0.9107776524605643,0.9107776524605643,0.0,0,False
2022-12-10,0.9107776524605643,0.9107776524605643,0.0,0,False
2022-12-11,0.9107776524605643,0.9107776524605643,0.0,0,False
2022-12-12,0.9107776524605643,0.9107776524605643,0.0,0,False
2022-12-13,0.9107776524605643,0.9107776524605643,0.0,0,False
2022-12-14,0.9107776524605643,0.9107776524605643,0.0,0,False
2022-12-15,0.9107776524605643,0.9107776524605643,0.0,0,False
2022-12-16,0.9107776524605643,0.9107776524605643,0.0,0,False
2022-12-17,0.9107776524605643,0.9107776524605643,0.0,0,False
2022-12-18,0.9107776524605643,0.9107776524605643,0.0,0,False
2022-12-19,0.9107776524605643,0.9107776524605643,0.0,0,False
2022-12-20,0.9107776524605643,0.9107776524605643,0.0,0,False
2022-12-21,0.9107776524605643,0.9107776524605643,0.0,0,False
2022-12-22,0.9107776524605643,0.9107776524605643,0.0,0,False
2022-12-23,0.9107776524605643,0.9107776524605643,0.0,0,False
2022-12-24,0.9107776524605643,0.9107776524605643,0.0,0,False
2022-12-25,0.9107776524605643,0.9107776524605643,0.0,0,False
2022-12-26,0.9107776524605643,0.9107776524605643,0.0,0,False
2022-12-27,0.9107776524605643,0.9107776524605643,0.0,0,False
2022-12-28,0.9107776524605643,0.9107776524605643,0.0,0,False
2022-12-29,0.9107776524605643,0.9107776524605643,0.0,0,False
2022-12-30,0.9107776524605643,0.9107776524605643,0.0,0,False
2022-12-31,0.9107776524605643,0.9107776524605643,0.0,0,False
2023-01-01,0.9107776524605643,0.9107776524605643,0.0,0,False
2023-01-02,0.9107776524605643,0.9107776524605643,0.0,0,False
2023-01-03,0.9107776524605643,0.9107776524605643,0.0,0,False
2023-01-04,0.9107776524605643,0.9107776524605643,0.0,0,False
2023-01-05,0.9107776524605643,0.9107776524605643,0.0,0,False
2023-01-06,0.9107776524605643,0.9107776524605643,0.0,0,False
2023-01-07,0.9107776524605643,0.9107776524605643,0.0,0,False
2023-01-08,0.9107776524605643,0.9107776524605643,0.0,0,False
2023-01-09,0.9107776524605643,0.9107776524605643,0.0,0,False
2023-01-10,0.9107776524605643,0.9107776524605643,0.0,0,False
2023-01-11,0.9107776524605643,0.9107776524605643,0.0,0,False
2023-01-12,0.9107776524605643,0.9107776524605643,0.0,0,False
2023-01-13,0.9107776524605643,0.9107776524605643,0.0,0,False
2023-01-14,0.9107776524605643,0.9107776524605643,0.0,0,False
2023-01-15,0.9107776524605643,0.9107776524605643,0.0,0,False
2023-01-16,0.9107776524605643,0.9107776524605643,0.0,0,False
2023-01-17,0.9107776524605643,0.9107776524605643,0.0,0,False
2023-01-18,0.9107776524605643,0.9107776524605643,0.0,0,False
2023-01-19,0.9107776524605643,0.9107776524605643,0.0,0,False
2023-01-20,0.9107776524605643,0.9107776524605643,0.0,0,False
2023-01-21,0.9107776524605643,0.9107776524605643,0.0,0,False
2023-01-22,0.9107776524605643,0.9107776524605643,0.0,0,False
2023-01-23,0.9107776524605643,0.9107776524605643,0.0,0,False
2023-01-24,0.9107776524605643,0.9107776524605643,0.0,0,False
2023-01-25,0.9107776524605643,0.9107776524605643,0.0,0,False
2023-01-26,0.9107776524605643,0.9107776524605643,0.0,0,False
2023-01-27,0.9107776524605643,0.9107776524605643,0.0,0,False
2023-01-28,0.9107776524605643,0.9107776524605643,0.0,0,False
2023-01-29,0.9107776524605643,0.9107776524605643,0.0,0,False
2023-01-30,0.9107776524605643,0.9107776524605643,0.0,0,False
2023-01-31,0.9107776524605643,0.9107776524605643,0.0,0,False
2023-02-01,0.9107776524605643,0.9107776524605643,0.0,0,False
2023-02-02,0.9107776524605643,0.9107776524605643,0.0,0,False
2023-02-03,0.9107776524605643,0.9107776524605643,0.0,0,False
2023-02-04,0.9107776524605643,0.9107776524605643,0.0,0,False
2023-02-05,0.9107776524605643,0.9107776524605643,0.0,0,False
2023-02-06,0.9107776524605643,0.9107776524605643,0.0,0,False
2023-02-07,0.9107776524605643,0.9107776524605643,0.0,0,False
2023-02-08,0.9107776524605643,0.9107776524605643,0.0,0,False
2023-02-09,0.9107776524605643,0.9107776524605643,0.0,0,False
2023-02-10,0.9107776524605643,0.9107776524605643,0.0,0,False
2023-02-11,0.9107776524605643,0.9107776524605643,0.0,0,False
2023-02-12,0.9107776524605643,0.9107776524605643,0.0,0,False
2023-02-13,0.9107776524605643,0.9107776524605643,0.0,0,False
2023-02-14,0.9107776524605643,0.9107776524605643,0.0,0,False
2023-02-15,0.9107776524605643,0.9107776524605643,0.0,0,False
2023-02-16,0.9107776524605643,0.9107776524605643,0.0,0,False
2023-02-17,0.9107776524605643,0.9107776524605643,0.0,0,False
2023-02-18,0.9107776524605643,0.9107776524605643,0.0,0,False
2023-02-19,0.9107776524605643,0.9107776524605643,0.0,0,False
2023-02-20,0.9107776524605643,0.9107776524605643,0.0,0,False
2023-02-21,0.9107776524605643,0.9107776524605643,0.0,0,False
2023-02-22,0.9107776524605643,0.9107776524605643,0.0,0,False
2023-02-23,0.9107776524605643,0.9107776524605643,0.0,0,False
2023-02-24,0.9107776524605643,0.9107776524605643,0.0,0,False
2023-02-25,0.9107776524605643,0.9107776524605643,0.0,0,False
2023-02-26,0.9107776524605643,0.9107776524605643,0.0,0,False
2023-02-27,0.9107776524605643,0.9107776524605643,0.0,0,False
2023-02-28,0.9107776524605643,0.9107776524605643,0.0,0,False
2023-03-01,0.9107776524605643,0.9107776524605643,0.0,0,False
2023-03-02,0.9107776524605643,0.9107776524605643,0.0,0,False
2023-03-03,0.9107776524605643,0.9107776524605643,0.0,0,False
2023-03-04,0.9107776524605643,0.9107776524605643,0.0,0,False
2023-03-05,0.9107776524605643,0.9107776524605643,0.0,0,False
2023-03-06,0.9107776524605643,0.9107776524605643,0.0,0,False
2023-03-07,0.9107776524605643,0.9107776524605643,0.0,0,False
2023-03-08,0.9107776524605643,0.9107776524605643,0.0,0,False
2023-03-09,0.9107776524605643,0.9107776524605643,0.0,0,False
2023-03-10,0.9107776524605643,0.9107776524605643,0.0,0,False
2023-03-11,0.9107776524605643,0.9107776524605643,0.0,0,False
2023-03-12,0.9107776524605643,0.9107776524605643,0.0,0,False
2023-03-13,0.9107776524605643,0.9107776524605643,0.0,0,False
2023-03-14,0.9107776524605643,0.9107776524605643,0.0,0,False
2023-03-15,0.9107776524605643,0.9107776524605643,0.0,0,False
2023-03-16,0.9107776524605643,0.9107776524605643,0.0,0,False
2023-03-17,0.9107776524605643,0.9107776524605643,0.0,0,False
2023-03-18,0.9107776524605643,0.9107776524605643,0.0,0,False
2023-03-19,0.9107776524605643,0.9107776524605643,0.0,0,False
2023-03-20,0.9107776524605643,0.9107776524605643,0.0,0,False
2023-03-21,0.9107776524605643,0.9107776524605643,0.0,0,False
2023-03-22,0.9107776524605643,0.9107776524605643,0.0,0,False
2023-03-23,0.9107776524605643,0.9107776524605643,0.0,0,False
2023-03-24,0.9107776524605643,0.9107776524605643,0.0,0,False
2023-03-25,0.9107776524605643,0.9107776524605643,0.0,0,False
2023-03-26,0.9107776524605643,0.9107776524605643,0.0,0,False
2023-03-27,0.9107776524605643,0.9107776524605643,0.0,0,False
2023-03-28,0.9107776524605643,0.9107776524605643,0.0,0,False
2023-03-29,0.9107776524605643,0.9107776524605643,0.0,0,False
2023-03-30,0.9107776524605643,0.9107776524605643,0.0,0,False
2023-03-31,0.9107776524605643,0.9107776524605643,0.0,0,False
2023-04-01,0.9107776524605643,0.9107776524605643,0.0,0,False
2023-04-02,0.9107776524605643,0.9107776524605643,0.0,0,False
2023-04-03,0.9107776524605643,0.9107776524605643,0.0,0,False
2023-04-04,0.9107776524605643,0.9107776524605643,0.0,0,False
2023-04-05,0.9107776524605643,0.9107776524605643,0.0,0,False
2023-04-06,0.9107776524605643,0.9107776524605643,0.0,0,False
2023-04-07,0.9107776524605643,0.9107776524605643,0.0,0,False
2023-04-08,0.9107776524605643,0.9107776524605643,0.0,0,False
2023-04-09,0.9107776524605643,0.9107776524605643,0.0,0,False
2023-04-10,0.9107776524605643,0.9107776524605643,0.0,0,False
2023-04-11,0.9107776524605643,0.9107776524605643,0.0,0,False
2023-04-12,0.9107776524605643,0.9107776524605643,0.0,0,False
2023-04-13,0.9107776524605643,0.9107776524605643,0.0,0,False
2023-04-14,0.9107776524605643,0.9107776524605643,0.0,0,False
2023-04-15,0.9107776524605643,0.9107776524605643,0.0,0,False
2023-04-16,0.9107776524605643,0.9107776524605643,0.0,0,False
2023-04-17,0.9107776524605643,0.9107776524605643,0.0,0,False
2023-04-18,0.9107776524605643,0.9107776524605643,0.0,0,False
2023-04-19,0.9107776524605643,0.9107776524605643,0.0,0,False
2023-04-20,0.9107776524605643,0.9107776524605643,0.0,0,False
2023-04-21,0.9107776524605643,0.9107776524605643,0.0,0,False
2023-04-22,0.9107776524605643,0.9107776524605643,0.0,0,False
2023-04-23,0.9107776524605643,0.9107776524605643,0.0,0,False
2023-04-24,0.9107776524605643,0.9107776524605643,0.0,0,False
2023-04-25,0.9107776524605643,0.9107776524605643,0.0,0,False
2023-04-26,0.9107776524605643,0.9107776524605643,0.0,0,False
2023-04-27,0.9107776524605643,0.9107776524605643,0.0,0,False
2023-04-28,0.9107776524605643,0.9107776524605643,0.0,0,False
2023-04-29,0.9107776524605643,0.9107776524605643,0.0,0,False
2023-04-30,0.9107776524605643,0.9107776524605643,0.0,0,False
2023-05-01,0.9107776524605643,0.9107776524605643,0.0,0,False
2023-05-02,0.9107776524605643,0.9107776524605643,0.0,0,False
2023-05-03,0.9107776524605643,0.9107776524605643,0.0,0,False
2023-05-04,0.9107776524605643,0.9107776524605643,0.0,0,False
2023-05-05,0.9107776524605643,0.9107776524605643,0.0,0,False
2023-05-06,0.9107776524605643,0.9107776524605643,0.0,0,False
2023-05-07,0.9107776524605643,0.9107776524605643,0.0,0,False
2023-05-08,0.9107776524605643,0.9107776524605643,0.0,0,False
2023-05-09,0.9107776524605643,0.9107776524605643,0.0,0,False
2023-05-10,0.9107776524605643,0.9107776524605643,0.0,0,False
2023-05-11,0.9107776524605643,0.9107776524605643,0.0,0,False
2023-05-12,0.9107776524605643,0.9107776524605643,0.0,0,False
2023-05-13,0.9107776524605643,0.9107776524605643,0.0,0,False
2023-05-14,0.9107776524605643,0.9107776524605643,0.0,0,False
2023-05-15,0.9107776524605643,0.9107776524605643,0.0,0,False
2023-05-16,0.9107776524605643,0.9107776524605643,0.0,0,False
2023-05-17,0.9107776524605643,0.9107776524605643,0.0,0,False
2023-05-18,0.9107776524605643,0.9107776524605643,0.0,0,False
2023-05-19,0.9107776524605643,0.9107776524605643,0.0,0,False
2023-05-20,0.9107776524605643,0.9107776524605643,0.0,0,False
2023-05-21,0.9107776524605643,0.9107776524605643,0.0,0,False
2023-05-22,0.9107776524605643,0.9107776524605643,0.0,0,False
2023-05-23,0.9107776524605643,0.9107776524605643,0.0,0,False
2023-05-24,0.9107776524605643,0.9107776524605643,0.0,0,False
2023-05-25,0.9107776524605643,0.9107776524605643,0.0,0,False
2023-05-26,0.9107776524605643,0.9107776524605643,0.0,0,False
2023-05-27,0.9107776524605643,0.9107776524605643,0.0,0,False
2023-05-28,0.9107776524605643,0.9107776524605643,0.0,0,False
2023-05-29,0.9107776524605643,0.9107776524605643,0.0,0,False
2023-05-30,0.9107776524605643,0.9107776524605643,0.0,0,False
2023-05-31,0.9107776524605643,0.9107776524605643,0.0,0,False
2023-06-01,0.9107776524605643,0.9107776524605643,0.0,0,False
2023-06-02,0.9107776524605643,0.9107776524605643,0.0,0,False
2023-06-03,0.9107776524605643,0.9107776524605643,0.0,0,False
2023-06-04,0.9107776524605643,0.9107776524605643,0.0,0,False
2023-06-05,0.9107776524605643,0.9107776524605643,0.0,0,False
2023-06-06,0.9107776524605643,0.9107776524605643,0.0,0,False
2023-06-07,0.9107776524605643,0.9107776524605643,0.0,0,False
2023-06-08,0.9107776524605643,0.9107776524605643,0.0,0,False
2023-06-09,0.9107776524605643,0.9107776524605643,0.0,0,False
2023-06-10,0.9107776524605643,0.9107776524605643,0.0,0,False
2023-06-11,0.9107776524605643,0.9107776524605643,0.0,0,False
2023-06-12,0.9107776524605643,0.9107776524605643,0.0,0,False
2023-06-13,0.9107776524605643,0.9107776524605643,0.0,0,False
2023-06-14,0.9107776524605643,0.9107776524605643,0.0,0,False
2023-06-15,0.9107776524605643,0.9107776524605643,0.0,0,False
2023-06-16,0.9107776524605643,0.9107776524605643,0.0,0,False
2023-06-17,0.9107776524605643,0.9107776524605643,0.0,0,False
2023-06-18,0.9107776524605643,0.9107776524605643,0.0,0,False
2023-06-19,0.9107776524605643,0.9107776524605643,0.0,0,False
2023-06-20,0.9107776524605643,0.9107776524605643,0.0,0,False
2023-06-21,0.9107776524605643,0.9107776524605643,0.0,0,False
2023-06-22,0.9107776524605643,0.9107776524605643,0.0,0,False
2023-06-23,0.9107776524605643,0.9107776524605643,0.0,0,False
2023-06-24,0.9107776524605643,0.9107776524605643,0.0,0,False
2023-06-25,0.9107776524605643,0.9107776524605643,0.0,0,False
2023-06-26,0.9107776524605643,0.9107776524605643,0.0,0,False
2023-06-27,0.9107776524605643,0.9107776524605643,0.0,0,False
2023-06-28,0.9107776524605643,0.9107776524605643,0.0,0,False
2023-06-29,0.9107776524605643,0.9107776524605643,0.0,0,False
2023-06-30,0.9107776524605643,0.9107776524605643,0.0,0,False
2023-07-01,0.9107776524605643,0.9107776524605643,0.0,0,False
2023-07-02,0.9107776524605643,0.9107776524605643,0.0,0,False
2023-07-03,0.9107776524605643,0.9107776524605643,0.0,0,False
2023-07-04,0.9107776524605643,0.9107776524605643,0.0,0,False
2023-07-05,0.9107776524605643,0.9107776524605643,0.0,0,False
2023-07-06,0.9107776524605643,0.9107776524605643,0.0,0,False
2023-07-07,0.9107776524605643,0.9107776524605643,0.0,0,False
2023-07-08,0.9107776524605643,0.9107776524605643,0.0,0,False
2023-07-09,0.9107776524605643,0.9107776524605643,0.0,0,False
2023-07-10,0.9107776524605643,0.9107776524605643,0.0,0,False
2023-07-11,0.9107776524605643,0.9107776524605643,0.0,0,False
2023-07-12,0.9107776524605643,0.9107776524605643,0.0,0,False
2023-07-13,0.9107776524605643,0.9107776524605643,0.0,0,False
2023-07-14,0.9107776524605643,0.9107776524605643,0.0,0,False
2023-07-15,0.9107776524605643,0.9107776524605643,0.0,0,False
2023-07-16,0.9107776524605643,0.9107776524605643,0.0,0,False
2023-07-17,0.9107776524605643,0.9107776524605643,0.0,0,False
2023-07-18,0.9107776524605643,0.9107776524605643,0.0,0,False
2023-07-19,0.9107776524605643,0.9107776524605643,0.0,0,False
2023-07-20,0.9107776524605643,0.9107776524605643,0.0,0,False
2023-07-21,0.9107776524605643,0.9107776524605643,0.0,0,False
2023-07-22,0.9107776524605643,0.9107776524605643,0.0,0,False
2023-07-23,0.9107776524605643,0.9107776524605643,0.0,0,False
2023-07-24,0.9107776524605643,0.9107776524605643,0.0,0,False
2023-07-25,0.9107776524605643,0.9107776524605643,0.0,0,False
2023-07-26,0.9107776524605643,0.9107776524605643,0.0,0,False
2023-07-27,0.9107776524605643,0.9107776524605643,0.0,0,False
2023-07-28,0.9107776524605643,0.9107776524605643,0.0,0,False
2023-07-29,0.9107776524605643,0.9107776524605643,0.0,0,False
2023-07-30,0.9107776524605643,0.9107776524605643,0.0,0,False
2023-07-31,0.9107776524605643,0.9107776524605643,0.0,0,False
2023-08-01,0.9107776524605643,0.9107776524605643,0.0,0,False
2023-08-02,0.9107776524605643,0.9107776524605643,0.0,0,False
2023-08-03,0.9107776524605643,0.9107776524605643,0.0,0,False
2023-08-04,0.9107776524605643,0.9107776524605643,0.0,0,False
2023-08-05,0.9107776524605643,0.9107776524605643,0.0,0,False
2023-08-06,0.9107776524605643,0.9107776524605643,0.0,0,False
2023-08-07,0.9107776524605643,0.9107776524605643,0.0,0,False
2023-08-08,0.9107776524605643,0.9107776524605643,0.0,0,False
2023-08-09,0.9107776524605643,0.9107776524605643,0.0,0,False
2023-08-10,0.9107776524605643,0.9107776524605643,0.0,0,False
2023-08-11,0.9107776524605643,0.9107776524605643,0.0,0,False
2023-08-12,0.9107776524605643,0.9107776524605643,0.0,0,False
2023-08-13,0.9107776524605643,0.9107776524605643,0.0,0,False
2023-08-14,0.9107776524605643,0.9107776524605643,0.0,0,False
2023-08-15,0.9107776524605643,0.9107776524605643,0.0,0,False
2023-08-16,0.9107776524605643,0.9107776524605643,0.0,0,False
2023-08-17,0.9107776524605643,0.9107776524605643,0.0,0,False
2023-08-18,0.9107776524605643,0.9107776524605643,0.0,0,False
2023-08-19,0.9107776524605643,0.9107776524605643,0.0,0,False
2023-08-20,0.9107776524605643,0.9107776524605643,0.0,0,False
2023-08-21,0.9107776524605643,0.9107776524605643,0.0,0,False
2023-08-22,0.9107776524605643,0.9107776524605643,0.0,0,False
2023-08-23,0.9107776524605643,0.9107776524605643,0.0,0,False
2023-08-24,0.9107776524605643,0.9107776524605643,0.0,0,False
2023-08-25,0.9107776524605643,0.9107776524605643,0.0,0,False
2023-08-26,0.9107776524605643,0.9107776524605643,0.0,0,False
2023-08-27,0.9107776524605643,0.9107776524605643,0.0,0,False
2023-08-28,0.9107776524605643,0.9107776524605643,0.0,0,False
2023-08-29,0.9107776524605643,0.9107776524605643,0.0,0,False
2023-08-30,0.9107776524605643,0.9107776524605643,0.0,0,False
2023-08-31,0.9107776524605643,0.9107776524605643,0.0,0,False
2023-09-01,0.9107776524605643,0.9107776524605643,0.0,0,False
2023-09-02,0.9107776524605643,0.9107776524605643,0.0,0,False
2023-09-03,0.9107776524605643,0.9107776524605643,0.0,0,False
2023-09-04,0.9107776524605643,0.9107776524605643,0.0,0,False
2023-09-05,0.9107776524605643,0.9107776524605643,0.0,0,False
2023-09-06,0.9107776524605643,0.9107776524605643,0.0,0,False
2023-09-07,0.9107776524605643,0.9107776524605643,0.0,0,False
2023-09-08,0.9107776524605643,0.9107776524605643,0.0,0,False
2023-09-09,0.9107776524605643,0.9107776524605643,0.0,0,False
2023-09-10,0.9107776524605643,0.9107776524605643,0.0,0,False
2023-09-11,0.9107776524605643,0.9107776524605643,0.0,0,False
2023-09-12,0.9107776524605643,0.9107776524605643,0.0,0,False
2023-09-13,0.9107776524605643,0.9107776524605643,0.0,0,False
2023-09-14,0.9107776524605643,0.9107776524605643,0.0,0,False
2023-09-15,0.9107776524605643,0.9107776524605643,0.0,0,False
2023-09-16,0.9107776524605643,0.9107776524605643,0.0,0,False
2023-09-17,0.9107776524605643,0.9107776524605643,0.0,0,False
2023-09-18,0.9107776524605643,0.9107776524605643,0.0,0,False
2023-09-19,0.9107776524605643,0.9107776524605643,0.0,0,False
2023-09-20,0.9107776524605643,0.9107776524605643,0.0,0,False
2023-09-21,0.9107776524605643,0.9107776524605643,0.0,0,False
2023-09-22,0.9107776524605643,0.9107776524605643,0.0,0,False
2023-09-23,0.9107776524605643,0.9107776524605643,0.0,0,False
2023-09-24,0.9107776524605643,0.9107776524605643,0.0,0,False
2023-09-25,0.9107776524605643,0.9107776524605643,0.0,0,False
2023-09-26,0.9107776524605643,0.9107776524605643,0.0,0,False
2023-09-27,0.9107776524605643,0.9107776524605643,0.0,0,False
2023-09-28,0.9107776524605643,0.9107776524605643,0.0,0,False
2023-09-29,0.9107776524605643,0.9107776524605643,0.0,0,False
2023-09-30,0.9107776524605643,0.9107776524605643,0.0,0,False
2023-10-01,0.9107776524605643,0.9107776524605643,0.0,0,False
2023-10-02,0.9107776524605643,0.9107776524605643,0.0,0,False
2023-10-03,0.9107776524605643,0.9107776524605643,0.0,0,False
2023-10-04,0.9107776524605643,0.9107776524605643,0.0,0,False
2023-10-05,0.9107776524605643,0.9107776524605643,0.0,0,False
2023-10-06,0.9107776524605643,0.9107776524605643,0.0,0,False
2023-10-07,0.9107776524605643,0.9107776524605643,0.0,0,False
2023-10-08,0.9107776524605643,0.9107776524605643,0.0,0,False
2023-10-09,0.9107776524605643,0.9107776524605643,0.0,0,False
2023-10-10,0.9107776524605643,0.9107776524605643,0.0,0,False
2023-10-11,0.9107776524605643,0.9107776524605643,0.0,0,False
2023-10-12,0.9107776524605643,0.9107776524605643,0.0,0,False
2023-10-13,0.9107776524605643,0.9107776524605643,0.0,0,False
2023-10-14,0.9107776524605643,0.9107776524605643,0.0,0,False
2023-10-15,0.9107776524605643,0.9107776524605643,0.0,0,False
2023-10-16,0.9107776524605643,0.9107776524605643,0.0,0,False
2023-10-17,0.9107776524605643,0.9107776524605643,0.0,0,False
2023-10-18,0.9107776524605643,0.9107776524605643,0.0,0,False
2023-10-19,0.9107776524605643,0.9107776524605643,0.0,0,False
2023-10-20,0.9107776524605643,0.9107776524605643,0.0,0,False
2023-10-21,0.9107776524605643,0.9107776524605643,0.0,0,False
2023-10-22,0.9107776524605643,0.9107776524605643,0.0,0,False
2023-10-23,0.9107776524605643,0.9107776524605643,0.0,0,False
2023-10-24,0.9107776524605643,0.9107776524605643,0.0,0,False
2023-10-25,0.9107776524605643,0.9107776524605643,0.0,0,False
2023-10-26,0.9107776524605643,0.9107776524605643,0.0,0,False
2023-10-27,0.9107776524605643,0.9107776524605643,0.0,0,False
2023-10-28,0.9107776524605643,0.9107776524605643,0.0,0,False
2023-10-29,0.9107776524605643,0.9107776524605643,0.0,0,False
2023-10-30,0.9107776524605643,0.9107776524605643,0.0,0,False
2023-10-31,0.9107776524605643,0.9107776524605643,0.0,0,False
2023-11-01,0.9107776524605643,0.9107776524605643,0.0,0,False
2023-11-02,0.9107776524605643,0.9107776524605643,0.0,0,False
2023-11-03,0.9107776524605643,0.9107776524605643,0.0,0,False
2023-11-04,0.9107776524605643,0.9107776524605643,0.0,0,False
2023-11-05,0.9107776524605643,0.9107776524605643,0.0,0,False
2023-11-06,0.9107776524605643,0.9107776524605643,0.0,0,False
2023-11-07,0.9107776524605643,0.9107776524605643,0.0,0,False
2023-11-08,0.9107776524605643,0.9107776524605643,0.0,0,False
2023-11-09,0.9107776524605643,0.9107776524605643,0.0,0,False
2023-11-10,0.9107776524605643,0.9107776524605643,0.0,0,False
2023-11-11,0.9107776524605643,0.9107776524605643,0.0,0,False
2023-11-12,0.9107776524605643,0.9107776524605643,0.0,0,False
2023-11-13,0.9107776524605643,0.9107776524605643,0.0,0,False
2023-11-14,0.9107776524605643,0.9107776524605643,0.0,0,False
2023-11-15,0.9107776524605643,0.9107776524605643,0.0,0,False
2023-11-16,0.9107776524605643,0.9107776524605643,0.0,0,False
2023-11-17,0.9107776524605643,0.9107776524605643,0.0,0,False
2023-11-18,0.9107776524605643,0.9107776524605643,0.0,0,False
2023-11-19,0.9107776524605643,0.9107776524605643,0.0,0,False
2023-11-20,0.9107776524605643,0.9107776524605643,0.0,0,False
2023-11-21,0.9107776524605643,0.9107776524605643,0.0,0,False
2023-11-22,0.9107776524605643,0.9107776524605643,0.0,0,False
2023-11-23,0.9107776524605643,0.9107776524605643,0.0,0,False
2023-11-24,0.9107776524605643,0.9107776524605643,0.0,0,False
2023-11-25,0.9107776524605643,0.9107776524605643,0.0,0,False
2023-11-26,0.9107776524605643,0.9107776524605643,0.0,0,False
2023-11-27,0.9107776524605643,0.9107776524605643,0.0,0,False
2023-11-28,0.9107776524605643,0.9107776524605643,0.0,0,False
2023-11-29,0.9107776524605643,0.9107776524605643,0.0,0,False
2023-11-30,0.9107776524605643,0.9107776524605643,0.0,0,False
2023-12-01,0.9107776524605643,0.9107776524605643,0.0,0,False
2023-12-02,0.9107776524605643,0.9107776524605643,0.0,0,False
2023-12-03,0.9107776524605643,0.9107776524605643,0.0,0,False
2023-12-04,0.9107776524605643,0.9107776524605643,0.0,0,False
2023-12-05,0.9107776524605643,0.9107776524605643,0.0,0,False
2023-12-06,0.9107776524605643,0.9107776524605643,0.0,0,False
2023-12-07,0.9107776524605643,0.9107776524605643,0.0,0,False
2023-12-08,0.9107776524605643,0.9107776524605643,0.0,0,False
2023-12-09,0.9107776524605643,0.9107776524605643,0.0,0,False
2023-12-10,0.9107776524605643,0.9107776524605643,0.0,0,False
2023-12-11,0.9107776524605643,0.9107776524605643,0.0,0,False
2023-12-12,0.9107776524605643,0.9107776524605643,0.0,0,False
2023-12-13,0.9107776524605643,0.9107776524605643,0.0,0,False
2023-12-14,0.9107776524605643,0.9107776524605643,0.0,0,False
2023-12-15,0.9107776524605643,0.9107776524605643,0.0,0,False
2023-12-16,0.9107776524605643,0.9107776524605643,0.0,0,False
2023-12-17,0.9107776524605643,0.9107776524605643,0.0,0,False
2023-12-18,0.9107776524605643,0.9107776524605643,0.0,0,False
2023-12-19,0.9107776524605643,0.9107776524605643,0.0,0,False
2023-12-20,0.9107776524605643,0.9107776524605643,0.0,0,False
2023-12-21,0.9107776524605643,0.9107776524605643,0.0,0,False
2023-12-22,0.9107776524605643,0.9107776524605643,0.0,0,False
2023-12-23,0.9107776524605643,0.9107776524605643,0.0,0,False
2023-12-24,0.9107776524605643,0.9107776524605643,0.0,0,False
2023-12-25,0.9107776524605643,0.9107776524605643,0.0,0,False
2023-12-26,0.9107776524605643,0.9107776524605643,0.0,0,False
2023-12-27,0.9107776524605643,0.9107776524605643,0.0,0,False
2023-12-28,0.9107776524605643,0.9107776524605643,0.0,0,False
2023-12-29,0.9107776524605643,0.9107776524605643,0.0,0,False
2023-12-30,0.9107776524605643,0.9107776524605643,0.0,0,False
2023-12-31,0.9107776524605643,0.9107776524605643,0.0,0,False
