day,start_equity,end_equity,return_pct,entries,active
2021-09-02,1.0,1.0,0.0,0,False
2021-09-03,1.0,1.0,0.0,0,False
2021-09-04,1.0,1.0,0.0,0,False
2021-09-05,1.0,1.0,0.0,0,False
2021-09-06,1.0,1.0,0.0,0,False
2021-09-07,1.0,1.0,0.0,0,False
2021-09-08,1.0,1.0,0.0,0,False
2021-09-09,1.0,1.0,0.0,0,False
2021-09-10,1.0,1.0,0.0,0,False
2021-09-11,1.0,1.0,0.0,0,False
2021-09-12,1.0,1.0,0.0,0,False
2021-09-13,1.0,1.0,0.0,0,False
2021-09-14,1.0,1.0,0.0,0,False
2021-09-15,1.0,1.0,0.0,0,False
2021-09-16,1.0,1.0,0.0,0,False
2021-09-17,1.0,1.0,0.0,0,False
2021-09-18,1.0,1.0,0.0,0,False
2021-09-19,1.0,1.0,0.0,0,False
2021-09-20,1.0,1.0,0.0,0,False
2021-09-21,1.0,1.0,0.0,0,False
2021-09-22,1.0,1.0,0.0,0,False
2021-09-23,1.0,1.0,0.0,0,False
2021-09-24,1.0,1.0,0.0,0,False
2021-09-25,1.0,1.0,0.0,0,False
2021-09-26,1.0,1.0,0.0,0,False
2021-09-27,1.0,1.0,0.0,0,False
2021-09-28,1.0,1.0,0.0,0,False
2021-09-29,1.0,1.0,0.0,0,False
2021-09-30,1.0,1.0,0.0,0,False
2021-10-01,1.0,1.0,0.0,0,False
2021-10-02,1.0,1.0,0.0,0,False
2021-10-03,1.0,1.0,0.0,0,False
2021-10-04,1.0,1.0,0.0,0,False
2021-10-05,1.0,0.9991229226558256,-0.08770773441744151,1,True
2021-10-06,0.9991229226558256,1.0053736549493055,0.6256219481847625,5,True
2021-10-07,1.0053736549493055,0.9839445109734689,-2.131460663440321,2,True
2021-10-08,0.9839445109734689,0.9831130667405201,-0.08450113026456929,1,True
2021-10-09,0.9831130667405201,0.984495276939597,0.14059524238241305,3,True
2021-10-10,0.984495276939597,0.9724652924523581,-1.2219443575834488,1,True
2021-10-11,0.9724652924523581,0.970049570667841,-0.2484121339102141,0,True
2021-10-12,0.970049570667841,0.970049570667841,0.0,0,False
2021-10-13,0.970049570667841,0.99288399128413,2.3539436856374607,4,True
2021-10-14,0.99288399128413,1.0195518895244897,2.685902731281753,1,True
2021-10-15,1.0195518895244897,1.022595065355417,0.2984817018333974,6,True
2021-10-16,1.022595065355417,1.0665878061166312,4.302068555936556,2,True
2021-10-17,1.0665878061166312,1.0668014393787926,0.020029599151261124,0,True
2021-10-18,1.0668014393787926,1.0561492069643879,-0.9985206263508184,2,True
2021-10-19,1.0561492069643879,1.0561492069643879,0.0,0,False
2021-10-20,1.0561492069643879,1.0561492069643879,0.0,0,False
2021-10-21,1.0561492069643879,1.0561492069643879,0.0,0,False
2021-10-22,1.0561492069643879,1.0561492069643879,0.0,0,False
2021-10-23,1.0561492069643879,1.0561492069643879,0.0,0,False
2021-10-24,1.0561492069643879,1.0603563894664194,0.3983511490884828,1,True
2021-10-25,1.0603563894664194,1.051562724199506,-0.8293122344779191,2,True
2021-10-26,1.051562724199506,1.0577822177697542,0.5914524571021484,0,True
2021-10-27,1.0577822177697542,1.0658562222435115,0.7632955383557682,7,True
2021-10-28,1.0658562222435115,1.0652367128812505,-0.05812316420661379,3,True
2021-10-29,1.0652367128812505,1.0607272095274158,-0.4233334524903265,2,True
2021-10-30,1.0607272095274158,1.1208421476939063,5.667332526830671,2,True
2021-10-31,1.1208421476939063,1.142537652668162,1.9356432142468405,9,True
2021-11-01,1.142537652668162,1.11753687090287,-2.1881801187827787,8,True
2021-11-02,1.11753687090287,1.1377628118371463,1.8098678854269634,3,True
2021-11-03,1.1377628118371463,1.1280932795769079,-0.8498724127417256,2,True
2021-11-04,1.1280932795769079,1.1462903872895416,1.6130853753032248,5,True
2021-11-05,1.1462903872895416,1.1263125499937021,-1.7428251617007784,5,True
2021-11-06,1.1263125499937021,1.1194260651630947,-0.6114186360301033,3,True
2021-11-07,1.1194260651630947,1.1155796477013489,-0.34360620870351744,0,True
2021-11-08,1.1155796477013489,1.1155796477013489,0.0,0,False
2021-11-09,1.1155796477013489,1.122477585049483,0.6183276436019014,1,True
2021-11-10,1.122477585049483,1.1472663555891764,2.208397821912911,0,True
2021-11-11,1.1472663555891764,1.1376588360673305,-0.8374271131582178,14,True
2021-11-12,1.1376588360673305,1.124046448664353,-1.1965263197913356,6,True
2021-11-13,1.124046448664353,1.121642259611191,-0.21388698447638577,1,True
2021-11-14,1.121642259611191,1.1199735519796954,-0.14877360559454322,2,True
2021-11-15,1.1199735519796954,1.117895037644565,-0.18558601954985487,0,True
2021-11-16,1.117895037644565,1.1434029671202828,2.2817821545628725,9,True
2021-11-17,1.1434029671202828,1.1211512594073996,-1.9460949772524438,1,True
2021-11-18,1.1211512594073996,1.1081097089982996,-1.1632284492989142,4,True
2021-11-19,1.1081097089982996,1.1189716063887862,0.9802185922823003,7,True
2021-11-20,1.1189716063887862,1.1286777368013834,0.8674152549698277,0,True
2021-11-21,1.1286777368013834,1.1174115470966306,-0.9981759484935515,3,True
2021-11-22,1.1174115470966306,1.1072791582419244,-0.9067732368645443,9,True
2021-11-23,1.1072791582419244,1.1036666124245316,-0.32625429554083984,0,True
2021-11-24,1.1036666124245316,1.0875907001897824,-1.456591334174151,4,True
2021-11-25,1.0875907001897824,1.1032203713135411,1.4370912808496117,7,True
2021-11-26,1.1032203713135411,1.0703415336146789,-2.980260204923091,13,True
2021-11-27,1.0703415336146789,1.0787379926309035,0.7844654021664343,5,True
2021-11-28,1.0787379926309035,1.0322680394608832,-4.307807223576699,10,True
2021-11-29,1.0322680394608832,1.0167882670644914,-1.4995884600356613,2,True
2021-11-30,1.0167882670644914,1.0056442908792125,-1.0959977161668188,3,True
2021-12-01,1.0056442908792125,0.997237584012867,-0.8359523285311643,1,True
2021-12-02,0.997237584012867,0.9875748574104288,-0.9689493012844053,7,True
2021-12-03,0.9875748574104288,0.9591107462977877,-2.8822231448133784,2,True
2021-12-04,0.9591107462977877,0.8755455955060915,-8.712773901685667,22,True
2021-12-05,0.8755455955060915,0.8680176230140443,-0.8598035934034742,3,True
2021-12-06,0.8680176230140443,0.8475270160446765,-2.3606210779704706,15,True
2021-12-07,0.8475270160446765,0.8772399240841648,3.5058360945419142,1,True
2021-12-08,0.8772399240841648,0.8692840167216755,-0.9069249066377405,4,True
2021-12-09,0.8692840167216755,0.8512424315985407,-2.0754534508957034,4,True
2021-12-10,0.8512424315985407,0.8353337524358958,-1.8688776043236155,4,True
2021-12-11,0.8353337524358958,0.8277373055910042,-0.9093906265297824,2,True
2021-12-12,0.8277373055910042,0.8277373055910042,0.0,0,False
2021-12-13,0.8277373055910042,0.8194861403768494,-0.996833797198915,2,True
2021-12-14,0.8194861403768494,0.8154022473270525,-0.49834803159928276,1,True
2021-12-15,0.8154022473270525,0.8137155754226736,-0.20685151529908907,1,True
2021-12-16,0.8137155754226736,0.8144639963734462,0.09197574353716487,1,True
2021-12-17,0.8144639963734462,0.8068104775123025,-0.9397000843772707,4,True
2021-12-18,0.8068104775123025,0.8054692748146881,-0.16623516116818227,2,True
2021-12-19,0.8054692748146881,0.8010949525972465,-0.543077477219478,1,True
2021-12-20,0.8010949525972465,0.8010949525972465,0.0,0,False
2021-12-21,0.8010949525972465,0.79710626777991,-0.49790412539795215,1,True
2021-12-22,0.79710626777991,0.7913281400142871,-0.7248880104425814,2,True
2021-12-23,0.7913281400142871,0.7915548107137893,0.028644337037997403,0,True
2021-12-24,0.7915548107137893,0.7915548107137893,0.0,0,False
2021-12-25,0.7915548107137893,0.793964041727106,0.30436692200053184,1,True
2021-12-26,0.793964041727106,0.7934668916794941,-0.06261619185302658,0,True
2021-12-27,0.7934668916794941,0.7934668916794941,0.0,0,False
2021-12-28,0.7934668916794941,0.7895132487765157,-0.4982744641821024,1,True
2021-12-29,0.7895132487765157,0.7895132487765157,0.0,0,False
2021-12-30,0.7895132487765157,0.7895132487765157,0.0,0,False
2021-12-31,0.7895132487765157,0.7895132487765157,0.0,0,False
2022-01-01,0.7895132487765157,0.7895132487765157,0.0,0,False
2022-01-02,0.7895132487765157,0.7895132487765157,0.0,0,False
2022-01-03,0.7895132487765157,0.7895132487765157,0.0,0,False
2022-01-04,0.7895132487765157,0.7895132487765157,0.0,0,False
2022-01-05,0.7895132487765157,0.7914010849469035,0.23911393169313566,1,True
2022-01-06,0.7914010849469035,0.7478405357365085,-5.504231677079085,15,True
2022-01-07,0.7478405357365085,0.7476602120030383,-0.024112591502223335,5,True
2022-01-08,0.7476602120030383,0.7556718110122326,1.0715561535273643,0,True
2022-01-09,0.7556718110122326,0.7564000419622094,0.0963686800757424,1,True
2022-01-10,0.7564000419622094,0.758476393708018,0.2745044461422985,0,True
2022-01-11,0.758476393708018,0.758476393708018,0.0,0,False
2022-01-12,0.758476393708018,0.758476393708018,0.0,0,False
2022-01-13,0.758476393708018,0.758476393708018,0.0,0,False
2022-01-14,0.758476393708018,0.758476393708018,0.0,0,False
2022-01-15,0.758476393708018,0.7589763150000811,0.06591125263888387,1,True
2022-01-16,0.7589763150000811,0.7575270101097374,-0.19095521977434693,0,True
2022-01-17,0.7575270101097374,0.7604576339829885,0.3868672448823274,1,True
2022-01-18,0.7604576339829885,0.7691311111000458,1.1405602007871218,0,True
2022-01-19,0.7691311111000458,0.7652993963517475,-0.4981874602391301,1,True
2022-01-20,0.7652993963517475,0.7652993963517475,0.0,0,False
2022-01-21,0.7652993963517475,0.7316099983891361,-4.4021200229886315,9,True
2022-01-22,0.7316099983891361,0.6923251245463025,-5.369646933384087,27,True
2022-01-23,0.6923251245463025,0.7112237798391648,2.729737030018531,0,True
2022-01-24,0.7112237798391648,0.7027085605176915,-1.197263022251449,6,True
2022-01-25,0.7027085605176915,0.7280355032558948,3.6041887293282393,0,True
2022-01-26,0.7280355032558948,0.729036115886981,0.13744008727751833,1,True
2022-01-27,0.729036115886981,0.722426143711537,-0.9066728014430425,10,True
2022-01-28,0.722426143711537,0.7128655634404498,-1.323398987468638,0,True
2022-01-29,0.7128655634404498,0.7128655634404498,0.0,0,False
2022-01-30,0.7128655634404498,0.7220422032929985,1.2872889817064692,1,True
2022-01-31,0.7220422032929985,0.7268371000710336,0.664074309807261,2,True
2022-02-01,0.7268371000710336,0.7346252644519543,1.0715144260191822,1,True
2022-02-02,0.7346252644519543,0.7338531694366104,-0.10510052576532258,1,True
2022-02-03,0.7338531694366104,0.7357848839749834,0.26322902439135376,4,True
2022-02-04,0.7357848839749834,0.7470320952486242,1.528600480738218,0,True
2022-02-05,0.7470320952486242,0.7470320952486242,0.0,0,False
2022-02-06,0.7470320952486242,0.7470320952486242,0.0,0,False
2022-02-07,0.7470320952486242,0.7470320952486242,0.0,0,False
2022-02-08,0.7470320952486242,0.7395366816271722,-1.003358981377822,3,True
2022-02-09,0.7395366816271722,0.74863029484931,1.2296365343405835,2,True
2022-02-10,0.74863029484931,0.7516835472737613,0.4078451600820987,5,True
2022-02-11,0.7516835472737613,0.7296761399069178,-2.9277489771674436,0,True
2022-02-12,0.7296761399069178,0.7116259988399416,-2.4737195146985136,5,True
2022-02-13,0.7116259988399416,0.7116259988399416,0.0,0,False
2022-02-14,0.7116259988399416,0.7116259988399416,0.0,0,False
2022-02-15,0.7116259988399416,0.7116259988399416,0.0,0,False
2022-02-16,0.7116259988399416,0.7116259988399416,0.0,0,False
2022-02-17,0.7116259988399416,0.7116259988399416,0.0,0,False
2022-02-18,0.7116259988399416,0.7116259988399416,0.0,0,False
2022-02-19,0.7116259988399416,0.7116259988399416,0.0,0,False
2022-02-20,0.7116259988399416,0.7116259988399416,0.0,0,False
2022-02-21,0.7116259988399416,0.7116259988399416,0.0,0,False
2022-02-22,0.7116259988399416,0.7045576109509243,-0.9932728568854743,2,True
2022-02-23,0.7045576109509243,0.7045576109509243,0.0,0,False
2022-02-24,0.7045576109509243,0.6911128558458872,-1.9082548958474832,11,True
2022-02-25,0.6911128558458872,0.7250209662429671,4.906305838512881,0,True
2022-02-26,0.7250209662429671,0.7250209662429671,0.0,0,False
2022-02-27,0.7250209662429671,0.7250209662429671,0.0,0,False
2022-02-28,0.7250209662429671,0.7178006180389928,-0.9958812972526765,2,True
2022-03-01,0.7178006180389928,0.7178006180389928,0.0,0,False
2022-03-02,0.7178006180389928,0.7178006180389928,0.0,0,False
2022-03-03,0.7178006180389928,0.7178006180389928,0.0,0,False
2022-03-04,0.7178006180389928,0.7278086248712342,1.3942599909683828,3,True
2022-03-05,0.7278086248712342,0.7194232132530054,-1.1521451287709539,2,True
2022-03-06,0.7194232132530054,0.7150112130056776,-0.6132690975285793,4,True
2022-03-07,0.7150112130056776,0.7047442393897826,-1.4359178470413014,0,True
2022-03-08,0.7047442393897826,0.7012384197805588,-0.49745984617900474,1,True
2022-03-09,0.7012384197805588,0.7139091809466986,1.8069120014994278,2,True
2022-03-10,0.7139091809466986,0.7069675238582378,-0.9723445605862135,4,True
2022-03-11,0.7069675238582378,0.6974159610664762,-1.351061041621049,2,True
2022-03-12,0.6974159610664762,0.6949155067337037,-0.3585312743558111,0,True
2022-03-13,0.6949155067337037,0.6949155067337037,0.0,0,False
2022-03-14,0.6949155067337037,0.6914537318257203,-0.4981576716074021,1,True
2022-03-15,0.6914537318257203,0.6924840782840471,0.14901162737328555,1,True
2022-03-16,0.6924840782840471,0.6967435045805637,0.6150937516240518,1,True
2022-03-17,0.6967435045805637,0.6984206533425021,0.24071250767498942,1,True
2022-03-18,0.6984206533425021,0.6968319361794779,-0.2274728210600485,0,True
2022-03-19,0.6968319361794779,0.6968319361794779,0.0,0,False
2022-03-20,0.6968319361794779,0.6853132373959834,-1.6530095975003878,4,True
2022-03-21,0.6853132373959834,0.6878366329899847,0.368210543194758,3,True
2022-03-22,0.6878366329899847,0.682747594712161,-0.7398614778195145,0,True
2022-03-23,0.682747594712161,0.6818230238082097,-0.13541913748389423,2,True
2022-03-24,0.6818230238082097,0.6759254557867643,-0.864970500483464,0,True
2022-03-25,0.6759254557867643,0.6759254557867643,0.0,0,False
2022-03-26,0.6759254557867643,0.677479830776687,0.2299624872262651,1,True
2022-03-27,0.677479830776687,0.6954878268507241,2.6580859320036065,2,True
2022-03-28,0.6954878268507241,0.6961556778706048,0.09602627020877108,2,True
2022-03-29,0.6961556778706048,0.7005059176938351,0.6248946839788383,1,True
2022-03-30,0.7005059176938351,0.7013853121857072,0.12553705395768056,6,True
2022-03-31,0.7013853121857072,0.7019049224145896,0.07408342031900439,7,True
2022-04-01,0.7019049224145896,0.6818847739377205,-2.8522593071435787,9,True
2022-04-02,0.6818847739377205,0.6830914026945731,0.17695493475893276,0,True
2022-04-03,0.6830914026945731,0.6743706047249652,-1.2766663341402307,3,True
2022-04-04,0.6743706047249652,0.6683780321461971,-0.8886171100551121,2,True
2022-04-05,0.6683780321461971,0.6605375277653346,-1.1730643443929822,7,True
2022-04-06,0.6605375277653346,0.6297664717864508,-4.658487169227965,12,True
2022-04-07,0.6297664717864508,0.6277385780431319,-0.3220072573197452,3,True
2022-04-08,0.6277385780431319,0.6290818857447179,0.21399158002579632,0,True
2022-04-09,0.6290818857447179,0.6286160497535833,-0.07405013587112874,1,True
2022-04-10,0.6286160497535833,0.6259379203506088,-0.42603579784900036,0,True
2022-04-11,0.6259379203506088,0.6156791521793517,-1.638943390026737,7,True
2022-04-12,0.6156791521793517,0.6065620596107407,-1.4808187895170244,1,True
2022-04-13,0.6065620596107407,0.6019063936862745,-0.7675498080862431,1,True
2022-04-14,0.6019063936862745,0.6012631485772791,-0.1068679641457071,0,True
2022-04-15,0.6012631485772791,0.6025815689272422,0.21927509661663347,1,True
2022-04-16,0.6025815689272422,0.6022381741765164,-0.056987264203456345,0,True
2022-04-17,0.6022381741765164,0.6068357407182347,0.7634133369252005,1,True
2022-04-18,0.6068357407182347,0.6246512101647652,2.9357976551355858,6,True
2022-04-19,0.6246512101647652,0.6381498258247787,2.1609844726712346,2,True
2022-04-20,0.6381498258247787,0.6446924269414066,1.02524530319692,1,True
2022-04-21,0.6446924269414066,0.6415369121675304,-0.4894604996132479,5,True
2022-04-22,0.6415369121675304,0.6342757516381424,-1.1318383076127314,2,True
2022-04-23,0.6342757516381424,0.6272764093636667,-1.1035172409474159,2,True
2022-04-24,0.6272764093636667,0.6272764093636667,0.0,0,False
2022-04-25,0.6272764093636667,0.617920196920205,-1.4915613442171405,3,True
2022-04-26,0.617920196920205,0.612836166786477,-0.8227648422996059,2,True
2022-04-27,0.612836166786477,0.6087219901020904,-0.6713338584372508,1,True
2022-04-28,0.6087219901020904,0.6106678780813161,0.31966776473761893,1,True
2022-04-29,0.6106678780813161,0.6005813361298196,-1.651723025482832,3,True
2022-04-30,0.6005813361298196,0.5951420633119304,-0.905667973790214,4,True
2022-05-01,0.5951420633119304,0.5968478019448359,0.2866103302147982,8,True
2022-05-02,0.5968478019448359,0.602422925789877,0.9340947268088318,1,True
2022-05-03,0.602422925789877,0.6078605152035312,0.9026199337491381,3,True
2022-05-04,0.6078605152035312,0.6028993687136174,-0.8161652823020948,2,True
2022-05-05,0.6028993687136174,0.6055274916546336,0.4359140309972087,0,True
2022-05-06,0.6055274916546336,0.5743006023424679,-5.156973009901932,13,True
2022-05-07,0.5743006023424679,0.5700058199243462,-0.7478282976901118,2,True
2022-05-08,0.5700058199243462,0.564987950721576,-0.8803189419076651,3,True
2022-05-09,0.564987950721576,0.5539921414023956,-1.9462024464658279,5,True
2022-05-10,0.5539921414023956,0.5398766619889316,-2.547956615003888,18,True
2022-05-11,0.5398766619889316,0.5089663940614895,-5.725431400121506,29,True
2022-05-12,0.5089663940614895,0.47193869237670005,-7.2750779062862865,18,True
2022-05-13,0.47193869237670005,0.48793311967618963,3.389090057215083,6,True
2022-05-14,0.48793311967618963,0.46497481155564385,-4.705216185321004,15,True
2022-05-15,0.46497481155564385,0.4931182967988553,6.052690284244244,3,True
2022-05-16,0.4931182967988553,0.4931540612756703,0.007252717460937141,8,True
2022-05-17,0.4931540612756703,0.5046096469472754,2.3229223018000233,4,True
2022-05-18,0.5046096469472754,0.49069217810058047,-2.758066345122634,2,True
2022-05-19,0.49069217810058047,0.49733313198271845,1.3533849077938198,8,True
2022-05-20,0.49733313198271845,0.509538400454225,2.4541434476419877,1,True
2022-05-21,0.509538400454225,0.5102317839936117,0.13608072301685148,0,True
2022-05-22,0.5102317839936117,0.5089275352432441,-0.25561887582917775,1,True
2022-05-23,0.5089275352432441,0.5079130528793137,-0.19933729139759437,4,True
2022-05-24,0.5079130528793137,0.4752964900708801,-6.421682337859435,13,True
2022-05-25,0.4752964900708801,0.47061572385212325,-0.9848097590745564,1,True
2022-05-26,0.47061572385212325,0.46371501387760244,-1.4663152174424932,13,True
2022-05-27,0.46371501387760244,0.4485390396254415,-3.2726941759463113,5,True
2022-05-28,0.4485390396254415,0.45028344134589243,0.3889074453603092,1,True
2022-05-29,0.45028344134589243,0.4601064318677214,2.1815127139625856,3,True
2022-05-30,0.4601064318677214,0.46865326812479907,1.8575780873967274,0,True
2022-05-31,0.46865326812479907,0.462715078602129,-1.2670752401728214,8,True
2022-06-01,0.462715078602129,0.4562104091444762,-1.4057612899288974,5,True
2022-06-02,0.4562104091444762,0.44933620071498576,-1.5068065725158508,11,True
2022-06-03,0.44933620071498576,0.4511966447788059,0.4140427726187612,0,True
2022-06-04,0.4511966447788059,0.4511966447788059,0.0,0,False
2022-06-05,0.4511966447788059,0.4511966447788059,0.0,0,False
2022-06-06,0.4511966447788059,0.45286782293758154,0.3703879845105895,1,True
2022-06-07,0.45286782293758154,0.447307353866648,-1.2278348757182367,4,True
2022-06-08,0.447307353866648,0.4539962190854714,1.4953622293492286,6,True
2022-06-09,0.4539962190854714,0.45308189552465206,-0.20139453202080437,5,True
2022-06-10,0.45308189552465206,0.44609524669939155,-1.5420278087188266,6,True
2022-06-11,0.44609524669939155,0.44272158596833794,-0.7562646667981676,6,True
2022-06-12,0.44272158596833794,0.43671789305894215,-1.356087685732399,15,True
2022-06-13,0.43671789305894215,0.4015813359934352,-8.045595938237572,15,True
2022-06-14,0.4015813359934352,0.41903137306593047,4.345330698531402,4,True
2022-06-15,0.41903137306593047,0.41500306412158866,-0.9613382680317861,8,True
2022-06-16,0.41500306412158866,0.4170883337699447,0.5024709041052011,7,True
2022-06-17,0.4170883337699447,0.4153229076206958,-0.4232739221669668,2,True
2022-06-18,0.4153229076206958,0.40921389277774767,-1.4709072701877823,8,True
2022-06-19,0.40921389277774767,0.4083226005478235,-0.21780595567615357,3,True
2022-06-20,0.4083226005478235,0.4135780621514494,1.2870856515350582,2,True
2022-06-21,0.4135780621514494,0.41698872600962295,0.8246723340283424,0,True
2022-06-22,0.41698872600962295,0.4167505493902992,-0.05711823952723183,8,True
2022-06-23,0.4167505493902992,0.41048015265044285,-1.5045923152422591,1,True
2022-06-24,0.41048015265044285,0.4064025606693047,-0.9933712884312218,2,True
2022-06-25,0.4064025606693047,0.4049873929829151,-0.34821820119906866,4,True
2022-06-26,0.4049873929829151,0.4085135284936178,0.8706778462240772,0,True
2022-06-27,0.4085135284936178,0.40633649841164754,-0.5329150517971781,5,True
2022-06-28,0.40633649841164754,0.40405742864710803,-0.5608823655882,3,True
2022-06-29,0.40405742864710803,0.40641396098751104,0.5832171798680452,5,True
2022-06-30,0.40641396098751104,0.399960345918383,-1.5879412836721896,4,True
2022-07-01,0.399960345918383,0.40938199306444223,2.3556453138936506,1,True
2022-07-02,0.40938199306444223,0.40816810861698266,-0.2965163265665427,2,True
2022-07-03,0.40816810861698266,0.4055924796361347,-0.6310216125348656,3,True
2022-07-04,0.4055924796361347,0.40716967760043576,0.38886272391343013,0,True
2022-07-05,0.40716967760043576,0.40739864730966346,0.056234469761373695,1,True
2022-07-06,0.40739864730966346,0.4083188795636152,0.2258800464922217,0,True
2022-07-07,0.4083188795636152,0.4083188795636152,0.0,0,False
2022-07-08,0.4083188795636152,0.4083188795636152,0.0,0,False
2022-07-09,0.4083188795636152,0.4083188795636152,0.0,0,False
2022-07-10,0.4083188795636152,0.4083188795636152,0.0,0,False
2022-07-11,0.4083188795636152,0.40628658573760934,-0.4977222283176874,1,True
2022-07-12,0.40628658573760934,0.40898420352462755,0.6639691985204754,2,True
2022-07-13,0.40898420352462755,0.41339561702378735,1.0786268665494259,6,True
2022-07-14,0.41339561702378735,0.4182535978971298,1.1751408755412474,0,True
2022-07-15,0.4182535978971298,0.4182535978971298,0.0,0,False
2022-07-16,0.4182535978971298,0.4182535978971298,0.0,0,False
2022-07-17,0.4182535978971298,0.4182535978971298,0.0,0,False
2022-07-18,0.4182535978971298,0.41914636847981185,0.21345197917499448,1,True
2022-07-19,0.41914636847981185,0.41940267798033415,0.06115035696285798,4,True
2022-07-20,0.41940267798033415,0.4132968630751015,-1.455835936631511,2,True
2022-07-21,0.4132968630751015,0.4019728932188692,-2.739911881250978,8,True
2022-07-22,0.4019728932188692,0.4062814176684392,1.0718445254028763,0,True
2022-07-23,0.4062814176684392,0.408072108261913,0.4407512910017175,3,True
2022-07-24,0.408072108261913,0.4082720409633266,0.04899445401087554,3,True
2022-07-25,0.4082720409633266,0.40895601888456085,0.1675299439120037,1,True
2022-07-26,0.40895601888456085,0.4056467329969117,-0.8092033702488011,1,True
2022-07-27,0.4056467329969117,0.40337997340863596,-0.5588013914296641,1,True
2022-07-28,0.40337997340863596,0.40211046628825226,-0.31471743866114954,0,True
2022-07-29,0.40211046628825226,0.4038841773976412,0.4411004582301592,4,True
2022-07-30,0.4038841773976412,0.4066804577834344,0.6923470990645386,2,True
2022-07-31,0.4066804577834344,0.40225333401440555,-1.0886000751445968,6,True
2022-08-01,0.40225333401440555,0.39778813828203274,-1.110045673906812,2,True
2022-08-02,0.39778813828203274,0.39108362388980744,-1.685448545846735,6,True
2022-08-03,0.39108362388980744,0.3922801669303771,0.30595580266659095,2,True
2022-08-04,0.3922801669303771,0.39042496474678273,-0.472927856157368,0,True
2022-08-05,0.39042496474678273,0.39464284368399083,1.0803302345032462,2,True
2022-08-06,0.39464284368399083,0.3940826806640241,-0.14194176555633042,0,True
2022-08-07,0.3940826806640241,0.3946677898302746,0.14847370741202237,2,True
2022-08-08,0.3946677898302746,0.39515201386513427,0.12269155156237055,0,True
2022-08-09,0.39515201386513427,0.39377507216497126,-0.34845873280376916,6,True
2022-08-10,0.39377507216497126,0.41782537329989644,6.107624081610052,2,True
2022-08-11,0.41782537329989644,0.41790161086650646,0.018246274994715428,3,True
2022-08-12,0.41790161086650646,0.41042019789468676,-1.7902331020708928,4,True
2022-08-13,0.41042019789468676,0.4088332461914683,-0.38666510843251567,0,True
2022-08-14,0.4088332461914683,0.4088332461914683,0.0,0,False
2022-08-15,0.4088332461914683,0.406791688970223,-0.499361840130097,1,True
2022-08-16,0.406791688970223,0.4027514268184963,-0.9932017445967167,2,True
2022-08-17,0.4027514268184963,0.4007487447884616,-0.49725013908820115,1,True
2022-08-18,0.4007487447884616,0.39875433179356695,-0.4976716760391686,1,True
2022-08-19,0.39875433179356695,0.3869952252735399,-2.9489601948988198,12,True
2022-08-20,0.3869952252735399,0.38838781407357703,0.3598465069053036,2,True
2022-08-21,0.38838781407357703,0.3920531732745751,0.9437369217520697,1,True
2022-08-22,0.3920531732745751,0.3902079021085434,-0.4706685959507295,0,True
2022-08-23,0.3902079021085434,0.3902079021085434,0.0,0,False
2022-08-24,0.3902079021085434,0.3902079021085434,0.0,0,False
2022-08-25,0.3902079021085434,0.3888372846955734,-0.35125311547092863,1,True
2022-08-26,0.3888372846955734,0.38874820648410713,-0.022908865731841033,1,True
2022-08-27,0.38874820648410713,0.3781661904338221,-2.7220745649196076,6,True
2022-08-28,0.3781661904338221,0.377075225071037,-0.28848833935513074,1,True
2022-08-29,0.377075225071037,0.37544509535231163,-0.4323088896700411,1,True
2022-08-30,0.37544509535231163,0.3735795087191446,-0.4968999878441349,1,True
2022-08-31,0.3735795087191446,0.37275910167617005,-0.21960707796511159,2,True
2022-09-01,0.37275910167617005,0.36693599218909795,-1.5621642666503788,2,True
2022-09-02,0.36693599218909795,0.36700495737153305,0.018794880824768434,0,True
2022-09-03,0.36700495737153305,0.36700495737153305,0.0,0,False
2022-09-04,0.36700495737153305,0.36700495737153305,0.0,0,False
2022-09-05,0.36700495737153305,0.36700495737153305,0.0,0,False
2022-09-06,0.36700495737153305,0.3651787703949442,-0.49759190983901247,1,True
2022-09-07,0.3651787703949442,0.36211709638309203,-0.8384041625806748,5,True
2022-09-08,0.36211709638309203,0.36039594999648766,-0.4753010569773064,2,True
2022-09-09,0.36039594999648766,0.35999910634501314,-0.11011323836419562,0,True
2022-09-10,0.35999910634501314,0.35912953746224496,-0.24154751149154663,2,True
2022-09-11,0.35912953746224496,0.35993143436409936,0.22328904147537187,0,True
2022-09-12,0.35993143436409936,0.35993143436409936,0.0,0,False
2022-09-13,0.35993143436409936,0.35207160242610347,-2.1837025576502023,6,True
2022-09-14,0.35207160242610347,0.3583963963310912,1.796451023429313,4,True
2022-09-15,0.3583963963310912,0.35666663225649325,-0.48263991834337494,3,True
2022-09-16,0.35666663225649325,0.34857177339679024,-2.269586815141622,3,True
2022-09-17,0.34857177339679024,0.3468367551734615,-0.49775063724213364,1,True
2022-09-18,0.3468367551734615,0.3468367551734615,0.0,0,False
2022-09-19,0.3468367551734615,0.35310424625252185,1.8070435112696792,8,True
2022-09-20,0.35310424625252185,0.3540150149612813,0.2579319615737763,0,True
2022-09-21,0.3540150149612813,0.3540150149612813,0.0,0,False
2022-09-22,0.3540150149612813,0.3543847061204338,0.10442810150099735,2,True
2022-09-23,0.3543847061204338,0.35080930738299887,-1.0089032273926324,3,True
2022-09-24,0.35080930738299887,0.3508547351577726,0.012949421186281285,0,True
2022-09-25,0.3508547351577726,0.3508547351577726,0.0,0,False
2022-09-26,0.3508547351577726,0.3508547351577726,0.0,0,False
2022-09-27,0.3508547351577726,0.3508547351577726,0.0,0,False
2022-09-28,0.3508547351577726,0.3508547351577726,0.0,0,False
2022-09-29,0.3508547351577726,0.3508547351577726,0.0,0,False
2022-09-30,0.3508547351577726,0.34961210606302345,-0.3541719607091376,1,True
2022-10-01,0.34961210606302345,0.3491012869219266,-0.14611025540539613,0,True
2022-10-02,0.3491012869219266,0.3491012869219266,0.0,0,False
2022-10-03,0.3491012869219266,0.3491012869219266,0.0,0,False
2022-10-04,0.3491012869219266,0.3491012869219266,0.0,0,False
2022-10-05,0.3491012869219266,0.3491012869219266,0.0,0,False
2022-10-06,0.3491012869219266,0.3491012869219266,0.0,0,False
2022-10-07,0.3491012869219266,0.3491012869219266,0.0,0,False
2022-10-08,0.3491012869219266,0.347361752588954,-0.4982892925747384,1,True
2022-10-09,0.347361752588954,0.347361752588954,0.0,0,False
2022-10-10,0.347361752588954,0.3479081898692568,0.15731072181381922,1,True
2022-10-11,0.3479081898692568,0.35325762747856865,1.5376003684541395,5,True
2022-10-12,0.35325762747856865,0.35149692116785997,-0.49841989917556173,2,True
2022-10-13,0.35149692116785997,0.3518373113323158,0.09684015533475421,1,True
2022-10-14,0.3518373113323158,0.3574617768841818,1.5985983779172264,0,True
2022-10-15,0.3574617768841818,0.3574617768841818,0.0,0,False
2022-10-16,0.3574617768841818,0.3574617768841818,0.0,0,False
2022-10-17,0.3574617768841818,0.3574617768841818,0.0,0,False
2022-10-18,0.3574617768841818,0.3574617768841818,0.0,0,False
2022-10-19,0.3574617768841818,0.3574617768841818,0.0,0,False
2022-10-20,0.3574617768841818,0.3602031295418948,0.7668939268438812,2,True
2022-10-21,0.3602031295418948,0.3561440868611168,-1.1268760174128034,0,True
2022-10-22,0.3561440868611168,0.3561440868611168,0.0,0,False
2022-10-23,0.3561440868611168,0.3561440868611168,0.0,0,False
2022-10-24,0.3561440868611168,0.3561440868611168,0.0,0,False
2022-10-25,0.3561440868611168,0.3543671280015286,-0.49894380537087724,1,True
2022-10-26,0.3543671280015286,0.3543671280015286,0.0,0,False
2022-10-27,0.3543671280015286,0.3543671280015286,0.0,0,False
2022-10-28,0.3543671280015286,0.3526020520790648,-0.4980924535574194,1,True
2022-10-29,0.3526020520790648,0.3526020520790648,0.0,0,False
2022-10-30,0.3526020520790648,0.3451945792028491,-2.1008025428492783,6,True
2022-10-31,0.3451945792028491,0.34618611155957635,0.2872386811568761,3,True
2022-11-01,0.34618611155957635,0.34533167386102015,-0.24681455148704012,1,True
2022-11-02,0.34533167386102015,0.3481508552256076,0.8163691830139097,3,True
2022-11-03,0.3481508552256076,0.36016448797676653,3.4506974694558323,6,True
2022-11-04,0.36016448797676653,0.36343851508200253,0.9090366248010628,4,True
2022-11-05,0.36343851508200253,0.35937220255327706,-1.1188446903619975,5,True
2022-11-06,0.35937220255327706,0.35755777891779644,-0.5048870287099216,2,True
2022-11-07,0.35755777891779644,0.3512408774721035,-1.766679909695168,7,True
2022-11-08,0.3512408774721035,0.3382095883200498,-3.7100719158431716,12,True
2022-11-09,0.3382095883200498,0.3092617588417019,-8.559139207772681,20,True
2022-11-10,0.3092617588417019,0.31447330937097556,1.6851584071670755,15,True
2022-11-11,0.31447330937097556,0.3134443820082674,-0.32719068106805693,10,True
2022-11-12,0.3134443820082674,0.3078305807530134,-1.791003947585812,6,True
2022-11-13,0.3078305807530134,0.30823771767901964,0.1322600649390715,3,True
2022-11-14,0.30823771767901964,0.30456594717592844,-1.1912138886632784,10,True
2022-11-15,0.30456594717592844,0.30468423077388657,0.03883677707732236,2,True
2022-11-16,0.30468423077388657,0.3014931138948552,-1.047352162245485,2,True
2022-11-17,0.3014931138948552,0.29974304658060685,-0.5804667614593306,3,True
2022-11-18,0.29974304658060685,0.3009794243378245,0.41247921221923,0,True
2022-11-19,0.3009794243378245,0.3007021559804007,-0.09212203061182977,3,True
2022-11-20,0.3007021559804007,0.295401621703176,-1.762719079929087,3,True
2022-11-21,0.295401621703176,0.2842286531161041,-3.7822976470652803,8,True
2022-11-22,0.2842286531161041,0.2874359919593015,1.1284361404221954,5,True
2022-11-23,0.2874359919593015,0.2941017007097309,2.3190236911504236,1,True
2022-11-24,0.2941017007097309,0.29048333198908566,-1.230312069570949,2,True
2022-11-25,0.29048333198908566,0.29760533000351713,2.4517751038118263,3,True
2022-11-26,0.29760533000351713,0.29755582963031846,-0.016632892024515122,0,True
2022-11-27,0.29755582963031846,0.29755582963031846,0.0,0,False
2022-11-28,0.29755582963031846,0.29690186363717225,-0.21977925754594896,6,True
2022-11-29,0.29690186363717225,0.29758306668462325,0.22943710730070066,0,True
2022-11-30,0.29758306668462325,0.29758306668462325,0.0,0,False
2022-12-01,0.29758306668462325,0.2977638638149587,0.06075518084738274,1,True
2022-12-02,0.2977638638149587,0.2973098797534208,-0.15246445815196852,2,True
2022-12-03,0.2973098797534208,0.29725422344767805,-0.018719965104740943,0,True
2022-12-04,0.29725422344767805,0.2942957586294657,-0.995264182926936,2,True
2022-12-05,0.2942957586294657,0.29343658154119195,-0.2919434151123834,2,True
2022-12-06,0.29343658154119195,0.2941909925069721,0.25709506354587575,2,True
2022-12-07,0.2941909925069721,0.2926015392285726,-0.5402793827420815,2,True
2022-12-08,0.2926015392285726,0.2895623060184952,-1.0386935140840992,2,True
2022-12-09,0.2895623060184952,0.2895623060184952,0.0,0,False
2022-12-10,0.2895623060184952,0.2895623060184952,0.0,0,False
2022-12-11,0.2895623060184952,0.2895623060184952,0.0,0,False
2022-12-12,0.2895623060184952,0.28920666812475754,-0.12281912608989032,1,True
2022-12-13,0.28920666812475754,0.28967574527253404,0.16219444413851924,1,True
2022-12-14,0.28967574527253404,0.28956557698608526,-0.03803158816252372,0,True
2022-12-15,0.28956557698608526,0.28956557698608526,0.0,0,False
2022-12-16,0.28956557698608526,0.28996828770439687,0.13907409938127557,5,True
2022-12-17,0.28996828770439687,0.28605521994510963,-1.3494812795792122,7,True
2022-12-18,0.28605521994510963,0.28733613222568,0.4477849699145997,0,True
2022-12-19,0.28733613222568,0.285905162223074,-0.49801255119633625,1,True
2022-12-20,0.285905162223074,0.285905162223074,0.0,0,False
2022-12-21,0.285905162223074,0.285905162223074,0.0,0,False
2022-12-22,0.285905162223074,0.285905162223074,0.0,0,False
2022-12-23,0.285905162223074,0.285905162223074,0.0,0,False
2022-12-24,0.285905162223074,0.285905162223074,0.0,0,False
2022-12-25,0.285905162223074,0.285905162223074,0.0,0,False
2022-12-26,0.285905162223074,0.285905162223074,0.0,0,False
2022-12-27,0.285905162223074,0.285905162223074,0.0,0,False
2022-12-28,0.285905162223074,0.2877505960704597,0.6454706284547029,4,True
2022-12-29,0.2877505960704597,0.282462719712393,-1.83765956709675,0,True
2022-12-30,0.282462719712393,0.28716309976926085,1.6640709477179216,1,True
2022-12-31,0.28716309976926085,0.2884654863719888,0.45353550082669614,0,True
2023-01-01,0.2884654863719888,0.2884654863719888,0.0,0,False
2023-01-02,0.2884654863719888,0.28803262791206696,-0.15005554576593694,1,True
2023-01-03,0.28803262791206696,0.28975793466367994,0.5989969831263986,0,True
2023-01-04,0.28975793466367994,0.28975793466367994,0.0,0,False
2023-01-05,0.28975793466367994,0.28975793466367994,0.0,0,False
2023-01-06,0.28975793466367994,0.28924743201307956,-0.1761824576755444,1,True
2023-01-07,0.28924743201307956,0.29016488898811243,0.31718759563312826,0,True
2023-01-08,0.29016488898811243,0.29016488898811243,0.0,0,False
2023-01-09,0.29016488898811243,0.2901873133457051,0.00772814301235325,1,True
2023-01-10,0.2901873133457051,0.2873921371833355,-0.9632316899531812,5,True
2023-01-11,0.2873921371833355,0.28382191104426896,-1.2422838613670883,3,True
2023-01-12,0.28382191104426896,0.28327357572536493,-0.1931969652683052,0,True
2023-01-13,0.28327357572536493,0.28320458589810815,-0.024354487382072243,1,True
2023-01-14,0.28320458589810815,0.28277485968129207,-0.15173702623964003,5,True
2023-01-15,0.28277485968129207,0.28139769675524334,-0.48701745537099717,1,True
2023-01-16,0.28139769675524334,0.2814427091876135,0.015996020183961512,2,True
2023-01-17,0.2814427091876135,0.28071341284791723,-0.259127813899096,0,True
2023-01-18,0.28071341284791723,0.28071341284791723,0.0,0,False
2023-01-19,0.28071341284791723,0.27524166096192554,-1.949230651460232,8,True
2023-01-20,0.27524166096192554,0.2762305150026639,0.3592675750038854,0,True
2023-01-21,0.2762305150026639,0.2753039180485037,-0.33544337205151376,3,True
2023-01-22,0.2753039180485037,0.27811529668456,1.0211909281875764,2,True
2023-01-23,0.27811529668456,0.276917190556566,-0.4307947611212781,1,True
2023-01-24,0.276917190556566,0.29237941314740823,5.583699068940162,4,True
2023-01-25,0.29237941314740823,0.28725556425121584,-1.7524656886868772,10,True
2023-01-26,0.28725556425121584,0.29817535226807346,3.801419145812557,1,True
2023-01-27,0.29817535226807346,0.2969975239790481,-0.39501195523580224,3,True
2023-01-28,0.2969975239790481,0.30015758075806936,1.064001051821628,0,True
2023-01-29,0.30015758075806936,0.29865936529410936,-0.4991429702278949,1,True
2023-01-30,0.29865936529410936,0.2976509198409318,-0.33765740183118176,5,True
2023-01-31,0.2976509198409318,0.30414514018151617,2.181824381411279,5,True
2023-02-01,0.30414514018151617,0.30198479661398847,-0.7103002093797661,2,True
2023-02-02,0.30198479661398847,0.30198479661398847,0.0,0,False
2023-02-03,0.30198479661398847,0.3040725879859899,0.6913564508580716,4,True
2023-02-04,0.3040725879859899,0.3045331310986881,0.15145828032332442,0,True
2023-02-05,0.3045331310986881,0.3057513187871902,0.4000181143204662,6,True
2023-02-06,0.3057513187871902,0.298637382752645,-2.326706574075854,2,True
2023-02-07,0.298637382752645,0.30090589784382166,0.7596219435982654,0,True
2023-02-08,0.30090589784382166,0.29476657086800473,-2.040281370291852,5,True
2023-02-09,0.29476657086800473,0.28921140602220724,-1.8845979818671754,10,True
2023-02-10,0.28921140602220724,0.27599691250018854,-4.569146737250063,10,True
2023-02-11,0.27599691250018854,0.2748241117459601,-0.424932563050906,2,True
2023-02-12,0.2748241117459601,0.2782855108216927,1.2594961387275339,2,True
2023-02-13,0.2782855108216927,0.2774433526631694,-0.30262378951627644,3,True
2023-02-14,0.2774433526631694,0.2772118992160078,-0.08342367728038091,1,True
2023-02-15,0.2772118992160078,0.27779229527863714,0.20936910149627064,0,True
2023-02-16,0.27779229527863714,0.27779229527863714,0.0,0,False
2023-02-17,0.27779229527863714,0.28098712385713753,1.1500781817205707,1,True
2023-02-18,0.28098712385713753,0.2807651140072649,-0.07901068448442627,1,True
2023-02-19,0.2807651140072649,0.2814708047392802,0.2513455898929928,2,True
2023-02-20,0.2814708047392802,0.28125020921764426,-0.07837243434191121,6,True
2023-02-21,0.28125020921764426,0.28289497765708244,0.5848061212162081,8,True
2023-02-22,0.28289497765708244,0.27628539770663796,-2.336407668027396,5,True
2023-02-23,0.27628539770663796,0.27782504921200285,0.5572685050115211,2,True
2023-02-24,0.27782504921200285,0.2757046126149768,-0.7632272910740978,1,True
2023-02-25,0.2757046126149768,0.2722333567174624,-1.259048901862958,3,True
2023-02-26,0.2722333567174624,0.2709427530567751,-0.47407991300152386,2,True
2023-02-27,0.2709427530567751,0.2701704777463786,-0.28503265050779936,1,True
2023-02-28,0.2701704777463786,0.2676544561654497,-0.9312718406230935,3,True
2023-03-01,0.2676544561654497,0.26615656690398765,-0.5596354654137103,1,True
2023-03-02,0.26615656690398765,0.26483343952696764,-0.4971237014404828,1,True
2023-03-03,0.26483343952696764,0.2641552065130443,-0.2560979516539774,9,True
2023-03-04,0.2641552065130443,0.26536167256028476,0.4567262039489206,0,True
2023-03-05,0.26536167256028476,0.2690873544720284,1.4040015183041321,4,True
2023-03-06,0.2690873544720284,0.26833023537186657,-0.28136554452637963,0,True
2023-03-07,0.26833023537186657,0.26833023537186657,0.0,0,False
2023-03-08,0.26833023537186657,0.26833023537186657,0.0,0,False
2023-03-09,0.26833023537186657,0.26833023537186657,0.0,0,False
2023-03-10,0.26833023537186657,0.25844920775173347,-3.682413055852407,12,True
2023-03-11,0.25844920775173347,0.2533151430221386,-1.9864888634236633,6,True
2023-03-12,0.2533151430221386,0.25462429987339735,0.5168095502069425,0,True
2023-03-13,0.25462429987339735,0.25462429987339735,0.0,0,False
2023-03-14,0.25462429987339735,0.2571246664926025,0.9819827174579965,1,True
2023-03-15,0.2571246664926025,0.2534557884908824,-1.4268868295549741,6,True
2023-03-16,0.2534557884908824,0.2557211959828598,0.8938077545855183,5,True
2023-03-17,0.2557211959828598,0.2540913938186568,-0.6373355786714829,2,True
2023-03-18,0.2540913938186568,0.2601177235555713,2.371717375526461,3,True
2023-03-19,0.2601177235555713,0.26231607660577316,0.8451377400018778,3,True
2023-03-20,0.26231607660577316,0.2676464193033979,2.0320305055627763,5,True
2023-03-21,0.2676464193033979,0.2640461623178856,-1.3451541757527274,2,True
2023-03-22,0.2640461623178856,0.2638421282796833,-0.07727210894156178,0,True
2023-03-23,0.2638421282796833,0.2716122277547421,2.944980593403268,8,True
2023-03-24,0.2716122277547421,0.27090807796903216,-0.2592481905290933,1,True
2023-03-25,0.27090807796903216,0.2695592716620666,-0.4978833843115371,1,True
2023-03-26,0.2695592716620666,0.2695592716620666,0.0,0,False
2023-03-27,0.2695592716620666,0.2682173203853926,-0.4978316154364615,1,True
2023-03-28,0.2682173203853926,0.275320863303454,2.6484281133875243,4,True
2023-03-29,0.275320863303454,0.27568840629203123,0.1334962356892344,1,True
2023-03-30,0.27568840629203123,0.27496153110986876,-0.26365823356115925,2,True
2023-03-31,0.27496153110986876,0.27496153110986876,0.0,0,False
2023-04-01,0.27496153110986876,0.2746231923084598,-0.12304950443187135,1,True
2023-04-02,0.2746231923084598,0.27358851056872985,-0.37676415128397034,0,True
2023-04-03,0.27358851056872985,0.27358851056872985,0.0,0,False
2023-04-04,0.27358851056872985,0.2708688448162319,-0.9940716248808656,2,True
2023-04-05,0.2708688448162319,0.26956384452745935,-0.4817830893980912,2,True
2023-04-06,0.26956384452745935,0.2632086521443696,-2.3575833748143316,5,True
2023-04-07,0.2632086521443696,0.2611225606915025,-0.7925618842206106,1,True
2023-04-08,0.2611225606915025,0.26186001700901623,0.2824176951852664,1,True
2023-04-09,0.26186001700901623,0.2619450014707332,0.03245415725838807,0,True
2023-04-10,0.2619450014707332,0.2619450014707332,0.0,0,False
2023-04-11,0.2619450014707332,0.2619450014707332,0.0,0,False
2023-04-12,0.2619450014707332,0.2637204330890861,0.6777879357821259,1,True
2023-04-13,0.2637204330890861,0.26389201826342445,0.06506328399680239,0,True
2023-04-14,0.26389201826342445,0.2665404724486344,1.0036128423430268,2,True
2023-04-15,0.2665404724486344,0.2652815918717226,-0.4723037238385519,1,True
2023-04-16,0.2652815918717226,0.26463927529826514,-0.24212632656700483,1,True
2023-04-17,0.26463927529826514,0.26174302797393817,-1.0944132616229063,3,True
2023-04-18,0.26174302797393817,0.2613308708398714,-0.1574663276638688,0,True
2023-04-19,0.2613308708398714,0.25594505975275156,-2.0609165192810086,10,True
2023-04-20,0.25594505975275156,0.2511967787345192,-1.8551954168677165,0,True
2023-04-21,0.2511967787345192,0.24994367953769522,-0.49885161869385186,1,True
2023-04-22,0.24994367953769522,0.24955293416992058,-0.15633336617968396,1,True
2023-04-23,0.24955293416992058,0.24958642819761762,0.013421612456077092,0,True
2023-04-24,0.24958642819761762,0.24958642819761762,0.0,0,False
2023-04-25,0.24958642819761762,0.24958642819761762,0.0,0,False
2023-04-26,0.24958642819761762,0.24958642819761762,0.0,0,False
2023-04-27,0.24958642819761762,0.24590749008741153,-1.4740136860699748,12,True
2023-04-28,0.24590749008741153,0.2505324020997717,1.8807528029000542,0,True
2023-04-29,0.2505324020997717,0.2492845981433003,-0.49806090789583646,1,True
2023-04-30,0.2492845981433003,0.2492845981433003,0.0,0,False
2023-05-01,0.2492845981433003,0.2492845981433003,0.0,0,False
2023-05-02,0.2492845981433003,0.2492845981433003,0.0,0,False
2023-05-03,0.2492845981433003,0.2492845981433003,0.0,0,False
2023-05-04,0.2492845981433003,0.2492845981433003,0.0,0,False
2023-05-05,0.2492845981433003,0.2492845981433003,0.0,0,False
2023-05-06,0.2492845981433003,0.24680725375886245,-0.993781566486418,2,True
2023-05-07,0.24680725375886245,0.24680725375886245,0.0,0,False
2023-05-08,0.24680725375886245,0.2531333407820776,2.56316900207314,6,True
2023-05-09,0.2531333407820776,0.24871422579586988,-1.7457656792876364,4,True
2023-05-10,0.24871422579586988,0.24692513914583497,-0.7193342657863422,2,True
2023-05-11,0.24692513914583497,0.24407760789489624,-1.1531961714343564,5,True
2023-05-12,0.24407760789489624,0.24182661748335585,-0.9222437203291967,0,True
2023-05-13,0.24182661748335585,0.24061920095159675,-0.49929017091850936,1,True
2023-05-14,0.24061920095159675,0.24061920095159675,0.0,0,False
2023-05-15,0.24061920095159675,0.24061920095159675,0.0,0,False
2023-05-16,0.24061920095159675,0.24061920095159675,0.0,0,False
2023-05-17,0.24061920095159675,0.24061920095159675,0.0,0,False
2023-05-18,0.24061920095159675,0.2394188797221136,-0.49884681884743154,1,True
2023-05-19,0.2394188797221136,0.2394188797221136,0.0,0,False
2023-05-20,0.2394188797221136,0.2394188797221136,0.0,0,False
2023-05-21,0.2394188797221136,0.2394188797221136,0.0,0,False
2023-05-22,0.2394188797221136,0.23822434324778605,-0.49893161128896635,1,True
2023-05-23,0.23822434324778605,0.23822434324778605,0.0,0,False
2023-05-24,0.23822434324778605,0.2370373802111047,-0.498254301176404,1,True
2023-05-25,0.2370373802111047,0.23752612153137184,0.2061874459766022,1,True
2023-05-26,0.23752612153137184,0.23855967256027502,0.4351315224783159,1,True
2023-05-27,0.23855967256027502,0.23912429142304573,0.23667825190698544,2,True
2023-05-28,0.23912429142304573,0.23912429142304573,0.0,0,False
2023-05-29,0.23912429142304573,0.2402214384840153,0.4588187400119015,1,True
2023-05-30,0.2402214384840153,0.24076309451781047,0.22548197080720644,2,True
2023-05-31,0.24076309451781047,0.2394227691895545,-0.5566988291707764,2,True
2023-06-01,0.2394227691895545,0.23979029234555646,0.15350384478720613,0,True
2023-06-02,0.23979029234555646,0.2451783453321428,2.2469854529480804,2,True
2023-06-03,0.2451783453321428,0.24755201911645758,0.9681416933861486,3,True
2023-06-04,0.24755201911645758,0.2444055630950775,-1.2710282196889966,4,True
2023-06-05,0.2444055630950775,0.24686009985195156,1.004288415447907,1,True
2023-06-06,0.24686009985195156,0.23953611863290183,-2.9668550014530948,12,True
2023-06-07,0.23953611863290183,0.23798810886633728,-0.646253172757183,2,True
2023-06-08,0.23798810886633728,0.23442457411203788,-1.497358322344089,3,True
2023-06-09,0.23442457411203788,0.23341668785563108,-0.4299405300082104,1,True
2023-06-10,0.23341668785563108,0.23973562771482523,2.707149997391123,8,True
2023-06-11,0.23973562771482523,0.24017224436665568,0.1821242240847898,0,True
2023-06-12,0.24017224436665568,0.24017224436665568,0.0,0,False
2023-06-13,0.24017224436665568,0.23927044962512856,-0.3754783338537737,2,True
2023-06-14,0.23927044962512856,0.2392517523472541,-0.007814286262153303,0,True
2023-06-15,0.2392517523472541,0.23875792723357347,-0.20640396939031191,7,True
2023-06-16,0.23875792723357347,0.24275456717879373,1.6739297377591944,0,True
2023-06-17,0.24275456717879373,0.24327756157921415,0.21544163164404218,1,True
2023-06-18,0.24327756157921415,0.24371806627809786,0.18107082955953757,0,True
2023-06-19,0.24371806627809786,0.2454973004456988,0.7300378649692352,1,True
2023-06-20,0.2454973004456988,0.24584752425573878,0.14265892513039002,1,True
2023-06-21,0.24584752425573878,0.24584752425573878,0.0,0,False
2023-06-22,0.24584752425573878,0.24426084847293986,-0.6453901814152063,4,True
2023-06-23,0.24426084847293986,0.2425706302683665,-0.6919726248149072,0,True
2023-06-24,0.2425706302683665,0.2425752680416465,0.0019119269611733714,1,True
2023-06-25,0.2425752680416465,0.24014844252351975,-1.000442270029811,7,True
2023-06-26,0.24014844252351975,0.2410116335282794,0.359440600858818,0,True
2023-06-27,0.2410116335282794,0.2410116335282794,0.0,0,False
2023-06-28,0.2410116335282794,0.2410116335282794,0.0,0,False
2023-06-29,0.2410116335282794,0.2405258925940568,-0.20154252602316847,2,True
2023-06-30,0.2405258925940568,0.2393323406385817,-0.49622597492632314,9,True
2023-07-01,0.2393323406385817,0.2412464474376775,0.7997693892888069,2,True
2023-07-02,0.2412464474376775,0.24117396313387507,-0.030045749718721204,0,True
2023-07-03,0.24117396313387507,0.24117396313387507,0.0,0,False
2023-07-04,0.24117396313387507,0.24072268751802622,-0.18711622514505644,1,True
2023-07-05,0.24072268751802622,0.23757217865287997,-1.3087710583616352,2,True
2023-07-06,0.23757217865287997,0.2376408143314865,0.02889045299652171,4,True
2023-07-07,0.2376408143314865,0.23620340213162966,-0.6048675619549915,0,True
2023-07-08,0.23620340213162966,0.23620340213162966,0.0,0,False
2023-07-09,0.23620340213162966,0.23620340213162966,0.0,0,False
2023-07-10,0.23620340213162966,0.23616313739698014,-0.017046636198359,1,True
2023-07-11,0.23616313739698014,0.23535531517751146,-0.3420610974145255,0,True
2023-07-12,0.23535531517751146,0.2346615457325216,-0.2947753461469915,1,True
2023-07-13,0.2346615457325216,0.2343948914675271,-0.1136335585628756,0,True
2023-07-14,0.2343948914675271,0.2332257102036514,-0.4988083385928488,1,True
2023-07-15,0.2332257102036514,0.234669827511412,0.619193015426811,7,True
2023-07-16,0.234669827511412,0.23507171788990694,0.17125779771385297,2,True
2023-07-17,0.23507171788990694,0.23347939920535388,-0.6773756957435428,3,True
2023-07-18,0.23347939920535388,0.22978539585737384,-1.5821538690576342,2,True
2023-07-19,0.22978539585737384,0.2286409392141182,-0.498054560423844,1,True
2023-07-20,0.2286409392141182,0.22732995903611458,-0.5733794579875773,2,True
2023-07-21,0.22732995903611458,0.2271807794679023,-0.06562248497505863,0,True
2023-07-22,0.2271807794679023,0.2271807794679023,0.0,0,False
2023-07-23,0.2271807794679023,0.2271807794679023,0.0,0,False
2023-07-24,0.2271807794679023,0.22187447892124038,-2.335717202436849,7,True
2023-07-25,0.22187447892124038,0.22054753274377698,-0.5980616535597227,0,True
2023-07-26,0.22054753274377698,0.22054753274377698,0.0,0,False
2023-07-27,0.22054753274377698,0.22054753274377698,0.0,0,False
2023-07-28,0.22054753274377698,0.22054753274377698,0.0,0,False
2023-07-29,0.22054753274377698,0.22054753274377698,0.0,0,False
2023-07-30,0.22054753274377698,0.22054753274377698,0.0,0,False
2023-07-31,0.22054753274377698,0.21944974826683114,-0.4977541409276087,1,True
2023-08-01,0.21944974826683114,0.2214063477574568,0.8915934085495625,3,True
2023-08-02,0.2214063477574568,0.22350918754006888,0.949764902366601,0,True
2023-08-03,0.22350918754006888,0.22350918754006888,0.0,0,False
2023-08-04,0.22350918754006888,0.22350918754006888,0.0,0,False
2023-08-05,0.22350918754006888,0.22350918754006888,0.0,0,False
2023-08-06,0.22350918754006888,0.2238512424582108,0.15303841506766336,1,True
2023-08-07,0.2238512424582108,0.22114239943778752,-1.2101085482824514,3,True
2023-08-08,0.22114239943778752,0.2161798632713857,-2.2440455466785747,5,True
2023-08-09,0.2161798632713857,0.21505671262906997,-0.5195445243231345,0,True
2023-08-10,0.21505671262906997,0.21398553498996298,-0.49809077150479997,1,True
2023-08-11,0.21398553498996298,0.21398553498996298,0.0,0,False
2023-08-12,0.21398553498996298,0.21398553498996298,0.0,0,False
2023-08-13,0.21398553498996298,0.21935484913075937,2.509194904715506,2,True
2023-08-14,0.21935484913075937,0.2130603344377665,-2.869558032537789,5,True
2023-08-15,0.2130603344377665,0.21134346493567863,-0.8058137647340313,2,True
2023-08-16,0.21134346493567863,0.21119620673891187,-0.06967719432988684,6,True
2023-08-17,0.21119620673891187,0.2108356558662513,-0.1707184415041585,7,True
2023-08-18,0.2108356558662513,0.21914497512649886,3.9411356803513264,7,True
2023-08-19,0.21914497512649886,0.2239179585295775,2.1780026671035957,2,True
2023-08-20,0.2239179585295775,0.2233883172121474,-0.23653364871140115,1,True
2023-08-21,0.2233883172121474,0.22256472752118162,-0.368680735521032,1,True
2023-08-22,0.22256472752118162,0.22182612333097904,-0.33186039783967836,3,True
2023-08-23,0.22182612333097904,0.22395649903031994,0.9603808908305478,1,True
2023-08-24,0.22395649903031994,0.2241227339379419,0.07422642715961825,0,True
2023-08-25,0.2241227339379419,0.22259654433355358,-0.6809615328050245,8,True
2023-08-26,0.22259654433355358,0.22342807739953033,0.37356063566320596,0,True
2023-08-27,0.22342807739953033,0.22342807739953033,0.0,0,False
2023-08-28,0.22342807739953033,0.22120772186907486,-0.9937674603380575,2,True
2023-08-29,0.22120772186907486,0.22307261141299928,0.8430490256701617,3,True
2023-08-30,0.22307261141299928,0.21964944191299157,-1.5345539187103574,3,True
2023-08-31,0.21964944191299157,0.2217015786690115,0.9342781562053037,3,True
2023-09-01,0.2217015786690115,0.21865584413524883,-1.373799208849924,3,True
2023-09-02,0.21865584413524883,0.21398720700120685,-2.1351531455771178,4,True
2023-09-03,0.21398720700120685,0.21168822222761965,-1.0743561756821451,3,True
2023-09-04,0.21168822222761965,0.209740303450656,-0.9201828786058464,7,True
2023-09-05,0.209740303450656,0.21221200617155622,1.1784586368168926,2,True
2023-09-06,0.21221200617155622,0.21046661694857696,-0.8224743050439187,4,True
2023-09-07,0.21046661694857696,0.21170456336464688,0.5881913407542294,3,True
2023-09-08,0.21170456336464688,0.20965425688366762,-0.9684753358139675,8,True
2023-09-09,0.20965425688366762,0.21236720024610528,1.294008241360456,7,True
2023-09-10,0.21236720024610528,0.2055058313668139,-3.2308985904320187,7,True
2023-09-11,0.2055058313668139,0.20321050073747812,-1.116917517167082,1,True
2023-09-12,0.20321050073747812,0.202548949765457,-0.32554959985839904,2,True
2023-09-13,0.202548949765457,0.20144657499056953,-0.5442510445815563,2,True
2023-09-14,0.20144657499056953,0.20087894417954466,-0.2817773452099881,4,True
2023-09-15,0.20087894417954466,0.2017739286139806,0.4455342186765021,0,True
2023-09-16,0.2017739286139806,0.2013631408905939,-0.2035881078434998,6,True
2023-09-17,0.2013631408905939,0.20200341557639875,0.3179701523193579,4,True
2023-09-18,0.20200341557639875,0.19714569855713426,-2.4047697438201343,4,True
2023-09-19,0.19714569855713426,0.19936685806888677,1.1266588761553953,1,True
2023-09-20,0.19936685806888677,0.20098568499796518,0.8119839700333031,3,True
2023-09-21,0.20098568499796518,0.19994970786013255,-0.5154482210228628,2,True
2023-09-22,0.19994970786013255,0.20394670294267975,1.9990002112646899,1,True
2023-09-23,0.20394670294267975,0.20255041393776843,-0.6846342621698365,1,True
2023-09-24,0.20255041393776843,0.201541890209226,-0.49791245000975204,1,True
2023-09-25,0.201541890209226,0.20141274570154863,-0.06407824574002907,1,True
2023-09-26,0.20141274570154863,0.20169342424432657,0.13935490616558965,1,True
2023-09-27,0.20169342424432657,0.1994589502758933,-1.1078566278524216,1,True
2023-09-28,0.1994589502758933,0.20030108259295634,0.4222083370529095,2,True
2023-09-29,0.20030108259295634,0.19784099957486298,-1.2281925720255105,2,True
2023-09-30,0.19784099957486298,0.19784099957486298,0.0,0,False
2023-10-01,0.19784099957486298,0.1976057852911254,-0.11889056577909507,1,True
2023-10-02,0.1976057852911254,0.19945847554939808,0.9375688346083377,1,True
2023-10-03,0.19945847554939808,0.19849876621275325,-0.4811574609709379,2,True
2023-10-04,0.19849876621275325,0.1935060532393065,-2.5152362751189594,7,True
2023-10-05,0.1935060532393065,0.19148507947801185,-1.044398212595099,2,True
2023-10-06,0.19148507947801185,0.19147863796015316,-0.003363978998394135,0,True
2023-10-07,0.19147863796015316,0.19052533539429195,-0.49786366563752127,1,True
2023-10-08,0.19052533539429195,0.19000875675642445,-0.2711338294187682,1,True
2023-10-09,0.19000875675642445,0.1860787271816314,-2.068341292202136,5,True
2023-10-10,0.1860787271816314,0.1839474699886376,-1.1453524136122772,1,True
2023-10-11,0.1839474699886376,0.1839474699886376,0.0,0,False
2023-10-12,0.1839474699886376,0.1839474699886376,0.0,0,False
2023-10-13,0.1839474699886376,0.1839474699886376,0.0,0,False
2023-10-14,0.1839474699886376,0.1839474699886376,0.0,0,False
2023-10-15,0.1839474699886376,0.18392510671474,-0.012157424018377494,1,True
2023-10-16,0.18392510671474,0.18463025483709,0.38338872541401336,2,True
2023-10-17,0.18463025483709,0.18559160400920943,0.5206888616211325,2,True
2023-10-18,0.18559160400920943,0.18314534105593766,-1.3180892348720552,4,True
2023-10-19,0.18314534105593766,0.17889333328376464,-2.3216576232066632,5,True
2023-10-20,0.17889333328376464,0.178269899385734,-0.3484947631009372,0,True
2023-10-21,0.178269899385734,0.17835651556994267,0.048587105566966216,2,True
2023-10-22,0.17835651556994267,0.17973443896863264,0.7725668974227107,1,True
2023-10-23,0.17973443896863264,0.17973443896863264,0.0,0,False
2023-10-24,0.17973443896863264,0.17656898200703086,-1.7611855467244197,8,True
2023-10-25,0.17656898200703086,0.18173776098562758,2.9273425716363377,6,True
2023-10-26,0.18173776098562758,0.18568087451535228,2.1696721189585544,6,True
2023-10-27,0.18568087451535228,0.1842529210091263,-0.7690363964264479,6,True
2023-10-28,0.1842529210091263,0.18514965666361502,0.4866873477920697,2,True
2023-10-29,0.18514965666361502,0.18533291454145584,0.0989782434075881,0,True
2023-10-30,0.18533291454145584,0.18457545134599512,-0.4087040865540792,2,True
2023-10-31,0.18457545134599512,0.18001787219024168,-2.469222815124017,6,True
2023-11-01,0.18001787219024168,0.17949450991527643,-0.2907279530624418,5,True
2023-11-02,0.17949450991527643,0.17862469249400934,-0.4845927720450449,4,True
2023-11-03,0.17862469249400934,0.1756245518313542,-1.6795777900391662,2,True
2023-11-04,0.1756245518313542,0.1740341339967459,-0.9055783021359898,4,True
2023-11-05,0.1740341339967459,0.17061889461805524,-1.9623962841418874,6,True
2023-11-06,0.17061889461805524,0.16797411352141497,-1.550110321931708,5,True
2023-11-07,0.16797411352141497,0.16474990534388256,-1.9194672976329485,5,True
2023-11-08,0.16474990534388256,0.16545890385552642,0.43034835750828115,0,True
2023-11-09,0.16545890385552642,0.16690406698492014,0.8734272352339367,5,True
2023-11-10,0.16690406698492014,0.1631067334049921,-2.275159406553662,8,True
2023-11-11,0.1631067334049921,0.16129383330984623,-1.111480842819934,7,True
2023-11-12,0.16129383330984623,0.16444127236504916,1.9513697396952967,6,True
2023-11-13,0.16444127236504916,0.16479211940933308,0.21335704792229127,4,True
2023-11-14,0.16479211940933308,0.1648268976129686,0.021104288093498624,8,True
2023-11-15,0.1648268976129686,0.1636794947310428,-0.696125995539898,3,True
2023-11-16,0.1636794947310428,0.16065027118173106,-1.8507043623816943,4,True
2023-11-17,0.16065027118173106,0.1605272954824897,-0.0765487031778811,5,True
2023-11-18,0.1605272954824897,0.15789630239967736,-1.638969294850745,5,True
2023-11-19,0.15789630239967736,0.15451934679972668,-2.1387173408296323,4,True
2023-11-20,0.15451934679972668,0.15507439518070518,0.35920963456952393,2,True
2023-11-21,0.15507439518070518,0.15012251415847755,-3.1932292990453415,5,True
2023-11-22,0.15012251415847755,0.14882611323170353,-0.8635619607365919,6,True
2023-11-23,0.14882611323170353,0.14763606493749076,-0.799623310970976,3,True
2023-11-24,0.14763606493749076,0.1517934553467538,2.815972107508591,1,True
2023-11-25,0.1517934553467538,0.15164905345638793,-0.09513051141498696,5,True
2023-11-26,0.15164905345638793,0.15135359960732142,-0.19482736115559174,0,True
2023-11-27,0.15135359960732142,0.15143281436364073,0.05233754368896282,5,True
2023-11-28,0.15143281436364073,0.14974021762377734,-1.117721246201564,4,True
2023-11-29,0.14974021762377734,0.15176210351133143,1.3502624209042358,3,True
2023-11-30,0.15176210351133143,0.14973804360522325,-1.3337057534637098,3,True
2023-12-01,0.14973804360522325,0.14969073252496715,-0.031595898488456786,0,True
2023-12-02,0.14969073252496715,0.14969073252496715,0.0,0,False
2023-12-03,0.14969073252496715,0.15122584430717087,1.0255222593340552,3,True
2023-12-04,0.15122584430717087,0.15270299024272435,0.9767814108236017,5,True
2023-12-05,0.15270299024272435,0.15314266120007108,0.2879255714952622,7,True
2023-12-06,0.15314266120007108,0.14961414309951554,-2.304072603221752,6,True
2023-12-07,0.14961414309951554,0.14786179863302853,-1.171242524392524,5,True
2023-12-08,0.14786179863302853,0.14570414604638304,-1.4592359937406596,2,True
2023-12-09,0.14570414604638304,0.14570414604638304,0.0,0,False
2023-12-10,0.14570414604638304,0.14553443707068237,-0.11647504913597784,3,True
2023-12-11,0.14553443707068237,0.146275543782024,0.5092311663539073,6,True
2023-12-12,0.146275543782024,0.1505827041810171,2.944552648808818,1,True
2023-12-13,0.1505827041810171,0.1484924103864912,-1.3881367092552277,6,True
2023-12-14,0.1484924103864912,0.15024285159877956,1.178808538249454,2,True
2023-12-15,0.15024285159877956,0.14684844303823874,-2.2592812399524487,4,True
2023-12-16,0.14684844303823874,0.1489728420293834,1.4466608887310217,5,True
2023-12-17,0.1489728420293834,0.14617599245614304,-1.8774224450176735,6,True
2023-12-18,0.14617599245614304,0.14542275498328816,-0.5152949264776718,8,True
2023-12-19,0.14542275498328816,0.14560127744548126,0.12276102334440875,4,True
2023-12-20,0.14560127744548126,0.14476078826345123,-0.577253988959503,2,True
2023-12-21,0.14476078826345123,0.1419620723091685,-1.933338432220566,3,True
2023-12-22,0.1419620723091685,0.14109491837032725,-0.6108349397385027,2,True
2023-12-23,0.14109491837032725,0.14093424464704746,-0.11387633596986468,3,True
2023-12-24,0.14093424464704746,0.1547000934993014,9.767568476156253,3,True
2023-12-25,0.1547000934993014,0.14883117046574548,-3.7937423958844696,5,True
2023-12-26,0.14883117046574548,0.1468541025039676,-1.3283964344236066,3,True
2023-12-27,0.1468541025039676,0.14626060215968237,-0.4041428425666238,11,True
2023-12-28,0.14626060215968237,0.1425321586332163,-2.549178296418797,7,True
2023-12-29,0.1425321586332163,0.14373248451113727,0.8421438989146379,3,True
2023-12-30,0.14373248451113727,0.1429991426331431,-0.5102130395146398,3,True
2023-12-31,0.1429991426331431,0.1407138376702592,-1.5981249403339004,3,True
