day,start_equity,end_equity,return_pct,entries,active
2021-09-02,1.0,1.0,0.0,0,False
2021-09-03,1.0,1.0,0.0,0,False
2021-09-04,1.0,1.0,0.0,0,False
2021-09-05,1.0,1.0,0.0,0,False
2021-09-06,1.0,1.0,0.0,0,False
2021-09-07,1.0,1.0,0.0,0,False
2021-09-08,1.0,1.0,0.0,0,False
2021-09-09,1.0,1.0,0.0,0,False
2021-09-10,1.0,1.0,0.0,0,False
2021-09-11,1.0,1.0,0.0,0,False
2021-09-12,1.0,1.0,0.0,0,False
2021-09-13,1.0,1.0,0.0,0,False
2021-09-14,1.0,1.0,0.0,0,False
2021-09-15,1.0,1.0,0.0,0,False
2021-09-16,1.0,1.0,0.0,0,False
2021-09-17,1.0,1.0,0.0,0,False
2021-09-18,1.0,1.0,0.0,0,False
2021-09-19,1.0,1.0,0.0,0,False
2021-09-20,1.0,1.0,0.0,0,False
2021-09-21,1.0,1.0,0.0,0,False
2021-09-22,1.0,1.0,0.0,0,False
2021-09-23,1.0,1.0,0.0,0,False
2021-09-24,1.0,1.0,0.0,0,False
2021-09-25,1.0,1.0,0.0,0,False
2021-09-26,1.0,1.0,0.0,0,False
2021-09-27,1.0,1.0,0.0,0,False
2021-09-28,1.0,1.0,0.0,0,False
2021-09-29,1.0,1.0,0.0,0,False
2021-09-30,1.0,1.0,0.0,0,False
2021-10-01,1.0,1.0,0.0,0,False
2021-10-02,1.0,1.0,0.0,0,False
2021-10-03,1.0,1.0,0.0,0,False
2021-10-04,1.0,1.0,0.0,0,False
2021-10-05,1.0,1.0,0.0,0,False
2021-10-06,1.0,0.9969238897158955,-0.3076110284104483,1,True
2021-10-07,0.9969238897158955,0.9969238897158955,0.0,0,False
2021-10-08,0.9969238897158955,0.9969238897158955,0.0,0,False
2021-10-09,0.9969238897158955,0.9969238897158955,0.0,0,False
2021-10-10,0.9969238897158955,0.9969238897158955,0.0,0,False
2021-10-11,0.9969238897158955,0.9969238897158955,0.0,0,False
2021-10-12,0.9969238897158955,0.9969238897158955,0.0,0,False
2021-10-13,0.9969238897158955,1.0023336901709112,0.5426492945772798,1,True
2021-10-14,1.0023336901709112,1.0064658918578615,0.41225808605172,0,True
2021-10-15,1.0064658918578615,1.0064658918578615,0.0,0,False
2021-10-16,1.0064658918578615,1.0032413251708634,-0.3203850933334418,1,True
2021-10-17,1.0032413251708634,1.0032413251708634,0.0,0,False
2021-10-18,1.0032413251708634,1.0032413251708634,0.0,0,False
2021-10-19,1.0032413251708634,1.0032413251708634,0.0,0,False
2021-10-20,1.0032413251708634,1.0032413251708634,0.0,0,False
2021-10-21,1.0032413251708634,1.0032413251708634,0.0,0,False
2021-10-22,1.0032413251708634,1.0032413251708634,0.0,0,False
2021-10-23,1.0032413251708634,1.0032413251708634,0.0,0,False
2021-10-24,1.0032413251708634,1.0032413251708634,0.0,0,False
2021-10-25,1.0032413251708634,1.0075372690596616,0.428206432591538,1,True
2021-10-26,1.0075372690596616,1.0075372690596616,0.0,0,False
2021-10-27,1.0075372690596616,1.0222012934723814,1.455432455258543,4,True
2021-10-28,1.0222012934723814,1.0158400165545387,-0.6223115699877213,0,True
2021-10-29,1.0158400165545387,1.0158400165545387,0.0,0,False
2021-10-30,1.0158400165545387,1.014600805937661,-0.1219887577456169,1,True
2021-10-31,1.014600805937661,1.0141543971664384,-0.043998464086580924,0,True
2021-11-01,1.0141543971664384,1.0141543971664384,0.0,0,False
2021-11-02,1.0141543971664384,1.0141543971664384,0.0,0,False
2021-11-03,1.0141543971664384,1.0141543971664384,0.0,0,False
2021-11-04,1.0141543971664384,1.0141543971664384,0.0,0,False
2021-11-05,1.0141543971664384,1.0141543971664384,0.0,0,False
2021-11-06,1.0141543971664384,1.0141543971664384,0.0,0,False
2021-11-07,1.0141543971664384,1.0141543971664384,0.0,0,False
2021-11-08,1.0141543971664384,1.0141543971664384,0.0,0,False
2021-11-09,1.0141543971664384,1.0141543971664384,0.0,0,False
2021-11-10,1.0141543971664384,1.0141543971664384,0.0,0,False
2021-11-11,1.0141543971664384,1.0268340448064261,1.2502679745229006,6,True
2021-11-12,1.0268340448064261,1.0268340448064261,0.0,0,False
2021-11-13,1.0268340448064261,1.0268340448064261,0.0,0,False
2021-11-14,1.0268340448064261,1.0268340448064261,0.0,0,False
2021-11-15,1.0268340448064261,1.0268340448064261,0.0,0,False
2021-11-16,1.0268340448064261,1.0602812960315944,3.257318102602791,4,True
2021-11-17,1.0602812960315944,1.0591195465681624,-0.10956992901601792,0,True
2021-11-18,1.0591195465681624,1.0557974394767042,-0.31366686624023643,1,True
2021-11-19,1.0557974394767042,1.0557974394767042,0.0,0,False
2021-11-20,1.0557974394767042,1.0557974394767042,0.0,0,False
2021-11-21,1.0557974394767042,1.0557974394767042,0.0,0,False
2021-11-22,1.0557974394767042,1.0557974394767042,0.0,0,False
2021-11-23,1.0557974394767042,1.0557974394767042,0.0,0,False
2021-11-24,1.0557974394767042,1.0557974394767042,0.0,0,False
2021-11-25,1.0557974394767042,1.0557974394767042,0.0,0,False
2021-11-26,1.0557974394767042,1.060745956860401,0.468699506048198,5,True
2021-11-27,1.060745956860401,1.0589320340542339,-0.17100445157820499,0,True
2021-11-28,1.0589320340542339,1.0536431498218333,-0.49945455065246724,1,True
2021-11-29,1.0536431498218333,1.0536431498218333,0.0,0,False
2021-11-30,1.0536431498218333,1.0536431498218333,0.0,0,False
2021-12-01,1.0536431498218333,1.0551129339005416,0.139495433435588,1,True
2021-12-02,1.0551129339005416,1.0541848497271828,-0.08796064795906222,1,True
2021-12-03,1.0541848497271828,1.0535206398852575,-0.06300696145437046,1,True
2021-12-04,1.0535206398852575,1.0273557868343421,-2.4835634025893394,5,True
2021-12-05,1.0273557868343421,1.0273557868343421,0.0,0,False
2021-12-06,1.0273557868343421,1.0273557868343421,0.0,0,False
2021-12-07,1.0273557868343421,1.0273557868343421,0.0,0,False
2021-12-08,1.0273557868343421,1.0273557868343421,0.0,0,False
2021-12-09,1.0273557868343421,1.0273557868343421,0.0,0,False
2021-12-10,1.0273557868343421,1.0273557868343421,0.0,0,False
2021-12-11,1.0273557868343421,1.0273557868343421,0.0,0,False
2021-12-12,1.0273557868343421,1.0273557868343421,0.0,0,False
2021-12-13,1.0273557868343421,1.0273557868343421,0.0,0,False
2021-12-14,1.0273557868343421,1.0273557868343421,0.0,0,False
2021-12-15,1.0273557868343421,1.0273557868343421,0.0,0,False
2021-12-16,1.0273557868343421,1.0273557868343421,0.0,0,False
2021-12-17,1.0273557868343421,1.0265884742443363,-0.07468810706465767,1,True
2021-12-18,1.0265884742443363,1.0265884742443363,0.0,0,False
2021-12-19,1.0265884742443363,1.0265884742443363,0.0,0,False
2021-12-20,1.0265884742443363,1.0265884742443363,0.0,0,False
2021-12-21,1.0265884742443363,1.0265884742443363,0.0,0,False
2021-12-22,1.0265884742443363,1.0265884742443363,0.0,0,False
2021-12-23,1.0265884742443363,1.0265884742443363,0.0,0,False
2021-12-24,1.0265884742443363,1.0265884742443363,0.0,0,False
2021-12-25,1.0265884742443363,1.0265884742443363,0.0,0,False
2021-12-26,1.0265884742443363,1.0265884742443363,0.0,0,False
2021-12-27,1.0265884742443363,1.0265884742443363,0.0,0,False
2021-12-28,1.0265884742443363,1.0265884742443363,0.0,0,False
2021-12-29,1.0265884742443363,1.0265884742443363,0.0,0,False
2021-12-30,1.0265884742443363,1.0265884742443363,0.0,0,False
2021-12-31,1.0265884742443363,1.0265884742443363,0.0,0,False
2022-01-01,1.0265884742443363,1.0265884742443363,0.0,0,False
2022-01-02,1.0265884742443363,1.0265884742443363,0.0,0,False
2022-01-03,1.0265884742443363,1.0265884742443363,0.0,0,False
2022-01-04,1.0265884742443363,1.0265884742443363,0.0,0,False
2022-01-05,1.0265884742443363,1.0265884742443363,0.0,0,False
2022-01-06,1.0265884742443363,1.0267035764445855,0.01121210720138599,1,True
2022-01-07,1.0267035764445855,1.0267035764445855,0.0,0,False
2022-01-08,1.0267035764445855,1.0267035764445855,0.0,0,False
2022-01-09,1.0267035764445855,1.0267035764445855,0.0,0,False
2022-01-10,1.0267035764445855,1.0267035764445855,0.0,0,False
2022-01-11,1.0267035764445855,1.0267035764445855,0.0,0,False
2022-01-12,1.0267035764445855,1.0267035764445855,0.0,0,False
2022-01-13,1.0267035764445855,1.0267035764445855,0.0,0,False
2022-01-14,1.0267035764445855,1.0267035764445855,0.0,0,False
2022-01-15,1.0267035764445855,1.0267035764445855,0.0,0,False
2022-01-16,1.0267035764445855,1.0267035764445855,0.0,0,False
2022-01-17,1.0267035764445855,1.0267035764445855,0.0,0,False
2022-01-18,1.0267035764445855,1.0267035764445855,0.0,0,False
2022-01-19,1.0267035764445855,1.0267035764445855,0.0,0,False
2022-01-20,1.0267035764445855,1.0267035764445855,0.0,0,False
2022-01-21,1.0267035764445855,1.0267035764445855,0.0,0,False
2022-01-22,1.0267035764445855,1.0267035764445855,0.0,0,False
2022-01-23,1.0267035764445855,1.0267035764445855,0.0,0,False
2022-01-24,1.0267035764445855,1.0267035764445855,0.0,0,False
2022-01-25,1.0267035764445855,1.0267035764445855,0.0,0,False
2022-01-26,1.0267035764445855,1.0267035764445855,0.0,0,False
2022-01-27,1.0267035764445855,1.0267035764445855,0.0,0,False
2022-01-28,1.0267035764445855,1.0267035764445855,0.0,0,False
2022-01-29,1.0267035764445855,1.0267035764445855,0.0,0,False
2022-01-30,1.0267035764445855,1.0267035764445855,0.0,0,False
2022-01-31,1.0267035764445855,1.0267035764445855,0.0,0,False
2022-02-01,1.0267035764445855,1.0267035764445855,0.0,0,False
2022-02-02,1.0267035764445855,1.0267035764445855,0.0,0,False
2022-02-03,1.0267035764445855,1.0267035764445855,0.0,0,False
2022-02-04,1.0267035764445855,1.0267035764445855,0.0,0,False
2022-02-05,1.0267035764445855,1.0267035764445855,0.0,0,False
2022-02-06,1.0267035764445855,1.0267035764445855,0.0,0,False
2022-02-07,1.0267035764445855,1.0267035764445855,0.0,0,False
2022-02-08,1.0267035764445855,1.0267035764445855,0.0,0,False
2022-02-09,1.0267035764445855,1.0267035764445855,0.0,0,False
2022-02-10,1.0267035764445855,1.02748560301293,0.07616868064808102,2,True
2022-02-11,1.02748560301293,1.024133795771153,-0.32621452134691253,0,True
2022-02-12,1.024133795771153,1.024133795771153,0.0,0,False
2022-02-13,1.024133795771153,1.024133795771153,0.0,0,False
2022-02-14,1.024133795771153,1.024133795771153,0.0,0,False
2022-02-15,1.024133795771153,1.024133795771153,0.0,0,False
2022-02-16,1.024133795771153,1.024133795771153,0.0,0,False
2022-02-17,1.024133795771153,1.024133795771153,0.0,0,False
2022-02-18,1.024133795771153,1.024133795771153,0.0,0,False
2022-02-19,1.024133795771153,1.024133795771153,0.0,0,False
2022-02-20,1.024133795771153,1.024133795771153,0.0,0,False
2022-02-21,1.024133795771153,1.024133795771153,0.0,0,False
2022-02-22,1.024133795771153,1.024133795771153,0.0,0,False
2022-02-23,1.024133795771153,1.024133795771153,0.0,0,False
2022-02-24,1.024133795771153,1.024133795771153,0.0,0,False
2022-02-25,1.024133795771153,1.024133795771153,0.0,0,False
2022-02-26,1.024133795771153,1.024133795771153,0.0,0,False
2022-02-27,1.024133795771153,1.024133795771153,0.0,0,False
2022-02-28,1.024133795771153,1.024133795771153,0.0,0,False
2022-03-01,1.024133795771153,1.024133795771153,0.0,0,False
2022-03-02,1.024133795771153,1.024133795771153,0.0,0,False
2022-03-03,1.024133795771153,1.024133795771153,0.0,0,False
2022-03-04,1.024133795771153,1.024133795771153,0.0,0,False
2022-03-05,1.024133795771153,1.024133795771153,0.0,0,False
2022-03-06,1.024133795771153,1.024133795771153,0.0,0,False
2022-03-07,1.024133795771153,1.024133795771153,0.0,0,False
2022-03-08,1.024133795771153,1.024133795771153,0.0,0,False
2022-03-09,1.024133795771153,1.024133795771153,0.0,0,False
2022-03-10,1.024133795771153,1.024133795771153,0.0,0,False
2022-03-11,1.024133795771153,1.024133795771153,0.0,0,False
2022-03-12,1.024133795771153,1.024133795771153,0.0,0,False
2022-03-13,1.024133795771153,1.024133795771153,0.0,0,False
2022-03-14,1.024133795771153,1.024133795771153,0.0,0,False
2022-03-15,1.024133795771153,1.024133795771153,0.0,0,False
2022-03-16,1.024133795771153,1.024133795771153,0.0,0,False
2022-03-17,1.024133795771153,1.024133795771153,0.0,0,False
2022-03-18,1.024133795771153,1.024133795771153,0.0,0,False
2022-03-19,1.024133795771153,1.024133795771153,0.0,0,False
2022-03-20,1.024133795771153,1.024133795771153,0.0,0,False
2022-03-21,1.024133795771153,1.024133795771153,0.0,0,False
2022-03-22,1.024133795771153,1.024133795771153,0.0,0,False
2022-03-23,1.024133795771153,1.024133795771153,0.0,0,False
2022-03-24,1.024133795771153,1.024133795771153,0.0,0,False
2022-03-25,1.024133795771153,1.024133795771153,0.0,0,False
2022-03-26,1.024133795771153,1.0258698767784065,0.16951701178324896,1,True
2022-03-27,1.0258698767784065,1.0258698767784065,0.0,0,False
2022-03-28,1.0258698767784065,1.0258698767784065,0.0,0,False
2022-03-29,1.0258698767784065,1.0258698767784065,0.0,0,False
2022-03-30,1.0258698767784065,1.022713514092516,-0.3076767100134048,1,True
2022-03-31,1.022713514092516,1.022713514092516,0.0,0,False
2022-04-01,1.022713514092516,1.022713514092516,0.0,0,False
2022-04-02,1.022713514092516,1.022713514092516,0.0,0,False
2022-04-03,1.022713514092516,1.022713514092516,0.0,0,False
2022-04-04,1.022713514092516,1.0176053869187778,-0.49946804294170866,1,True
2022-04-05,1.0176053869187778,1.0176053869187778,0.0,0,False
2022-04-06,1.0176053869187778,1.0194335309115756,0.17965156398525028,1,True
2022-04-07,1.0194335309115756,1.0164812337093438,-0.2896017359358183,1,True
2022-04-08,1.0164812337093438,1.0164812337093438,0.0,0,False
2022-04-09,1.0164812337093438,1.0164812337093438,0.0,0,False
2022-04-10,1.0164812337093438,1.0164812337093438,0.0,0,False
2022-04-11,1.0164812337093438,1.0164812337093438,0.0,0,False
2022-04-12,1.0164812337093438,1.0164812337093438,0.0,0,False
2022-04-13,1.0164812337093438,1.0164812337093438,0.0,0,False
2022-04-14,1.0164812337093438,1.0164812337093438,0.0,0,False
2022-04-15,1.0164812337093438,1.0164812337093438,0.0,0,False
2022-04-16,1.0164812337093438,1.0164812337093438,0.0,0,False
2022-04-17,1.0164812337093438,1.0164812337093438,0.0,0,False
2022-04-18,1.0164812337093438,1.0192511387176457,0.2724993749460447,1,True
2022-04-19,1.0192511387176457,1.0165648295295138,-0.263557143680182,0,True
2022-04-20,1.0165648295295138,1.0165648295295138,0.0,0,False
2022-04-21,1.0165648295295138,1.0165648295295138,0.0,0,False
2022-04-22,1.0165648295295138,1.0165648295295138,0.0,0,False
2022-04-23,1.0165648295295138,1.0165648295295138,0.0,0,False
2022-04-24,1.0165648295295138,1.0165648295295138,0.0,0,False
2022-04-25,1.0165648295295138,1.0165648295295138,0.0,0,False
2022-04-26,1.0165648295295138,1.0165648295295138,0.0,0,False
2022-04-27,1.0165648295295138,1.0165648295295138,0.0,0,False
2022-04-28,1.0165648295295138,1.0165648295295138,0.0,0,False
2022-04-29,1.0165648295295138,1.0165648295295138,0.0,0,False
2022-04-30,1.0165648295295138,1.0165648295295138,0.0,0,False
2022-05-01,1.0165648295295138,1.0318299321255897,1.5016359166331705,4,True
2022-05-02,1.0318299321255897,1.0318299321255897,0.0,0,False
2022-05-03,1.0318299321255897,1.0318299321255897,0.0,0,False
2022-05-04,1.0318299321255897,1.0318299321255897,0.0,0,False
2022-05-05,1.0318299321255897,1.0318299321255897,0.0,0,False
2022-05-06,1.0318299321255897,1.0274629880290942,-0.42322324256474086,2,True
2022-05-07,1.0274629880290942,1.0264727997235785,-0.09637216299295259,0,True
2022-05-08,1.0264727997235785,1.0264727997235785,0.0,0,False
2022-05-09,1.0264727997235785,1.0264727997235785,0.0,0,False
2022-05-10,1.0264727997235785,1.0198634177664976,-0.6438925570030452,2,True
2022-05-11,1.0198634177664976,1.004734626525683,-1.4834134627504048,5,True
2022-05-12,1.004734626525683,0.9998524655636065,-0.48591546794387597,1,True
2022-05-13,0.9998524655636065,0.9998524655636065,0.0,0,False
2022-05-14,0.9998524655636065,0.9998524655636065,0.0,0,False
2022-05-15,0.9998524655636065,0.9967484434486666,-0.31044801326665095,1,True
2022-05-16,0.9967484434486666,1.0025085692275197,0.577891625185134,1,True
2022-05-17,1.0025085692275197,1.0025085692275197,0.0,0,False
2022-05-18,1.0025085692275197,1.0025085692275197,0.0,0,False
2022-05-19,1.0025085692275197,1.0025085692275197,0.0,0,False
2022-05-20,1.0025085692275197,0.9975028973557619,-0.4993146218804867,1,True
2022-05-21,0.9975028973557619,0.9975028973557619,0.0,0,False
2022-05-22,0.9975028973557619,0.9975028973557619,0.0,0,False
2022-05-23,0.9975028973557619,0.9971254625762824,-0.03783796322597288,1,True
2022-05-24,0.9971254625762824,0.9937125031345544,-0.3422798403833749,1,True
2022-05-25,0.9937125031345544,0.9935272547909921,-0.018642046163042103,1,True
2022-05-26,0.9935272547909921,0.9918771297534078,-0.1660875461269029,1,True
2022-05-27,0.9918771297534078,0.9918771297534078,0.0,0,False
2022-05-28,0.9918771297534078,0.9918771297534078,0.0,0,False
2022-05-29,0.9918771297534078,0.9918771297534078,0.0,0,False
2022-05-30,0.9918771297534078,0.9918771297534078,0.0,0,False
2022-05-31,0.9918771297534078,0.9918771297534078,0.0,0,False
2022-06-01,0.9918771297534078,0.9918771297534078,0.0,0,False
2022-06-02,0.9918771297534078,0.986921884188119,-0.4995826011756854,1,True
2022-06-03,0.986921884188119,0.986921884188119,0.0,0,False
2022-06-04,0.986921884188119,0.986921884188119,0.0,0,False
2022-06-05,0.986921884188119,0.986921884188119,0.0,0,False
2022-06-06,0.986921884188119,0.986921884188119,0.0,0,False
2022-06-07,0.986921884188119,0.9877827431001603,0.08722665145373121,1,True
2022-06-08,0.9877827431001603,0.9865969814257312,-0.1200427606892207,1,True
2022-06-09,0.9865969814257312,0.9865969814257312,0.0,0,False
2022-06-10,0.9865969814257312,0.988574666244252,0.2004551864392523,1,True
2022-06-11,0.988574666244252,0.988574666244252,0.0,0,False
2022-06-12,0.988574666244252,0.979429137341827,-0.9251227261538375,4,True
2022-06-13,0.979429137341827,0.979429137341827,0.0,0,False
2022-06-14,0.979429137341827,0.979429137341827,0.0,0,False
2022-06-15,0.979429137341827,0.979429137341827,0.0,0,False
2022-06-16,0.979429137341827,0.9891744554215169,0.9949998124559212,2,True
2022-06-17,0.9891744554215169,0.9923473732523812,0.32076423056357495,0,True
2022-06-18,0.9923473732523812,0.9819382311967255,-1.0489413622913224,4,True
2022-06-19,0.9819382311967255,0.983689952917736,0.17839428849568684,0,True
2022-06-20,0.983689952917736,0.983689952917736,0.0,0,False
2022-06-21,0.983689952917736,0.983689952917736,0.0,0,False
2022-06-22,0.983689952917736,0.983689952917736,0.0,0,False
2022-06-23,0.983689952917736,0.983689952917736,0.0,0,False
2022-06-24,0.983689952917736,0.983689952917736,0.0,0,False
2022-06-25,0.983689952917736,0.983689952917736,0.0,0,False
2022-06-26,0.983689952917736,0.983689952917736,0.0,0,False
2022-06-27,0.983689952917736,0.983689952917736,0.0,0,False
2022-06-28,0.983689952917736,0.9851594436351508,0.14938555721304425,1,True
2022-06-29,0.9851594436351508,0.9799835155411875,-0.5253898876373397,0,True
2022-06-30,0.9799835155411875,0.9799835155411875,0.0,0,False
2022-07-01,0.9799835155411875,0.9799835155411875,0.0,0,False
2022-07-02,0.9799835155411875,0.9799835155411875,0.0,0,False
2022-07-03,0.9799835155411875,0.9799835155411875,0.0,0,False
2022-07-04,0.9799835155411875,0.9799835155411875,0.0,0,False
2022-07-05,0.9799835155411875,0.9799835155411875,0.0,0,False
2022-07-06,0.9799835155411875,0.9799835155411875,0.0,0,False
2022-07-07,0.9799835155411875,0.9799835155411875,0.0,0,False
2022-07-08,0.9799835155411875,0.9799835155411875,0.0,0,False
2022-07-09,0.9799835155411875,0.9799835155411875,0.0,0,False
2022-07-10,0.9799835155411875,0.9799835155411875,0.0,0,False
2022-07-11,0.9799835155411875,0.9799835155411875,0.0,0,False
2022-07-12,0.9799835155411875,0.9799835155411875,0.0,0,False
2022-07-13,0.9799835155411875,0.9907238675953702,1.0959727264648444,4,True
2022-07-14,0.9907238675953702,1.0074127762720946,1.6845166673162604,0,True
2022-07-15,1.0074127762720946,1.0074127762720946,0.0,0,False
2022-07-16,1.0074127762720946,1.0074127762720946,0.0,0,False
2022-07-17,1.0074127762720946,1.0074127762720946,0.0,0,False
2022-07-18,1.0074127762720946,1.0074127762720946,0.0,0,False
2022-07-19,1.0074127762720946,1.0074127762720946,0.0,0,False
2022-07-20,1.0074127762720946,1.0074127762720946,0.0,0,False
2022-07-21,1.0074127762720946,1.0050613288310224,-0.23341449467949582,3,True
2022-07-22,1.0050613288310224,1.0050613288310224,0.0,0,False
2022-07-23,1.0050613288310224,1.0050613288310224,0.0,0,False
2022-07-24,1.0050613288310224,1.010813041580449,0.5722748039780345,1,True
2022-07-25,1.010813041580449,1.0117298695755972,0.0907020346427867,1,True
2022-07-26,1.0117298695755972,1.0117298695755972,0.0,0,False
2022-07-27,1.0117298695755972,1.0117298695755972,0.0,0,False
2022-07-28,1.0117298695755972,1.0117298695755972,0.0,0,False
2022-07-29,1.0117298695755972,1.0117298695755972,0.0,0,False
2022-07-30,1.0117298695755972,1.0117298695755972,0.0,0,False
2022-07-31,1.0117298695755972,1.0117298695755972,0.0,0,False
2022-08-01,1.0117298695755972,1.0117298695755972,0.0,0,False
2022-08-02,1.0117298695755972,1.0117298695755972,0.0,0,False
2022-08-03,1.0117298695755972,1.0117298695755972,0.0,0,False
2022-08-04,1.0117298695755972,1.0117298695755972,0.0,0,False
2022-08-05,1.0117298695755972,1.0117298695755972,0.0,0,False
2022-08-06,1.0117298695755972,1.0117298695755972,0.0,0,False
2022-08-07,1.0117298695755972,1.0117298695755972,0.0,0,False
2022-08-08,1.0117298695755972,1.0117298695755972,0.0,0,False
2022-08-09,1.0117298695755972,1.013741565195582,0.19883722725597686,1,True
2022-08-10,1.013741565195582,1.013741565195582,0.0,0,False
2022-08-11,1.013741565195582,1.013741565195582,0.0,0,False
2022-08-12,1.013741565195582,1.0111389449475827,-0.2567340964752751,1,True
2022-08-13,1.0111389449475827,1.0111389449475827,0.0,0,False
2022-08-14,1.0111389449475827,1.0111389449475827,0.0,0,False
2022-08-15,1.0111389449475827,1.0111389449475827,0.0,0,False
2022-08-16,1.0111389449475827,1.0111389449475827,0.0,0,False
2022-08-17,1.0111389449475827,1.0111389449475827,0.0,0,False
2022-08-18,1.0111389449475827,1.0111389449475827,0.0,0,False
2022-08-19,1.0111389449475827,0.998194118224738,-1.2802223460511408,8,True
2022-08-20,0.998194118224738,1.0015621761964388,0.3374151290022498,0,True
2022-08-21,1.0015621761964388,1.0015621761964388,0.0,0,False
2022-08-22,1.0015621761964388,1.0015621761964388,0.0,0,False
2022-08-23,1.0015621761964388,1.0015621761964388,0.0,0,False
2022-08-24,1.0015621761964388,1.0015621761964388,0.0,0,False
2022-08-25,1.0015621761964388,1.0015621761964388,0.0,0,False
2022-08-26,1.0015621761964388,1.0015621761964388,0.0,0,False
2022-08-27,1.0015621761964388,1.0015621761964388,0.0,0,False
2022-08-28,1.0015621761964388,1.0015621761964388,0.0,0,False
2022-08-29,1.0015621761964388,1.0015621761964388,0.0,0,False
2022-08-30,1.0015621761964388,1.0015621761964388,0.0,0,False
2022-08-31,1.0015621761964388,1.0015621761964388,0.0,0,False
2022-09-01,1.0015621761964388,1.0015621761964388,0.0,0,False
2022-09-02,1.0015621761964388,1.0015621761964388,0.0,0,False
2022-09-03,1.0015621761964388,1.0015621761964388,0.0,0,False
2022-09-04,1.0015621761964388,1.0015621761964388,0.0,0,False
2022-09-05,1.0015621761964388,1.0015621761964388,0.0,0,False
2022-09-06,1.0015621761964388,1.0015621761964388,0.0,0,False
2022-09-07,1.0015621761964388,0.994370698644013,-0.7180260720044851,4,True
2022-09-08,0.994370698644013,0.994370698644013,0.0,0,False
2022-09-09,0.994370698644013,0.994370698644013,0.0,0,False
2022-09-10,0.994370698644013,0.994370698644013,0.0,0,False
2022-09-11,0.994370698644013,0.994370698644013,0.0,0,False
2022-09-12,0.994370698644013,0.994370698644013,0.0,0,False
2022-09-13,0.994370698644013,0.9857494504333493,-0.8670054560557916,4,True
2022-09-14,0.9857494504333493,0.9792866480861476,-0.6556232259993133,0,True
2022-09-15,0.9792866480861476,0.9839681529851635,0.4780525608273134,1,True
2022-09-16,0.9839681529851635,0.9839681529851635,0.0,0,False
2022-09-17,0.9839681529851635,0.9839681529851635,0.0,0,False
2022-09-18,0.9839681529851635,0.9839681529851635,0.0,0,False
2022-09-19,0.9839681529851635,0.9794905116778845,-0.4550595762367604,5,True
2022-09-20,0.9794905116778845,0.9794905116778845,0.0,0,False
2022-09-21,0.9794905116778845,0.9794905116778845,0.0,0,False
2022-09-22,0.9794905116778845,0.9794905116778845,0.0,0,False
2022-09-23,0.9794905116778845,0.9794905116778845,0.0,0,False
2022-09-24,0.9794905116778845,0.9794905116778845,0.0,0,False
2022-09-25,0.9794905116778845,0.9794905116778845,0.0,0,False
2022-09-26,0.9794905116778845,0.9794905116778845,0.0,0,False
2022-09-27,0.9794905116778845,0.9794905116778845,0.0,0,False
2022-09-28,0.9794905116778845,0.9794905116778845,0.0,0,False
2022-09-29,0.9794905116778845,0.9794905116778845,0.0,0,False
2022-09-30,0.9794905116778845,0.9794905116778845,0.0,0,False
2022-10-01,0.9794905116778845,0.9794905116778845,0.0,0,False
2022-10-02,0.9794905116778845,0.9794905116778845,0.0,0,False
2022-10-03,0.9794905116778845,0.9794905116778845,0.0,0,False
2022-10-04,0.9794905116778845,0.9794905116778845,0.0,0,False
2022-10-05,0.9794905116778845,0.9794905116778845,0.0,0,False
2022-10-06,0.9794905116778845,0.9794905116778845,0.0,0,False
2022-10-07,0.9794905116778845,0.9794905116778845,0.0,0,False
2022-10-08,0.9794905116778845,0.9794905116778845,0.0,0,False
2022-10-09,0.9794905116778845,0.9794905116778845,0.0,0,False
2022-10-10,0.9794905116778845,0.9794905116778845,0.0,0,False
2022-10-11,0.9794905116778845,1.0028895596200154,2.38889990899942,4,True
2022-10-12,1.0028895596200154,1.0028895596200154,0.0,0,False
2022-10-13,1.0028895596200154,1.0028895596200154,0.0,0,False
2022-10-14,1.0028895596200154,1.0028895596200154,0.0,0,False
2022-10-15,1.0028895596200154,1.0028895596200154,0.0,0,False
2022-10-16,1.0028895596200154,1.0028895596200154,0.0,0,False
2022-10-17,1.0028895596200154,1.0028895596200154,0.0,0,False
2022-10-18,1.0028895596200154,1.0028895596200154,0.0,0,False
2022-10-19,1.0028895596200154,1.0028895596200154,0.0,0,False
2022-10-20,1.0028895596200154,1.006765099862927,0.3864373904121532,1,True
2022-10-21,1.006765099862927,1.006765099862927,0.0,0,False
2022-10-22,1.006765099862927,1.006765099862927,0.0,0,False
2022-10-23,1.006765099862927,1.006765099862927,0.0,0,False
2022-10-24,1.006765099862927,1.006765099862927,0.0,0,False
2022-10-25,1.006765099862927,1.006765099862927,0.0,0,False
2022-10-26,1.006765099862927,1.006765099862927,0.0,0,False
2022-10-27,1.006765099862927,1.006765099862927,0.0,0,False
2022-10-28,1.006765099862927,1.006765099862927,0.0,0,False
2022-10-29,1.006765099862927,1.006765099862927,0.0,0,False
2022-10-30,1.006765099862927,1.006765099862927,0.0,0,False
2022-10-31,1.006765099862927,1.006765099862927,0.0,0,False
2022-11-01,1.006765099862927,1.006765099862927,0.0,0,False
2022-11-02,1.006765099862927,1.0123037801558161,0.5501462350694597,1,True
2022-11-03,1.0123037801558161,1.0123037801558161,0.0,0,False
2022-11-04,1.0123037801558161,1.0238625042552454,1.1418236626213218,2,True
2022-11-05,1.0238625042552454,1.0228653704797486,-0.09738942205156365,0,True
2022-11-06,1.0228653704797486,1.0228653704797486,0.0,0,False
2022-11-07,1.0228653704797486,1.020485543804926,-0.23266274756239547,1,True
2022-11-08,1.020485543804926,1.0146894070019297,-0.567978335232977,3,True
2022-11-09,1.0146894070019297,1.0042569571009816,-1.028142190995418,4,True
2022-11-10,1.0042569571009816,1.0124745436733447,0.8182752944112082,1,True
2022-11-11,1.0124745436733447,1.01776638969321,0.5226645996121659,5,True
2022-11-12,1.01776638969321,1.026325610160103,0.8409808531280927,1,True
2022-11-13,1.026325610160103,1.0228184778420284,-0.3417173149881325,1,True
2022-11-14,1.0228184778420284,1.0275271487687712,0.46036232515833664,2,True
2022-11-15,1.0275271487687712,1.0275271487687712,0.0,0,False
2022-11-16,1.0275271487687712,1.0275271487687712,0.0,0,False
2022-11-17,1.0275271487687712,1.0275271487687712,0.0,0,False
2022-11-18,1.0275271487687712,1.0275271487687712,0.0,0,False
2022-11-19,1.0275271487687712,1.0284035336930806,0.08529068310842991,2,True
2022-11-20,1.0284035336930806,1.0251848057325952,-0.31298297361218586,1,True
2022-11-21,1.0251848057325952,1.0185958105991404,-0.6427129134777165,1,True
2022-11-22,1.0185958105991404,1.0185958105991404,0.0,0,False
2022-11-23,1.0185958105991404,1.0185958105991404,0.0,0,False
2022-11-24,1.0185958105991404,1.0185958105991404,0.0,0,False
2022-11-25,1.0185958105991404,1.0185958105991404,0.0,0,False
2022-11-26,1.0185958105991404,1.0185958105991404,0.0,0,False
2022-11-27,1.0185958105991404,1.0185958105991404,0.0,0,False
2022-11-28,1.0185958105991404,1.0143032074825966,-0.42142359823951203,2,True
2022-11-29,1.0143032074825966,1.0143032074825966,0.0,0,False
2022-11-30,1.0143032074825966,1.0143032074825966,0.0,0,False
2022-12-01,1.0143032074825966,1.0140811446517526,-0.021893140946993572,1,True
2022-12-02,1.0140811446517526,1.0140811446517526,0.0,0,False
2022-12-03,1.0140811446517526,1.0140811446517526,0.0,0,False
2022-12-04,1.0140811446517526,1.0140811446517526,0.0,0,False
2022-12-05,1.0140811446517526,1.0140811446517526,0.0,0,False
2022-12-06,1.0140811446517526,1.0140811446517526,0.0,0,False
2022-12-07,1.0140811446517526,1.0140811446517526,0.0,0,False
2022-12-08,1.0140811446517526,1.0090198661083305,-0.4990999556707232,1,True
2022-12-09,1.0090198661083305,1.0090198661083305,0.0,0,False
2022-12-10,1.0090198661083305,1.0090198661083305,0.0,0,False
2022-12-11,1.0090198661083305,1.0090198661083305,0.0,0,False
2022-12-12,1.0090198661083305,1.0090198661083305,0.0,0,False
2022-12-13,1.0090198661083305,1.0090198661083305,0.0,0,False
2022-12-14,1.0090198661083305,1.0090198661083305,0.0,0,False
2022-12-15,1.0090198661083305,1.0090198661083305,0.0,0,False
2022-12-16,1.0090198661083305,1.0090198661083305,0.0,0,False
2022-12-17,1.0090198661083305,1.013691668667159,0.46300402160039944,4,True
2022-12-18,1.013691668667159,1.013691668667159,0.0,0,False
2022-12-19,1.013691668667159,1.013691668667159,0.0,0,False
2022-12-20,1.013691668667159,1.013691668667159,0.0,0,False
2022-12-21,1.013691668667159,1.013691668667159,0.0,0,False
2022-12-22,1.013691668667159,1.013691668667159,0.0,0,False
2022-12-23,1.013691668667159,1.013691668667159,0.0,0,False
2022-12-24,1.013691668667159,1.013691668667159,0.0,0,False
2022-12-25,1.013691668667159,1.013691668667159,0.0,0,False
2022-12-26,1.013691668667159,1.013691668667159,0.0,0,False
2022-12-27,1.013691668667159,1.013691668667159,0.0,0,False
2022-12-28,1.013691668667159,1.0160479239831175,0.2324429990685939,1,True
2022-12-29,1.0160479239831175,1.0142653456773951,-0.17544234515378676,0,True
2022-12-30,1.0142653456773951,1.0142653456773951,0.0,0,False
2022-12-31,1.0142653456773951,1.0142653456773951,0.0,0,False
2023-01-01,1.0142653456773951,1.0142653456773951,0.0,0,False
2023-01-02,1.0142653456773951,1.0144938574447828,0.02252978161598751,1,True
2023-01-03,1.0144938574447828,1.0145821207356875,0.008700229208580268,0,True
2023-01-04,1.0145821207356875,1.0145821207356875,0.0,0,False
2023-01-05,1.0145821207356875,1.0145821207356875,0.0,0,False
2023-01-06,1.0145821207356875,1.0145821207356875,0.0,0,False
2023-01-07,1.0145821207356875,1.0145821207356875,0.0,0,False
2023-01-08,1.0145821207356875,1.0145821207356875,0.0,0,False
2023-01-09,1.0145821207356875,1.0145821207356875,0.0,0,False
2023-01-10,1.0145821207356875,1.012090398148557,-0.24559102079620976,2,True
2023-01-11,1.012090398148557,1.0126638441885203,0.05665956726912391,0,True
2023-01-12,1.0126638441885203,1.0126638441885203,0.0,0,False
2023-01-13,1.0126638441885203,1.0126638441885203,0.0,0,False
2023-01-14,1.0126638441885203,1.0126638441885203,0.0,0,False
2023-01-15,1.0126638441885203,1.011697118703242,-0.09546361221703936,1,True
2023-01-16,1.011697118703242,1.011697118703242,0.0,0,False
2023-01-17,1.011697118703242,1.011697118703242,0.0,0,False
2023-01-18,1.011697118703242,1.011697118703242,0.0,0,False
2023-01-19,1.011697118703242,1.0066444516333415,-0.4994248749444763,1,True
2023-01-20,1.0066444516333415,1.0066444516333415,0.0,0,False
2023-01-21,1.0066444516333415,1.0077809555669144,0.11290023321828269,1,True
2023-01-22,1.0077809555669144,1.0071044845147337,-0.06712481005360926,0,True
2023-01-23,1.0071044845147337,1.0071044845147337,0.0,0,False
2023-01-24,1.0071044845147337,1.0129507611989252,0.5805034903611395,1,True
2023-01-25,1.0129507611989252,1.0175706862173821,0.45608584300669275,5,True
2023-01-26,1.0175706862173821,1.0175706862173821,0.0,0,False
2023-01-27,1.0175706862173821,1.0175706862173821,0.0,0,False
2023-01-28,1.0175706862173821,1.0175706862173821,0.0,0,False
2023-01-29,1.0175706862173821,1.0175706862173821,0.0,0,False
2023-01-30,1.0175706862173821,1.0174155461889869,-0.015246118082656857,2,True
2023-01-31,1.0174155461889869,1.0181360331232638,0.07081540448008461,2,True
2023-02-01,1.0181360331232638,1.0181360331232638,0.0,0,False
2023-02-02,1.0181360331232638,1.0181360331232638,0.0,0,False
2023-02-03,1.0181360331232638,1.0181360331232638,0.0,0,False
2023-02-04,1.0181360331232638,1.0181360331232638,0.0,0,False
2023-02-05,1.0181360331232638,1.020451368963387,0.22740928174602715,4,True
2023-02-06,1.020451368963387,1.0322312332458747,1.1543778214981648,1,True
2023-02-07,1.0322312332458747,1.0317742157811685,-0.04427471771699665,0,True
2023-02-08,1.0317742157811685,1.0317742157811685,0.0,0,False
2023-02-09,1.0317742157811685,1.0317742157811685,0.0,0,False
2023-02-10,1.0317742157811685,1.0317742157811685,0.0,0,False
2023-02-11,1.0317742157811685,1.0317742157811685,0.0,0,False
2023-02-12,1.0317742157811685,1.0317742157811685,0.0,0,False
2023-02-13,1.0317742157811685,1.0317742157811685,0.0,0,False
2023-02-14,1.0317742157811685,1.0317742157811685,0.0,0,False
2023-02-15,1.0317742157811685,1.0317742157811685,0.0,0,False
2023-02-16,1.0317742157811685,1.0317742157811685,0.0,0,False
2023-02-17,1.0317742157811685,1.0317742157811685,0.0,0,False
2023-02-18,1.0317742157811685,1.0317742157811685,0.0,0,False
2023-02-19,1.0317742157811685,1.0317742157811685,0.0,0,False
2023-02-20,1.0317742157811685,1.0317742157811685,0.0,0,False
2023-02-21,1.0317742157811685,1.0288399942519275,-0.2843860104625118,2,True
2023-02-22,1.0288399942519275,1.0291952891235716,0.03453354006737186,0,True
2023-02-23,1.0291952891235716,1.040240479976059,1.073187078216531,1,True
2023-02-24,1.040240479976059,1.040240479976059,0.0,0,False
2023-02-25,1.040240479976059,1.040240479976059,0.0,0,False
2023-02-26,1.040240479976059,1.040240479976059,0.0,0,False
2023-02-27,1.040240479976059,1.035044704363128,-0.49947831419236977,1,True
2023-02-28,1.035044704363128,1.035044704363128,0.0,0,False
2023-03-01,1.035044704363128,1.035044704363128,0.0,0,False
2023-03-02,1.035044704363128,1.035044704363128,0.0,0,False
2023-03-03,1.035044704363128,1.029507688873439,-0.5349542359231685,5,True
2023-03-04,1.029507688873439,1.029507688873439,0.0,0,False
2023-03-05,1.029507688873439,1.029507688873439,0.0,0,False
2023-03-06,1.029507688873439,1.029507688873439,0.0,0,False
2023-03-07,1.029507688873439,1.029507688873439,0.0,0,False
2023-03-08,1.029507688873439,1.029507688873439,0.0,0,False
2023-03-09,1.029507688873439,1.029507688873439,0.0,0,False
2023-03-10,1.029507688873439,1.029507688873439,0.0,0,False
2023-03-11,1.029507688873439,1.0347226392569744,0.5065479782129678,1,True
2023-03-12,1.0347226392569744,1.0330389545993277,-0.16271845166697663,0,True
2023-03-13,1.0330389545993277,1.0330389545993277,0.0,0,False
2023-03-14,1.0330389545993277,1.0330389545993277,0.0,0,False
2023-03-15,1.0330389545993277,1.0330389545993277,0.0,0,False
2023-03-16,1.0330389545993277,1.0354677038159252,0.2351072247357422,1,True
2023-03-17,1.0354677038159252,1.0302966931490507,-0.49938888946687854,1,True
2023-03-18,1.0302966931490507,1.0302966931490507,0.0,0,False
2023-03-19,1.0302966931490507,1.0302966931490507,0.0,0,False
2023-03-20,1.0302966931490507,1.0302966931490507,0.0,0,False
2023-03-21,1.0302966931490507,1.0251524118695783,-0.4993009599738918,1,True
2023-03-22,1.0251524118695783,1.0251524118695783,0.0,0,False
2023-03-23,1.0251524118695783,1.0342460254029322,0.8870499086833128,3,True
2023-03-24,1.0342460254029322,1.031439327069045,-0.2713762745951809,0,True
2023-03-25,1.031439327069045,1.0263664498090805,-0.49182507655390895,1,True
2023-03-26,1.0263664498090805,1.0263664498090805,0.0,0,False
2023-03-27,1.0263664498090805,1.0263664498090805,0.0,0,False
2023-03-28,1.0263664498090805,1.0263664498090805,0.0,0,False
2023-03-29,1.0263664498090805,1.0263664498090805,0.0,0,False
2023-03-30,1.0263664498090805,1.0263664498090805,0.0,0,False
2023-03-31,1.0263664498090805,1.0263664498090805,0.0,0,False
2023-04-01,1.0263664498090805,1.0263664498090805,0.0,0,False
2023-04-02,1.0263664498090805,1.0263664498090805,0.0,0,False
2023-04-03,1.0263664498090805,1.0263664498090805,0.0,0,False
2023-04-04,1.0263664498090805,1.0263664498090805,0.0,0,False
2023-04-05,1.0263664498090805,1.0263664498090805,0.0,0,False
2023-04-06,1.0263664498090805,1.021235975966638,-0.49986764896658986,1,True
2023-04-07,1.021235975966638,1.018855936000552,-0.23305484942726107,1,True
2023-04-08,1.018855936000552,1.018855936000552,0.0,0,False
2023-04-09,1.018855936000552,1.018855936000552,0.0,0,False
2023-04-10,1.018855936000552,1.018855936000552,0.0,0,False
2023-04-11,1.018855936000552,1.018855936000552,0.0,0,False
2023-04-12,1.018855936000552,1.018855936000552,0.0,0,False
2023-04-13,1.018855936000552,1.018855936000552,0.0,0,False
2023-04-14,1.018855936000552,1.018855936000552,0.0,0,False
2023-04-15,1.018855936000552,1.018855936000552,0.0,0,False
2023-04-16,1.018855936000552,1.018855936000552,0.0,0,False
2023-04-17,1.018855936000552,1.018855936000552,0.0,0,False
2023-04-18,1.018855936000552,1.018855936000552,0.0,0,False
2023-04-19,1.018855936000552,1.0086912477197776,-0.9976570702110443,2,True
2023-04-20,1.0086912477197776,1.0086912477197776,0.0,0,False
2023-04-21,1.0086912477197776,1.0086912477197776,0.0,0,False
2023-04-22,1.0086912477197776,1.0086912477197776,0.0,0,False
2023-04-23,1.0086912477197776,1.0086912477197776,0.0,0,False
2023-04-24,1.0086912477197776,1.0086912477197776,0.0,0,False
2023-04-25,1.0086912477197776,1.0086912477197776,0.0,0,False
2023-04-26,1.0086912477197776,1.0086912477197776,0.0,0,False
2023-04-27,1.0086912477197776,1.0086912477197776,0.0,0,False
2023-04-28,1.0086912477197776,1.0086912477197776,0.0,0,False
2023-04-29,1.0086912477197776,1.0086912477197776,0.0,0,False
2023-04-30,1.0086912477197776,1.0086912477197776,0.0,0,False
2023-05-01,1.0086912477197776,1.0086912477197776,0.0,0,False
2023-05-02,1.0086912477197776,1.0086912477197776,0.0,0,False
2023-05-03,1.0086912477197776,1.0086912477197776,0.0,0,False
2023-05-04,1.0086912477197776,1.0086912477197776,0.0,0,False
2023-05-05,1.0086912477197776,1.0086912477197776,0.0,0,False
2023-05-06,1.0086912477197776,1.0086912477197776,0.0,0,False
2023-05-07,1.0086912477197776,1.0086912477197776,0.0,0,False
2023-05-08,1.0086912477197776,1.0040458522143458,-0.46053691017275966,5,True
2023-05-09,1.0040458522143458,1.0002025447963063,-0.38278206215018873,2,True
2023-05-10,1.0002025447963063,1.001538347118879,0.13355318175527486,1,True
2023-05-11,1.001538347118879,0.9995716066829071,-0.1963719553654264,0,True
2023-05-12,0.9995716066829071,0.9995716066829071,0.0,0,False
2023-05-13,0.9995716066829071,0.9995716066829071,0.0,0,False
2023-05-14,0.9995716066829071,0.9995716066829071,0.0,0,False
2023-05-15,0.9995716066829071,0.9995716066829071,0.0,0,False
2023-05-16,0.9995716066829071,0.9995716066829071,0.0,0,False
2023-05-17,0.9995716066829071,0.9995716066829071,0.0,0,False
2023-05-18,0.9995716066829071,0.9995716066829071,0.0,0,False
2023-05-19,0.9995716066829071,0.9995716066829071,0.0,0,False
2023-05-20,0.9995716066829071,0.9995716066829071,0.0,0,False
2023-05-21,0.9995716066829071,0.9995716066829071,0.0,0,False
2023-05-22,0.9995716066829071,0.9995716066829071,0.0,0,False
2023-05-23,0.9995716066829071,0.9995716066829071,0.0,0,False
2023-05-24,0.9995716066829071,0.9995716066829071,0.0,0,False
2023-05-25,0.9995716066829071,0.9995716066829071,0.0,0,False
2023-05-26,0.9995716066829071,1.001320448072014,0.17495909021569833,1,True
2023-05-27,1.001320448072014,1.0046436117999635,0.3318781449383357,0,True
2023-05-28,1.0046436117999635,1.0046436117999635,0.0,0,False
2023-05-29,1.0046436117999635,1.0046436117999635,0.0,0,False
2023-05-30,1.0046436117999635,1.0046436117999635,0.0,0,False
2023-05-31,1.0046436117999635,1.0046436117999635,0.0,0,False
2023-06-01,1.0046436117999635,1.0046436117999635,0.0,0,False
2023-06-02,1.0046436117999635,1.0169667229165857,1.2266151869062991,1,True
2023-06-03,1.0169667229165857,1.0169667229165857,0.0,0,False
2023-06-04,1.0169667229165857,1.0169667229165857,0.0,0,False
2023-06-05,1.0169667229165857,1.0169667229165857,0.0,0,False
2023-06-06,1.0169667229165857,1.0085836995812814,-0.8243163858166813,4,True
2023-06-07,1.0085836995812814,1.0085836995812814,0.0,0,False
2023-06-08,1.0085836995812814,1.004787651809551,-0.37637409501126706,1,True
2023-06-09,1.004787651809551,1.004787651809551,0.0,0,False
2023-06-10,1.004787651809551,1.023957647456624,1.907865369618067,5,True
2023-06-11,1.023957647456624,1.023228170537892,-0.0712409268629366,0,True
2023-06-12,1.023228170537892,1.023228170537892,0.0,0,False
2023-06-13,1.023228170537892,1.023228170537892,0.0,0,False
2023-06-14,1.023228170537892,1.023228170537892,0.0,0,False
2023-06-15,1.023228170537892,1.023228170537892,0.0,0,False
2023-06-16,1.023228170537892,1.023228170537892,0.0,0,False
2023-06-17,1.023228170537892,1.023228170537892,0.0,0,False
2023-06-18,1.023228170537892,1.023228170537892,0.0,0,False
2023-06-19,1.023228170537892,1.0283779428522546,0.5032867998205459,1,True
2023-06-20,1.0283779428522546,1.029206048035712,0.08052537388740788,0,True
2023-06-21,1.029206048035712,1.029206048035712,0.0,0,False
2023-06-22,1.029206048035712,1.0276535681759293,-0.15084247345277246,1,True
2023-06-23,1.0276535681759293,1.0276535681759293,0.0,0,False
2023-06-24,1.0276535681759293,1.0276535681759293,0.0,0,False
2023-06-25,1.0276535681759293,1.0276535681759293,0.0,0,False
2023-06-26,1.0276535681759293,1.0276535681759293,0.0,0,False
2023-06-27,1.0276535681759293,1.0276535681759293,0.0,0,False
2023-06-28,1.0276535681759293,1.0276535681759293,0.0,0,False
2023-06-29,1.0276535681759293,1.0276535681759293,0.0,0,False
2023-06-30,1.0276535681759293,1.0071694197951877,-1.9932931695163303,4,True
2023-07-01,1.0071694197951877,1.002139543649169,-0.49940715505853994,1,True
2023-07-02,1.002139543649169,1.002139543649169,0.0,0,False
2023-07-03,1.002139543649169,1.002139543649169,0.0,0,False
2023-07-04,1.002139543649169,1.002139543649169,0.0,0,False
2023-07-05,1.002139543649169,1.002139543649169,0.0,0,False
2023-07-06,1.002139543649169,1.002139543649169,0.0,0,False
2023-07-07,1.002139543649169,1.002139543649169,0.0,0,False
2023-07-08,1.002139543649169,1.002139543649169,0.0,0,False
2023-07-09,1.002139543649169,1.002139543649169,0.0,0,False
2023-07-10,1.002139543649169,1.002139543649169,0.0,0,False
2023-07-11,1.002139543649169,1.002139543649169,0.0,0,False
2023-07-12,1.002139543649169,1.002139543649169,0.0,0,False
2023-07-13,1.002139543649169,1.002139543649169,0.0,0,False
2023-07-14,1.002139543649169,1.002139543649169,0.0,0,False
2023-07-15,1.002139543649169,1.002139543649169,0.0,0,False
2023-07-16,1.002139543649169,1.002139543649169,0.0,0,False
2023-07-17,1.002139543649169,1.002139543649169,0.0,0,False
2023-07-18,1.002139543649169,1.002139543649169,0.0,0,False
2023-07-19,1.002139543649169,1.002139543649169,0.0,0,False
2023-07-20,1.002139543649169,1.002139543649169,0.0,0,False
2023-07-21,1.002139543649169,1.002139543649169,0.0,0,False
2023-07-22,1.002139543649169,1.002139543649169,0.0,0,False
2023-07-23,1.002139543649169,1.002139543649169,0.0,0,False
2023-07-24,1.002139543649169,1.001912787943325,-0.02262715879051136,1,True
2023-07-25,1.001912787943325,1.0005235135068917,-0.13866221223556296,0,True
2023-07-26,1.0005235135068917,1.0005235135068917,0.0,0,False
2023-07-27,1.0005235135068917,1.0005235135068917,0.0,0,False
2023-07-28,1.0005235135068917,1.0005235135068917,0.0,0,False
2023-07-29,1.0005235135068917,1.0005235135068917,0.0,0,False
2023-07-30,1.0005235135068917,1.0005235135068917,0.0,0,False
2023-07-31,1.0005235135068917,1.0005235135068917,0.0,0,False
2023-08-01,1.0005235135068917,1.0005235135068917,0.0,0,False
2023-08-02,1.0005235135068917,1.0005235135068917,0.0,0,False
2023-08-03,1.0005235135068917,1.0005235135068917,0.0,0,False
2023-08-04,1.0005235135068917,1.0005235135068917,0.0,0,False
2023-08-05,1.0005235135068917,1.0005235135068917,0.0,0,False
2023-08-06,1.0005235135068917,1.0005235135068917,0.0,0,False
2023-08-07,1.0005235135068917,1.0005235135068917,0.0,0,False
2023-08-08,1.0005235135068917,1.0005235135068917,0.0,0,False
2023-08-09,1.0005235135068917,1.0005235135068917,0.0,0,False
2023-08-10,1.0005235135068917,1.0005235135068917,0.0,0,False
2023-08-11,1.0005235135068917,1.0005235135068917,0.0,0,False
2023-08-12,1.0005235135068917,1.0005235135068917,0.0,0,False
2023-08-13,1.0005235135068917,1.0005235135068917,0.0,0,False
2023-08-14,1.0005235135068917,1.0005235135068917,0.0,0,False
2023-08-15,1.0005235135068917,1.0005235135068917,0.0,0,False
2023-08-16,1.0005235135068917,1.0078493374706043,0.7321990802630074,4,True
2023-08-17,1.0078493374706043,1.0078493374706043,0.0,0,False
2023-08-18,1.0078493374706043,1.0502436568158628,4.206414368605471,4,True
2023-08-19,1.0502436568158628,1.0502436568158628,0.0,0,False
2023-08-20,1.0502436568158628,1.0502436568158628,0.0,0,False
2023-08-21,1.0502436568158628,1.0502436568158628,0.0,0,False
2023-08-22,1.0502436568158628,1.0502436568158628,0.0,0,False
2023-08-23,1.0502436568158628,1.0502436568158628,0.0,0,False
2023-08-24,1.0502436568158628,1.0502436568158628,0.0,0,False
2023-08-25,1.0502436568158628,1.0349863604950313,-1.4527387260865443,3,True
2023-08-26,1.0349863604950313,1.0349863604950313,0.0,0,False
2023-08-27,1.0349863604950313,1.0349863604950313,0.0,0,False
2023-08-28,1.0349863604950313,1.0349863604950313,0.0,0,False
2023-08-29,1.0349863604950313,1.0349863604950313,0.0,0,False
2023-08-30,1.0349863604950313,1.0349863604950313,0.0,0,False
2023-08-31,1.0349863604950313,1.0349863604950313,0.0,0,False
2023-09-01,1.0349863604950313,1.0349863604950313,0.0,0,False
2023-09-02,1.0349863604950313,1.0367749360630698,0.17281151098291758,1,True
2023-09-03,1.0367749360630698,1.0373630003432524,0.05672053400669341,0,True
2023-09-04,1.0373630003432524,1.0373630003432524,0.0,0,False
2023-09-05,1.0373630003432524,1.0373630003432524,0.0,0,False
2023-09-06,1.0373630003432524,1.0373630003432524,0.0,0,False
2023-09-07,1.0373630003432524,1.0373630003432524,0.0,0,False
2023-09-08,1.0373630003432524,1.0373630003432524,0.0,0,False
2023-09-09,1.0373630003432524,1.0373630003432524,0.0,0,False
2023-09-10,1.0373630003432524,1.0358442717956406,-0.14640280664619532,2,True
2023-09-11,1.0358442717956406,1.0353860094030614,-0.044240471763667966,1,True
2023-09-12,1.0353860094030614,1.0353860094030614,0.0,0,False
2023-09-13,1.0353860094030614,1.0320549251479005,-0.32172390054616695,1,True
2023-09-14,1.0320549251479005,1.0320549251479005,0.0,0,False
2023-09-15,1.0320549251479005,1.0320549251479005,0.0,0,False
2023-09-16,1.0320549251479005,1.0320549251479005,0.0,0,False
2023-09-17,1.0320549251479005,1.0320549251479005,0.0,0,False
2023-09-18,1.0320549251479005,1.0269001281298518,-0.49946925230844874,1,True
2023-09-19,1.0269001281298518,1.0269001281298518,0.0,0,False
2023-09-20,1.0269001281298518,1.029265218267127,0.23031354972975482,1,True
2023-09-21,1.029265218267127,1.0322970999388608,0.29456758257491167,0,True
2023-09-22,1.0322970999388608,1.0322970999388608,0.0,0,False
2023-09-23,1.0322970999388608,1.0322970999388608,0.0,0,False
2023-09-24,1.0322970999388608,1.0322970999388608,0.0,0,False
2023-09-25,1.0322970999388608,1.0322970999388608,0.0,0,False
2023-09-26,1.0322970999388608,1.0330965610387965,0.0774448654348836,1,True
2023-09-27,1.0330965610387965,1.0317672269752027,-0.12867471577460154,0,True
2023-09-28,1.0317672269752027,1.0317672269752027,0.0,0,False
2023-09-29,1.0317672269752027,1.0317672269752027,0.0,0,False
2023-09-30,1.0317672269752027,1.0317672269752027,0.0,0,False
2023-10-01,1.0317672269752027,1.0317672269752027,0.0,0,False
2023-10-02,1.0317672269752027,1.0317672269752027,0.0,0,False
2023-10-03,1.0317672269752027,1.0319609976185644,0.01878046116368104,1,True
2023-10-04,1.0319609976185644,1.0295446051928383,-0.23415540231679355,0,True
2023-10-05,1.0295446051928383,1.0295446051928383,0.0,0,False
2023-10-06,1.0295446051928383,1.0295446051928383,0.0,0,False
2023-10-07,1.0295446051928383,1.0295446051928383,0.0,0,False
2023-10-08,1.0295446051928383,1.0295446051928383,0.0,0,False
2023-10-09,1.0295446051928383,1.0295446051928383,0.0,0,False
2023-10-10,1.0295446051928383,1.0295446051928383,0.0,0,False
2023-10-11,1.0295446051928383,1.0295446051928383,0.0,0,False
2023-10-12,1.0295446051928383,1.0295446051928383,0.0,0,False
2023-10-13,1.0295446051928383,1.0295446051928383,0.0,0,False
2023-10-14,1.0295446051928383,1.0295446051928383,0.0,0,False
2023-10-15,1.0295446051928383,1.0294582599018705,-0.008386745997435163,1,True
2023-10-16,1.0294582599018705,1.0301391539418465,0.06614100507980059,1,True
2023-10-17,1.0301391539418465,1.0245141369414452,-0.5460443842831397,1,True
2023-10-18,1.0245141369414452,1.0245141369414452,0.0,0,False
2023-10-19,1.0245141369414452,1.0153446570295244,-0.8950076510701122,2,True
2023-10-20,1.0153446570295244,1.0153446570295244,0.0,0,False
2023-10-21,1.0153446570295244,1.0161132333899214,0.07569610526592108,1,True
2023-10-22,1.0161132333899214,1.0161132333899214,0.0,0,False
2023-10-23,1.0161132333899214,1.0161132333899214,0.0,0,False
2023-10-24,1.0161132333899214,1.0161132333899214,0.0,0,False
2023-10-25,1.0161132333899214,1.0161132333899214,0.0,0,False
2023-10-26,1.0161132333899214,1.0224007160413056,0.6187777547594919,2,True
2023-10-27,1.0224007160413056,1.023198842307158,0.07806393846658821,1,True
2023-10-28,1.023198842307158,1.024484128884067,0.12561454565476193,0,True
2023-10-29,1.024484128884067,1.024484128884067,0.0,0,False
2023-10-30,1.024484128884067,1.024484128884067,0.0,0,False
2023-10-31,1.024484128884067,1.024484128884067,0.0,0,False
2023-11-01,1.024484128884067,1.024484128884067,0.0,0,False
2023-11-02,1.024484128884067,1.024484128884067,0.0,0,False
2023-11-03,1.024484128884067,1.024484128884067,0.0,0,False
2023-11-04,1.024484128884067,1.024484128884067,0.0,0,False
2023-11-05,1.024484128884067,1.024484128884067,0.0,0,False
2023-11-06,1.024484128884067,1.024484128884067,0.0,0,False
2023-11-07,1.024484128884067,1.019365834230958,-0.49959726156852957,1,True
2023-11-08,1.019365834230958,1.019365834230958,0.0,0,False
2023-11-09,1.019365834230958,1.0221514411081274,0.27326861305598804,3,True
2023-11-10,1.0221514411081274,1.034817474842846,1.2391543195387156,4,True
2023-11-11,1.034817474842846,1.034817474842846,0.0,0,False
2023-11-12,1.034817474842846,1.034817474842846,0.0,0,False
2023-11-13,1.034817474842846,1.034817474842846,0.0,0,False
2023-11-14,1.034817474842846,1.034817474842846,0.0,0,False
2023-11-15,1.034817474842846,1.034817474842846,0.0,0,False
2023-11-16,1.034817474842846,1.034817474842846,0.0,0,False
2023-11-17,1.034817474842846,1.034817474842846,0.0,0,False
2023-11-18,1.034817474842846,1.034817474842846,0.0,0,False
2023-11-19,1.034817474842846,1.034817474842846,0.0,0,False
2023-11-20,1.034817474842846,1.0364210450200337,0.15496164455777173,1,True
2023-11-21,1.0364210450200337,1.0327820297554295,-0.3511136021493888,0,True
2023-11-22,1.0327820297554295,1.0292508674400769,-0.3419077998664366,1,True
2023-11-23,1.0292508674400769,1.0292508674400769,0.0,0,False
2023-11-24,1.0292508674400769,1.0292508674400769,0.0,0,False
2023-11-25,1.0292508674400769,1.0330214939264815,0.36634669016921695,1,True
2023-11-26,1.0330214939264815,1.0330214939264815,0.0,0,False
2023-11-27,1.0330214939264815,1.027862841241964,-0.4993751548101555,1,True
2023-11-28,1.027862841241964,1.027862841241964,0.0,0,False
2023-11-29,1.027862841241964,1.0249147613054657,-0.286816471829654,1,True
2023-11-30,1.0249147613054657,1.0249147613054657,0.0,0,False
2023-12-01,1.0249147613054657,1.0249147613054657,0.0,0,False
2023-12-02,1.0249147613054657,1.0249147613054657,0.0,0,False
2023-12-03,1.0249147613054657,1.0255544508838206,0.06241392967549775,1,True
2023-12-04,1.0255544508838206,1.0341409596810744,0.837255280775584,4,True
2023-12-05,1.0341409596810744,1.0383727892385923,0.40921206320103654,0,True
2023-12-06,1.0383727892385923,1.0383727892385923,0.0,0,False
2023-12-07,1.0383727892385923,1.0331862521324298,-0.49948700119210043,1,True
2023-12-08,1.0331862521324298,1.0331862521324298,0.0,0,False
2023-12-09,1.0331862521324298,1.0331862521324298,0.0,0,False
2023-12-10,1.0331862521324298,1.0331862521324298,0.0,0,False
2023-12-11,1.0331862521324298,1.0443995352582705,1.0853109110479542,4,True
2023-12-12,1.0443995352582705,1.0443995352582705,0.0,0,False
2023-12-13,1.0443995352582705,1.0423741634526302,-0.19392691563572262,1,True
2023-12-14,1.0423741634526302,1.0423741634526302,0.0,0,False
2023-12-15,1.0423741634526302,1.0423741634526302,0.0,0,False
2023-12-16,1.0423741634526302,1.0423741634526302,0.0,0,False
2023-12-17,1.0423741634526302,1.0423741634526302,0.0,0,False
2023-12-18,1.0423741634526302,1.0459360714748207,0.3417110810183921,1,True
2023-12-19,1.0459360714748207,1.0433108578671573,-0.25099178422651747,0,True
2023-12-20,1.0433108578671573,1.0433108578671573,0.0,0,False
2023-12-21,1.0433108578671573,1.0433108578671573,0.0,0,False
2023-12-22,1.0433108578671573,1.0433108578671573,0.0,0,False
2023-12-23,1.0433108578671573,1.0433108578671573,0.0,0,False
2023-12-24,1.0433108578671573,1.0417063252393604,-0.15379238274938478,1,True
2023-12-25,1.0417063252393604,1.042681717392393,0.0936340818328496,0,True
2023-12-26,1.042681717392393,1.042681717392393,0.0,0,False
2023-12-27,1.042681717392393,1.0375203848887724,-0.49500556282202623,2,True
2023-12-28,1.0375203848887724,1.0375203848887724,0.0,0,False
2023-12-29,1.0375203848887724,1.0375203848887724,0.0,0,False
2023-12-30,1.0375203848887724,1.0375203848887724,0.0,0,False
2023-12-31,1.0375203848887724,1.0375203848887724,0.0,0,False
