day,start_equity,end_equity,return_pct,entries,active
2024-01-02,1.0,0.9984427074127776,-0.15572925872223697,1,True
2024-01-03,0.9984427074127776,0.9927288063571331,-0.5722813150141337,9,True
2024-01-04,0.9927288063571331,1.0102508444279406,1.7650377382626203,7,True
2024-01-05,1.0102508444279406,0.9952367440708074,-1.4861754820541528,4,True
2024-01-06,0.9952367440708074,0.9884793868119774,-0.6789698329656146,7,True
2024-01-07,0.9884793868119774,0.9797216264822619,-0.8859831015759378,3,True
2024-01-08,0.9797216264822619,0.9770622333770056,-0.27144374824152884,8,True
2024-01-09,0.9770622333770056,0.9751470052004964,-0.19601905703484634,0,True
2024-01-10,0.9751470052004964,0.9734341402291067,-0.17565197475405414,4,True
2024-01-11,0.9734341402291067,0.9743016627046316,0.0891197914345554,3,True
2024-01-12,0.9743016627046316,0.9662014840308212,-0.8313830288788182,7,True
2024-01-13,0.9662014840308212,0.9582791818615926,-0.8199430760733484,9,True
2024-01-14,0.9582791818615926,0.9646564974166839,0.6654966189187705,0,True
2024-01-15,0.9646564974166839,0.9598222690719079,-0.5011346896767743,2,True
2024-01-16,0.9598222690719079,0.9592674141361174,-0.057808091525846095,1,True
2024-01-17,0.9592674141361174,0.9620168100086894,0.28661412157402477,0,True
2024-01-18,0.9620168100086894,0.9596586235110394,-0.24512944816720283,1,True
2024-01-19,0.9596586235110394,0.9561065700143094,-0.3701371935505904,1,True
2024-01-20,0.9561065700143094,0.9791315161742217,2.408198717802734,7,True
2024-01-21,0.9791315161742217,0.9782057585884816,-0.09454884971503708,1,True
2024-01-22,0.9782057585884816,0.9613040014009648,-1.727832517762462,4,True
2024-01-23,0.9613040014009648,0.938830737548143,-2.3377894838750524,9,True
2024-01-24,0.938830737548143,0.940951375420532,0.22588074586558093,1,True
2024-01-25,0.940951375420532,0.9357124917578767,-0.5567645469792604,2,True
2024-01-26,0.9357124917578767,0.9357124917578767,0.0,0,False
2024-01-27,0.9357124917578767,0.9357124917578767,0.0,0,False
2024-01-28,0.9357124917578767,0.9329583181866379,-0.294339724594761,2,True
2024-01-29,0.9329583181866379,0.9329583181866379,0.0,0,False
2024-01-30,0.9329583181866379,0.9329583181866379,0.0,0,False
2024-01-31,0.9329583181866379,0.928744955792132,-0.4516131441643867,1,True
2024-02-01,0.928744955792132,0.928744955792132,0.0,0,False
2024-02-02,0.928744955792132,0.9281680177577903,-0.06212017957606397,2,True
2024-02-03,0.9281680177577903,0.9371195280737178,0.9644277915922927,1,True
2024-02-04,0.9371195280737178,0.934686425682696,-0.25963629165034474,1,True
2024-02-05,0.934686425682696,0.934686425682696,0.0,0,False
2024-02-06,0.934686425682696,0.9283417056959214,-0.6788073317894106,2,True
2024-02-07,0.9283417056959214,0.9252044698941893,-0.3379397674889928,4,True
2024-02-08,0.9252044698941893,0.9420222870718782,1.8177405886951936,1,True
2024-02-09,0.9420222870718782,0.9546576511039808,1.3413020270865994,0,True
2024-02-10,0.9546576511039808,0.9489178957319739,-0.6012370366873743,2,True
2024-02-11,0.9489178957319739,0.9477408134419714,-0.12404469293885168,0,True
2024-02-12,0.9477408134419714,0.9484992945754158,0.08003043898572315,1,True
2024-02-13,0.9484992945754158,0.9484992945754158,0.0,0,False
2024-02-14,0.9484992945754158,0.9498879319955303,0.14640363235443044,2,True
2024-02-15,0.9498879319955303,0.9638742610375484,1.4724188581526132,1,True
2024-02-16,0.9638742610375484,0.9630718662526015,-0.08324683181010206,3,True
2024-02-17,0.9630718662526015,0.9598895772417105,-0.33043110513377716,5,True
2024-02-18,0.9598895772417105,0.9668454622364466,0.724654706088601,1,True
2024-02-19,0.9668454622364466,0.9669451258337199,0.010308120704505264,2,True
2024-02-20,0.9669451258337199,0.9640762850633114,-0.2966911662060423,10,True
2024-02-21,0.9640762850633114,0.9509919552712274,-1.357188222011374,7,True
2024-02-22,0.9509919552712274,0.9750490018278063,2.5296792915264765,4,True
2024-02-23,0.9750490018278063,0.9695276443536346,-0.5662646147856609,3,True
2024-02-24,0.9695276443536346,0.9588800287623425,-1.0982271267149568,8,True
2024-02-25,0.9588800287623425,0.9418315928060741,-1.7779529706415276,4,True
2024-02-26,0.9418315928060741,0.9337483561838926,-0.8582464937387013,5,True
2024-02-27,0.9337483561838926,0.9333350298962061,-0.04426527607243047,3,True
2024-02-28,0.9333350298962061,0.9651636533013163,3.410203451664051,5,True
2024-02-29,0.9651636533013163,0.9747141954000685,0.9895256691530907,8,True
2024-03-01,0.9747141954000685,0.9726655023976057,-0.21018397106876696,6,True
2024-03-02,0.9726655023976057,0.9696430317360314,-0.31074101570621737,5,True
2024-03-03,0.9696430317360314,0.9754803336460944,0.6020052451273683,10,True
2024-03-04,0.9754803336460944,0.9836655384334269,0.8390948033506929,1,True
2024-03-05,0.9836655384334269,1.0101958044943302,2.6970819881679597,12,True
2024-03-06,1.0101958044943302,0.9905681592119358,-1.9429545435718176,16,True
2024-03-07,0.9905681592119358,0.991051628406846,0.04880726181375472,5,True
2024-03-08,0.991051628406846,0.9877520086312599,-0.3329412596688175,5,True
2024-03-09,0.9877520086312599,0.97480352607242,-1.3109041992010462,5,True
2024-03-10,0.97480352607242,0.9843468375447871,0.9789984563164378,9,True
2024-03-11,0.9843468375447871,0.9935647045256212,0.9364450241772238,3,True
2024-03-12,0.9935647045256212,0.9926765259400135,-0.08939312976417035,4,True
2024-03-13,0.9926765259400135,1.0055509304795127,1.296938549776594,5,True
2024-03-14,1.0055509304795127,1.0060440351346889,0.04903825755906421,5,True
2024-03-15,1.0060440351346889,0.9870066010709403,-1.8923062409688551,18,True
2024-03-16,0.9870066010709403,0.9838575677851358,-0.31904885766597113,3,True
2024-03-17,0.9838575677851358,0.9718957143607801,-1.2158114971137723,8,True
2024-03-18,0.9718957143607801,0.9735916356490326,0.174496220447673,4,True
2024-03-19,0.9735916356490326,0.9316966989989401,-4.303132352011607,16,True
2024-03-20,0.9316966989989401,0.9178610420948379,-1.4849958059278245,4,True
2024-03-21,0.9178610420948379,0.9129770922602807,-0.5321012234499656,4,True
2024-03-22,0.9129770922602807,0.9105775787633482,-0.26282296864557075,9,True
2024-03-23,0.9105775787633482,0.9140046765826471,0.3763652761967995,7,True
2024-03-24,0.9140046765826471,0.9078863912382065,-0.6693932209752007,4,True
2024-03-25,0.9078863912382065,0.9159338894742394,0.8863992580676827,4,True
2024-03-26,0.9159338894742394,0.9388261620809693,2.499336782905859,5,True
2024-03-27,0.9388261620809693,0.9334597881252867,-0.5716046455062185,7,True
2024-03-28,0.9334597881252867,0.9237620764497075,-1.038899778966973,2,True
2024-03-29,0.9237620764497075,0.9185963334085238,-0.5592070916179304,6,True
2024-03-30,0.9185963334085238,0.9095585448316124,-0.9838694373377255,2,True
2024-03-31,0.9095585448316124,0.9095585448316124,0.0,0,False
2024-04-01,0.9095585448316124,0.9100205017751004,0.05078913788596484,5,True
2024-04-02,0.9100205017751004,0.9049287176688305,-0.5595241092192671,6,True
2024-04-03,0.9049287176688305,0.8973186586240745,-0.8409567401463591,3,True
2024-04-04,0.8973186586240745,0.89663610096422,-0.0760663620771096,1,True
2024-04-05,0.89663610096422,0.8889339651975688,-0.859003530904956,5,True
2024-04-06,0.8889339651975688,0.8870634537539758,-0.21042186673307928,1,True
2024-04-07,0.8870634537539758,0.8986316731979892,1.3041028119304965,3,True
2024-04-08,0.8986316731979892,0.8922978281875225,-0.7048321575319427,1,True
2024-04-09,0.8922978281875225,0.8813394839314842,-1.228103880774578,3,True
2024-04-10,0.8813394839314842,0.8761583457765946,-0.5878708771536734,5,True
2024-04-11,0.8761583457765946,0.8779860969474886,0.20860968564695437,1,True
2024-04-12,0.8779860969474886,0.8655864066839766,-1.4122877693191649,9,True
2024-04-13,0.8655864066839766,0.8474965239026797,-2.0898991298394343,13,True
2024-04-14,0.8474965239026797,0.8254174916067306,-2.605206236631652,16,True
2024-04-15,0.8254174916067306,0.8236715989299094,-0.2115163168426082,4,True
2024-04-16,0.8236715989299094,0.8193142175300714,-0.5290192602851684,1,True
2024-04-17,0.8193142175300714,0.8221754237685385,0.3492196494639721,1,True
2024-04-18,0.8221754237685385,0.8202753369950357,-0.2311047884152817,1,True
2024-04-19,0.8202753369950357,0.8291272208000849,1.079135676256815,5,True
2024-04-20,0.8291272208000849,0.8299541212451319,0.099731431353689,0,True
2024-04-21,0.8299541212451319,0.8299541212451319,0.0,0,False
2024-04-22,0.8299541212451319,0.8299541212451319,0.0,0,False
2024-04-23,0.8299541212451319,0.8414009684391179,1.3792144530607287,3,True
2024-04-24,0.8414009684391179,0.8387790903142547,-0.31160864120790555,3,True
2024-04-25,0.8387790903142547,0.8397899702887585,0.12051802270429679,2,True
2024-04-26,0.8397899702887585,0.8389932738270092,-0.09486853736481171,2,True
2024-04-27,0.8389932738270092,0.836897069150197,-0.24984761406375844,6,True
2024-04-28,0.836897069150197,0.8371828680235303,0.034149823660323264,3,True
2024-04-29,0.8371828680235303,0.841266496726729,0.48778216315386036,2,True
2024-04-30,0.841266496726729,0.8331963852992967,-0.9592812097988235,2,True
2024-05-01,0.8331963852992967,0.8231339674739029,-1.2076886077439286,6,True
2024-05-02,0.8231339674739029,0.8197967966666628,-0.40542256049539427,4,True
2024-05-03,0.8197967966666628,0.8173867429874486,-0.29398183659824495,1,True
2024-05-04,0.8173867429874486,0.8179990708534339,0.0749128697325574,0,True
2024-05-05,0.8179990708534339,0.8163687311627489,-0.19930825703555755,1,True
2024-05-06,0.8163687311627489,0.8163687311627489,0.0,0,False
2024-05-07,0.8163687311627489,0.8194961783815532,0.38309248007941665,3,True
2024-05-08,0.8194961783815532,0.8220068923243933,0.30637286775376804,3,True
2024-05-09,0.8220068923243933,0.8159661347998851,-0.7348791817823663,1,True
2024-05-10,0.8159661347998851,0.8141933760213801,-0.21725886686949636,2,True
2024-05-11,0.8141933760213801,0.8080808718829469,-0.7507435356822079,4,True
2024-05-12,0.8080808718829469,0.8025374320449753,-0.6860006257856988,1,True
2024-05-13,0.8025374320449753,0.8021643972357925,-0.04648192025539233,5,True
2024-05-14,0.8021643972357925,0.8015763516147615,-0.0733073697931963,4,True
2024-05-15,0.8015763516147615,0.8058148203124516,0.5287666844401961,3,True
2024-05-16,0.8058148203124516,0.8134889758142959,0.952347277364396,2,True
2024-05-17,0.8134889758142959,0.8134889758142959,0.0,0,False
2024-05-18,0.8134889758142959,0.8102711522577981,-0.39555834832017966,2,True
2024-05-19,0.8102711522577981,0.8101959026255201,-0.009286969191524275,0,True
2024-05-20,0.8101959026255201,0.8158805972588283,0.7016444559749591,2,True
2024-05-21,0.8158805972588283,0.8098485028358061,-0.7393354423782972,2,True
2024-05-22,0.8098485028358061,0.8129742630512832,0.3859685119540046,1,True
2024-05-23,0.8129742630512832,0.8073983437565782,-0.6858666440161643,6,True
2024-05-24,0.8073983437565782,0.8072036646197543,-0.024111906883284018,3,True
2024-05-25,0.8072036646197543,0.8059143547549212,-0.15972547218804367,0,True
2024-05-26,0.8059143547549212,0.8098502872755008,0.48838099201948815,3,True
2024-05-27,0.8098502872755008,0.814335772235921,0.5538659466937101,3,True
2024-05-28,0.814335772235921,0.8227445809619341,1.0325972421578733,2,True
2024-05-29,0.8227445809619341,0.8192359724513795,-0.42645173140520853,1,True
2024-05-30,0.8192359724513795,0.8044484309843445,-1.8050405456179641,5,True
2024-05-31,0.8044484309843445,0.8019233080522499,-0.3138949415321557,1,True
2024-06-01,0.8019233080522499,0.7977907378807768,-0.5153323428783274,2,True
2024-06-02,0.7977907378807768,0.8071458623959165,1.1726288700706577,0,True
2024-06-03,0.8071458623959165,0.7960527113706608,-1.374367576180957,5,True
2024-06-04,0.7960527113706608,0.7980907896472045,0.25602303056471154,6,True
2024-06-05,0.7980907896472045,0.7978526061847007,-0.02984415627814707,0,True
2024-06-06,0.7978526061847007,0.7949630793453075,-0.3621629881251809,2,True
2024-06-07,0.7949630793453075,0.7929079522303198,-0.25851856122427463,0,True
2024-06-08,0.7929079522303198,0.8140651769571695,2.668307798823033,7,True
2024-06-09,0.8140651769571695,0.8201392720298333,0.7461435821843665,1,True
2024-06-10,0.8201392720298333,0.8193843706770276,-0.0920455072145554,0,True
2024-06-11,0.8193843706770276,0.817032247401632,-0.28705981704924,2,True
2024-06-12,0.817032247401632,0.8124521148142577,-0.5605816174257927,3,True
2024-06-13,0.8124521148142577,0.804332644339279,-0.9993783420497393,4,True
2024-06-14,0.804332644339279,0.7929437656172473,-1.415941377262775,6,True
2024-06-15,0.7929437656172473,0.7993363523143763,0.8061841172498196,5,True
2024-06-16,0.7993363523143763,0.8002529073129236,0.11466449585253446,0,True
2024-06-17,0.8002529073129236,0.7909795249535885,-1.1588064566329659,4,True
2024-06-18,0.7909795249535885,0.7953783032322835,0.5561178437524239,5,True
2024-06-19,0.7953783032322835,0.7903443692159307,-0.6328980808120943,2,True
2024-06-20,0.7903443692159307,0.7901491134470862,-0.024705150874704263,1,True
2024-06-21,0.7901491134470862,0.786774269570481,-0.42711480898612875,1,True
2024-06-22,0.786774269570481,0.7894583414591434,0.3411489155749514,2,True
2024-06-23,0.7894583414591434,0.7890444451421885,-0.052427885705774724,2,True
2024-06-24,0.7890444451421885,0.7892665602878967,0.028149890297757274,1,True
2024-06-25,0.7892665602878967,0.7975156715732084,1.045161634911107,0,True
2024-06-26,0.7975156715732084,0.7975156715732084,0.0,0,False
2024-06-27,0.7975156715732084,0.7937397582402931,-0.47345945258564504,2,True
2024-06-28,0.7937397582402931,0.7934869682648581,-0.03184796689477132,2,True
2024-06-29,0.7934869682648581,0.7787767923330053,-1.8538648421687287,5,True
2024-06-30,0.7787767923330053,0.7761078619966423,-0.34270799574903643,0,True
2024-07-01,0.7761078619966423,0.769619697820639,-0.8359874308335957,2,True
2024-07-02,0.769619697820639,0.769619697820639,0.0,0,False
2024-07-03,0.769619697820639,0.7675277304601932,-0.27181832356548696,1,True
2024-07-04,0.7675277304601932,0.7616431831276884,-0.7666885636791965,5,True
2024-07-05,0.7616431831276884,0.7219234799336163,-5.215001469712255,19,True
2024-07-06,0.7219234799336163,0.7263860079561527,0.6181441865482418,3,True
2024-07-07,0.7263860079561527,0.7272492321973063,0.1188382253648479,2,True
2024-07-08,0.7272492321973063,0.727880913836564,0.08685903144223239,2,True
2024-07-09,0.727880913836564,0.738035323927429,1.395064755488984,2,True
2024-07-10,0.738035323927429,0.7386350323270107,0.08125741141906673,1,True
2024-07-11,0.7386350323270107,0.7300695152391625,-1.1596413266323324,2,True
2024-07-12,0.7300695152391625,0.7300695152391625,0.0,0,False
2024-07-13,0.7300695152391625,0.7290326196102948,-0.1420269723942824,2,True
2024-07-14,0.7290326196102948,0.743634643965433,2.0029315509837886,1,True
2024-07-15,0.743634643965433,0.7457689195358387,0.2870059360097432,0,True
2024-07-16,0.7457689195358387,0.7426502433440337,-0.4181826447991366,3,True
2024-07-17,0.7426502433440337,0.7389422201255728,-0.4992960349362252,1,True
2024-07-18,0.7389422201255728,0.7389422201255728,0.0,0,False
2024-07-19,0.7389422201255728,0.7336193365639228,-0.720338264167053,2,True
2024-07-20,0.7336193365639228,0.7342432990584786,0.08505262381419687,1,True
2024-07-21,0.7342432990584786,0.7339047637611236,-0.046106692126324234,1,True
2024-07-22,0.7339047637611236,0.7342327144532842,0.04468572876947796,1,True
2024-07-23,0.7342327144532842,0.7333657227553201,-0.11808132229707002,3,True
2024-07-24,0.7333657227553201,0.7324892580839203,-0.11951263117491173,1,True
2024-07-25,0.7324892580839203,0.730579119267814,-0.26077362842191754,3,True
2024-07-26,0.730579119267814,0.7255676057550855,-0.6859645150755322,0,True
2024-07-27,0.7255676057550855,0.7282640052667,0.3716262261747927,2,True
2024-07-28,0.7282640052667,0.7222965167473093,-0.8194128058279238,2,True
2024-07-29,0.7222965167473093,0.7222965167473093,0.0,0,False
2024-07-30,0.7222965167473093,0.7191138263861634,-0.4406348760310319,2,True
2024-07-31,0.7191138263861634,0.7090768970141246,-1.3957358353792748,8,True
2024-08-01,0.7090768970141246,0.7057126133996502,-0.4744596289402714,1,True
2024-08-02,0.7057126133996502,0.6968770547488838,-1.2520052048102914,4,True
2024-08-03,0.6968770547488838,0.6917493412037156,-0.7358132270571027,7,True
2024-08-04,0.6917493412037156,0.6784580443229258,-1.9214036196494977,5,True
2024-08-05,0.6784580443229258,0.655878566514586,-3.328058086609209,16,True
2024-08-06,0.655878566514586,0.6559271356651518,0.007405204720134506,0,True
2024-08-07,0.6559271356651518,0.6556146541747933,-0.04763966504323092,1,True
2024-08-08,0.6556146541747933,0.6527400702367264,-0.438456327930159,0,True
2024-08-09,0.6527400702367264,0.6527400702367264,0.0,0,False
2024-08-10,0.6527400702367264,0.6527400702367264,0.0,0,False
2024-08-11,0.6527400702367264,0.6522354535601196,-0.07730744589095062,1,True
2024-08-12,0.6522354535601196,0.6530692004218076,0.12782912323106022,1,True
2024-08-13,0.6530692004218076,0.6508199789803696,-0.3444078269171591,0,True
2024-08-14,0.6508199789803696,0.6508199789803696,0.0,0,False
2024-08-15,0.6508199789803696,0.6508199789803696,0.0,0,False
2024-08-16,0.6508199789803696,0.6508199789803696,0.0,0,False
2024-08-17,0.6508199789803696,0.6688906421973871,2.776599336321639,1,True
2024-08-18,0.6688906421973871,0.6841169651355447,2.276354605311437,1,True
2024-08-19,0.6841169651355447,0.6752652294381405,-1.2938921483478083,3,True
2024-08-20,0.6752652294381405,0.6705885526989712,-0.692568865579013,2,True
2024-08-21,0.6705885526989712,0.6705885526989712,0.0,0,False
2024-08-22,0.6705885526989712,0.6709223328498896,0.049774209472408515,1,True
2024-08-23,0.6709223328498896,0.6713696764840463,0.06667591944011786,0,True
2024-08-24,0.6713696764840463,0.6695694670212317,-0.26813982309155104,2,True
2024-08-25,0.6695694670212317,0.6679161306449486,-0.24692529419514386,2,True
2024-08-26,0.6679161306449486,0.669526820708711,0.24115154431245678,2,True
2024-08-27,0.669526820708711,0.6651844389957686,-0.648574721524342,1,True
2024-08-28,0.6651844389957686,0.6649265968211961,-0.03876250847986151,4,True
2024-08-29,0.6649265968211961,0.6649286395319628,0.0003072084612698589,3,True
2024-08-30,0.6649286395319628,0.6668208842169682,0.28457861077202384,0,True
2024-08-31,0.6668208842169682,0.6668208842169682,0.0,0,False
2024-09-01,0.6668208842169682,0.6634977084650246,-0.4983610787544279,1,True
2024-09-02,0.6634977084650246,0.6643857425331029,0.13384131651827946,1,True
2024-09-03,0.6643857425331029,0.6645192147478751,0.020089566381020774,0,True
2024-09-04,0.6645192147478751,0.6645192147478751,0.0,0,False
2024-09-05,0.6645192147478751,0.6645192147478751,0.0,0,False
2024-09-06,0.6645192147478751,0.6642926352707036,-0.03409675328311934,1,True
2024-09-07,0.6642926352707036,0.6634163520384196,-0.1319122305077025,0,True
2024-09-08,0.6634163520384196,0.6634163520384196,0.0,0,False
2024-09-09,0.6634163520384196,0.6634163520384196,0.0,0,False
2024-09-10,0.6634163520384196,0.6634163520384196,0.0,0,False
2024-09-11,0.6634163520384196,0.6568157261924269,-0.9949447018771207,2,True
2024-09-12,0.6568157261924269,0.6568157261924269,0.0,0,False
2024-09-13,0.6568157261924269,0.6550869204519568,-0.2632101625355432,1,True
2024-09-14,0.6550869204519568,0.6550869204519568,0.0,0,False
2024-09-15,0.6550869204519568,0.6565606131012,0.224961391112255,2,True
2024-09-16,0.6565606131012,0.6544544848661294,-0.3207819953016111,3,True
2024-09-17,0.6544544848661294,0.6592128466957936,0.727072995861211,1,True
2024-09-18,0.6592128466957936,0.6592876467296317,0.011346871380468748,0,True
2024-09-19,0.6592876467296317,0.6588831958818022,-0.06134664434191972,1,True
2024-09-20,0.6588831958818022,0.6608337231678327,0.2960353668483018,2,True
2024-09-21,0.6608337231678327,0.6538417601336682,-1.058051789585912,2,True
2024-09-22,0.6538417601336682,0.6587832133630763,0.7557567489109074,2,True
2024-09-23,0.6587832133630763,0.6561730993957284,-0.3962022581029845,0,True
2024-09-24,0.6561730993957284,0.6561730993957284,0.0,0,False
2024-09-25,0.6561730993957284,0.6561730993957284,0.0,0,False
2024-09-26,0.6561730993957284,0.6561730993957284,0.0,0,False
2024-09-27,0.6561730993957284,0.6561730993957284,0.0,0,False
2024-09-28,0.6561730993957284,0.6561730993957284,0.0,0,False
2024-09-29,0.6561730993957284,0.6561730993957284,0.0,0,False
2024-09-30,0.6561730993957284,0.6532611942791292,-0.44377087681296556,2,True
2024-10-01,0.6532611942791292,0.652160331505818,-0.16851801131797517,0,True
2024-10-02,0.652160331505818,0.6348349496854353,-2.656613869840707,13,True
2024-10-03,0.6348349496854353,0.6338176058287666,-0.1602532842863824,3,True
2024-10-04,0.6338176058287666,0.6277667156400644,-0.954673731536726,2,True
2024-10-05,0.6277667156400644,0.6277667156400644,0.0,0,False
2024-10-06,0.6277667156400644,0.6277667156400644,0.0,0,False
2024-10-07,0.6277667156400644,0.6277667156400644,0.0,0,False
2024-10-08,0.6277667156400644,0.6231949135653747,-0.7282644907397273,2,True
2024-10-09,0.6231949135653747,0.6231949135653747,0.0,0,False
2024-10-10,0.6231949135653747,0.6231949135653747,0.0,0,False
2024-10-11,0.6231949135653747,0.6225164655084404,-0.10886610948936948,1,True
2024-10-12,0.6225164655084404,0.6226683221572078,0.024393997136029633,1,True
2024-10-13,0.6226683221572078,0.6226683221572078,0.0,0,False
2024-10-14,0.6226683221572078,0.6226683221572078,0.0,0,False
2024-10-15,0.6226683221572078,0.622737909620555,0.011175687098718967,1,True
2024-10-16,0.622737909620555,0.618712910377915,-0.6463392031316184,5,True
2024-10-17,0.618712910377915,0.6166202580488996,-0.3382267112766568,2,True
2024-10-18,0.6166202580488996,0.616851482864466,0.0374987380884928,2,True
2024-10-19,0.616851482864466,0.6083394684204999,-1.3799131039515355,3,True
2024-10-20,0.6083394684204999,0.6073735441053825,-0.15878047788439043,2,True
2024-10-21,0.6073735441053825,0.6130838582550183,0.9401651100965802,2,True
2024-10-22,0.6130838582550183,0.6117788529107357,-0.2128591915626199,0,True
2024-10-23,0.6117788529107357,0.6087239505144715,-0.4993474981571544,1,True
2024-10-24,0.6087239505144715,0.6042837330543693,-0.7294303857026563,3,True
2024-10-25,0.6042837330543693,0.6032132559320688,-0.1771480951323623,2,True
2024-10-26,0.6032132559320688,0.5950152610360058,-1.359054167898821,10,True
2024-10-27,0.5950152610360058,0.5916767784712209,-0.561075115783094,2,True
2024-10-28,0.5916767784712209,0.5894545391660523,-0.3755833228592298,1,True
2024-10-29,0.5894545391660523,0.5993043292903755,1.671000810046941,2,True
2024-10-30,0.5993043292903755,0.6012891062416581,0.3311801457587915,0,True
2024-10-31,0.6012891062416581,0.6012891062416581,0.0,0,False
2024-11-01,0.6012891062416581,0.598629307288955,-0.4423494330918598,3,True
2024-11-02,0.598629307288955,0.598131398183199,-0.08317486292325205,1,True
2024-11-03,0.598131398183199,0.5968844213930647,-0.20847873793650162,2,True
2024-11-04,0.5968844213930647,0.6048215633237,1.3297619515870052,4,True
2024-11-05,0.6048215633237,0.6003349605667154,-0.7418060183451702,1,True
2024-11-06,0.6003349605667154,0.6001949723341526,-0.02331835421189865,2,True
2024-11-07,0.6001949723341526,0.5988229945044348,-0.2285886908352852,2,True
2024-11-08,0.5988229945044348,0.597627577674966,-0.19962774316274468,2,True
2024-11-09,0.597627577674966,0.5972946895798941,-0.055701595359269884,2,True
2024-11-10,0.5972946895798941,0.6049314658940946,1.2785608925423242,3,True
2024-11-11,0.6049314658940946,0.5988322470645946,-1.008249557738794,7,True
2024-11-12,0.5988322470645946,0.5859827363556733,-2.1457613166138034,6,True
2024-11-13,0.5859827363556733,0.5854313541149009,-0.09409530461623739,2,True
2024-11-14,0.5854313541149009,0.5895138048590284,0.6973406387329018,4,True
2024-11-15,0.5895138048590284,0.5912219395427656,0.2897531270104281,8,True
2024-11-16,0.5912219395427656,0.5898255464699848,-0.23618762758715883,1,True
2024-11-17,0.5898255464699848,0.5845204488130721,-0.8994350428974895,7,True
2024-11-18,0.5845204488130721,0.5840165571846925,-0.08620598807155266,2,True
2024-11-19,0.5840165571846925,0.5780540698645468,-1.020944911029309,4,True
2024-11-20,0.5780540698645468,0.5763391808521687,-0.29666584871201884,1,True
2024-11-21,0.5763391808521687,0.5829806399074748,1.1523525167048465,4,True
2024-11-22,0.5829806399074748,0.5836818367935599,0.12027790257260751,5,True
2024-11-23,0.5836818367935599,0.5891844530174122,0.9427424115303618,1,True
2024-11-24,0.5891844530174122,0.5893827797580764,0.03366123115580155,13,True
2024-11-25,0.5893827797580764,0.5956990729060405,1.0716792829537303,3,True
2024-11-26,0.5956990729060405,0.5910675218873743,-0.7774984433116194,5,True
2024-11-27,0.5910675218873743,0.5944431784458549,0.5711118329935649,3,True
2024-11-28,0.5944431784458549,0.5958272238303166,0.2328305605390657,3,True
2024-11-29,0.5958272238303166,0.5998348859195176,0.6726215132362379,5,True
2024-11-30,0.5998348859195176,0.5990114368431845,-0.13727929062858912,1,True
2024-12-01,0.5990114368431845,0.5989701487890998,-0.006892698794236374,3,True
2024-12-02,0.5989701487890998,0.603459006235188,0.7494292420353599,10,True
2024-12-03,0.603459006235188,0.5943005403084659,-1.5176616525883313,6,True
2024-12-04,0.5943005403084659,0.607307764590563,2.188661022476235,3,True
2024-12-05,0.607307764590563,0.6118208754266008,0.7431340580801749,9,True
2024-12-06,0.6118208754266008,0.6110047002231335,-0.13340100611934913,2,True
2024-12-07,0.6110047002231335,0.6114457420020515,0.07218304192373459,2,True
2024-12-08,0.6114457420020515,0.6102169666650366,-0.2009622853847315,0,True
2024-12-09,0.6102169666650366,0.6083747756163124,-0.30189115500870445,3,True
2024-12-10,0.6083747756163124,0.579307785913278,-4.777809808696965,16,True
2024-12-11,0.579307785913278,0.5896650495613727,1.7878688842005497,9,True
2024-12-12,0.5896650495613727,0.5890244032932442,-0.10864579282848785,0,True
2024-12-13,0.5890244032932442,0.5890244032932442,0.0,0,False
2024-12-14,0.5890244032932442,0.5890244032932442,0.0,0,False
2024-12-15,0.5890244032932442,0.5829950837756137,-1.0236111583697527,3,True
2024-12-16,0.5829950837756137,0.581292826254463,-0.2919848843538242,0,True
2024-12-17,0.581292826254463,0.581292826254463,0.0,0,False
2024-12-18,0.581292826254463,0.5784020244089756,-0.49730561171968946,2,True
2024-12-19,0.5784020244089756,0.5736751173000612,-0.8172355748139903,10,True
2024-12-20,0.5736751173000612,0.5601787181513481,-2.3526206282455386,17,True
2024-12-21,0.5601787181513481,0.5758250327600297,2.7930933649739753,2,True
2024-12-22,0.5758250327600297,0.5738593246759919,-0.3413724607657098,1,True
2024-12-23,0.5738593246759919,0.5769598383088026,0.540291583579533,3,True
2024-12-24,0.5769598383088026,0.5755413071629266,-0.24586306562238702,0,True
2024-12-25,0.5755413071629266,0.5788212821087144,0.5698939250696089,3,True
2024-12-26,0.5788212821087144,0.5746422466366695,-0.7219906387719854,1,True
2024-12-27,0.5746422466366695,0.5746422466366695,0.0,0,False
2024-12-28,0.5746422466366695,0.5717790678322904,-0.498254143536625,1,True
2024-12-29,0.5717790678322904,0.5943676554594605,3.9505796728108944,4,True
2024-12-30,0.5943676554594605,0.5944218124483189,0.009111698518760036,2,True
2024-12-31,0.5944218124483189,0.5936121693017875,-0.13620683655545252,2,True
