day,start_equity,end_equity,return_pct,entries,active
2021-09-02,1.0,1.0,0.0,0,False
2021-09-03,1.0,1.0,0.0,0,False
2021-09-04,1.0,1.0,0.0,0,False
2021-09-05,1.0,1.0,0.0,0,False
2021-09-06,1.0,1.0,0.0,0,False
2021-09-07,1.0,1.0,0.0,0,False
2021-09-08,1.0,1.0,0.0,0,False
2021-09-09,1.0,1.0,0.0,0,False
2021-09-10,1.0,1.0,0.0,0,False
2021-09-11,1.0,1.0,0.0,0,False
2021-09-12,1.0,1.0,0.0,0,False
2021-09-13,1.0,1.0,0.0,0,False
2021-09-14,1.0,1.0,0.0,0,False
2021-09-15,1.0,1.0,0.0,0,False
2021-09-16,1.0,1.0,0.0,0,False
2021-09-17,1.0,1.0,0.0,0,False
2021-09-18,1.0,1.0,0.0,0,False
2021-09-19,1.0,1.0,0.0,0,False
2021-09-20,1.0,1.0,0.0,0,False
2021-09-21,1.0,1.0,0.0,0,False
2021-09-22,1.0,1.0,0.0,0,False
2021-09-23,1.0,1.0,0.0,0,False
2021-09-24,1.0,1.0,0.0,0,False
2021-09-25,1.0,1.0,0.0,0,False
2021-09-26,1.0,1.0,0.0,0,False
2021-09-27,1.0,1.0,0.0,0,False
2021-09-28,1.0,1.0,0.0,0,False
2021-09-29,1.0,1.0,0.0,0,False
2021-09-30,1.0,1.0,0.0,0,False
2021-10-01,1.0,1.0,0.0,0,False
2021-10-02,1.0,1.0,0.0,0,False
2021-10-03,1.0,1.0,0.0,0,False
2021-10-04,1.0,1.0,0.0,0,False
2021-10-05,1.0,0.9993073753491394,-0.06926246508606182,1,True
2021-10-06,0.9993073753491394,1.0068745832603865,0.7572452778709104,5,True
2021-10-07,1.0068745832603865,0.9849672093040803,-2.175779816128376,2,True
2021-10-08,0.9849672093040803,0.9842991316950724,-0.0678273959475173,1,True
2021-10-09,0.9842991316950724,0.9865507057966187,0.2287489675693255,3,True
2021-10-10,0.9865507057966187,0.9741136286015426,-1.2606627436380413,1,True
2021-10-11,0.9741136286015426,0.9715747051250154,-0.2606393547919139,0,True
2021-10-12,0.9715747051250154,0.9715747051250154,0.0,0,False
2021-10-13,0.9715747051250154,0.9970138652684987,2.618343191655037,4,True
2021-10-14,0.9970138652684987,1.0253583084234057,2.8429336985472897,1,True
2021-10-15,1.0253583084234057,1.0295916410737664,0.4128637390055312,6,True
2021-10-16,1.0295916410737664,1.075855087458878,4.493378203504372,2,True
2021-10-17,1.075855087458878,1.0760913686504139,0.021962176346068674,0,True
2021-10-18,1.0760913686504139,1.065345248685316,-0.9986252355666636,2,True
2021-10-19,1.065345248685316,1.065345248685316,0.0,0,False
2021-10-20,1.065345248685316,1.065345248685316,0.0,0,False
2021-10-21,1.065345248685316,1.065345248685316,0.0,0,False
2021-10-22,1.065345248685316,1.065345248685316,0.0,0,False
2021-10-23,1.065345248685316,1.065345248685316,0.0,0,False
2021-10-24,1.065345248685316,1.0698929317424644,0.4268741107880558,1,True
2021-10-25,1.0698929317424644,1.0613371565900278,-0.799685173964304,2,True
2021-10-26,1.0613371565900278,1.0679551833573753,0.6235555521876268,0,True
2021-10-27,1.0679551833573753,1.0779753771391904,0.9382597638895485,7,True
2021-10-28,1.0779753771391904,1.077537832571762,-0.04058947696835569,3,True
2021-10-29,1.077537832571762,1.0731121810105022,-0.4107189026205216,2,True
2021-10-30,1.0731121810105022,1.1359262871571694,5.8534519743795865,2,True
2021-10-31,1.1359262871571694,1.159127097971537,2.042457426742983,9,True
2021-11-01,1.159127097971537,1.1345789452325346,-2.11781372223645,8,True
2021-11-02,1.1345789452325346,1.1562954559192267,1.9140590240938504,3,True
2021-11-03,1.1562954559192267,1.146681175737597,-0.8314726251333893,2,True
2021-11-04,1.146681175737597,1.167616384563788,1.82572185444001,5,True
2021-11-05,1.167616384563788,1.147141414295342,-1.753569968624169,5,True
2021-11-06,1.147141414295342,1.140425070873195,-0.5854852190366411,3,True
2021-11-07,1.140425070873195,1.1363881511281122,-0.3539837774691912,0,True
2021-11-08,1.1363881511281122,1.1363881511281122,0.0,0,False
2021-11-09,1.1363881511281122,1.1437991973740833,0.6521580006456418,1,True
2021-11-10,1.1437991973740833,1.16981424771145,2.2744420871330995,0,True
2021-11-11,1.16981424771145,1.1630854058489415,-0.5752060103279111,14,True
2021-11-12,1.1630854058489415,1.149340020471365,-1.1818036154914724,6,True
2021-11-13,1.149340020471365,1.1470400895344786,-0.20010883602080698,1,True
2021-11-14,1.1470400895344786,1.1456107403252695,-0.1246119662468903,2,True
2021-11-15,1.1456107403252695,1.1434277923443512,-0.1905488403764921,0,True
2021-11-16,1.1434277923443512,1.173617621086459,2.640291668983319,9,True
2021-11-17,1.173617621086459,1.1494764776198292,-2.05698542974172,1,True
2021-11-18,1.1494764776198292,1.1365825890255226,-1.1217183513842266,4,True
2021-11-19,1.1365825890255226,1.1495054844797288,1.136995725518375,7,True
2021-11-20,1.1495054844797288,1.1597729363183322,0.8932059896391564,0,True
2021-11-21,1.1597729363183322,1.1483489746402151,-0.9850170943272896,3,True
2021-11-22,1.1483489746402151,1.1391365264539455,-0.8022341979410874,9,True
2021-11-23,1.1391365264539455,1.135260330937076,-0.3402748860082516,0,True
2021-11-24,1.135260330937076,1.1189997849874112,-1.4323186943599797,4,True
2021-11-25,1.1189997849874112,1.1364019943846548,1.5551575282420238,7,True
2021-11-26,1.1364019943846548,1.1038192242094058,-2.867186993357229,13,True
2021-11-27,1.1038192242094058,1.1137759332291988,0.9020235199223237,5,True
2021-11-28,1.1137759332291988,1.066044120979767,-4.285584813369203,10,True
2021-11-29,1.066044120979767,1.049901727242057,-1.5142331747839965,2,True
2021-11-30,1.049901727242057,1.0385316934198907,-1.0829617217635978,3,True
2021-12-01,1.0385316934198907,1.0297516114479548,-0.845432260523804,1,True
2021-12-02,1.0297516114479548,1.0208865804739258,-0.8608902259025109,7,True
2021-12-03,1.0208865804739258,0.9906852475687693,-2.9583436086637716,2,True
2021-12-04,0.9906852475687693,0.9047891654306998,-8.670370569145568,22,True
2021-12-05,0.9047891654306998,0.8972128075796829,-0.8373616904895576,4,True
2021-12-06,0.8972128075796829,0.8769400333552632,-2.259527957375851,15,True
2021-12-07,0.8769400333552632,0.9094047210172053,3.7020419215814337,1,True
2021-12-08,0.9094047210172053,0.901678902317361,-0.8495467992735484,4,True
2021-12-09,0.901678902317361,0.8829041561163462,-2.08219867990288,4,True
2021-12-10,0.8829041561163462,0.8664075818230156,-1.86844451677457,4,True
2021-12-11,0.8664075818230156,0.8585573930949116,-0.9060618688938815,2,True
2021-12-12,0.8585573930949116,0.8585573930949116,0.0,0,False
2021-12-13,0.8585573930949116,0.8499991728759553,-0.9968139914451002,2,True
2021-12-14,0.8499991728759553,0.8457637236572929,-0.4982886282502874,1,True
2021-12-15,0.8457637236572929,0.8441028185352129,-0.196379328602303,1,True
2021-12-16,0.8441028185352129,0.8450532226286556,0.11259340362017589,1,True
2021-12-17,0.8450532226286556,0.8375603994465876,-0.8866687897787662,4,True
2021-12-18,0.8375603994465876,0.836531452106997,-0.12285052400644592,2,True
2021-12-19,0.836531452106997,0.831973821177767,-0.5448248141478151,1,True
2021-12-20,0.831973821177767,0.831973821177767,0.0,0,False
2021-12-21,0.831973821177767,0.8278322278396835,-0.4978033241743729,1,True
2021-12-22,0.8278322278396835,0.8218873821850127,-0.7181220366576535,2,True
2021-12-23,0.8218873821850127,0.8221286412997086,0.029354278934734523,0,True
2021-12-24,0.8221286412997086,0.8221286412997086,0.0,0,False
2021-12-25,0.8221286412997086,0.8249537307217518,0.34363106697961054,1,True
2021-12-26,0.8249537307217518,0.8244121770030898,-0.06564655670909803,0,True
2021-12-27,0.8244121770030898,0.8244121770030898,0.0,0,False
2021-12-28,0.8244121770030898,0.8203049420666971,-0.4982016339597606,1,True
2021-12-29,0.8203049420666971,0.8203049420666971,0.0,0,False
2021-12-30,0.8203049420666971,0.8203049420666971,0.0,0,False
2021-12-31,0.8203049420666971,0.8203049420666971,0.0,0,False
2022-01-01,0.8203049420666971,0.8203049420666971,0.0,0,False
2022-01-02,0.8203049420666971,0.8203049420666971,0.0,0,False
2022-01-03,0.8203049420666971,0.8203049420666971,0.0,0,False
2022-01-04,0.8203049420666971,0.8203049420666971,0.0,0,False
2022-01-05,0.8203049420666971,0.822604524924954,0.2803326836558151,1,True
2022-01-06,0.822604524924954,0.7778139740818183,-5.444967719721927,15,True
2022-01-07,0.7778139740818183,0.7785566816547359,0.09548652989865847,5,True
2022-01-08,0.7785566816547359,0.7873175188513257,1.1252664581812732,0,True
2022-01-09,0.7873175188513257,0.7883507906015007,0.13123952223017543,1,True
2022-01-10,0.7883507906015007,0.7906405917712918,0.29045460435752624,0,True
2022-01-11,0.7906405917712918,0.7906405917712918,0.0,0,False
2022-01-12,0.7906405917712918,0.7906405917712918,0.0,0,False
2022-01-13,0.7906405917712918,0.7906405917712918,0.0,0,False
2022-01-14,0.7906405917712918,0.7906405917712918,0.0,0,False
2022-01-15,0.7906405917712918,0.7913743529652615,0.09280590974034553,1,True
2022-01-16,0.7913743529652615,0.7897917989688963,-0.19997539602281122,0,True
2022-01-17,0.7897917989688963,0.7931887670073918,0.4301093076593654,1,True
2022-01-18,0.7931887670073918,0.8026726108200877,1.1956603783582764,0,True
2022-01-19,0.8026726108200877,0.79867438826291,-0.4981137394351465,1,True
2022-01-20,0.79867438826291,0.79867438826291,0.0,0,False
2022-01-21,0.79867438826291,0.763493776871594,-4.404875367023187,9,True
2022-01-22,0.763493776871594,0.7237972649987559,-5.199323566918135,27,True
2022-01-23,0.7237972649987559,0.7442650704547524,2.8278368053838543,0,True
2022-01-24,0.7442650704547524,0.7358579362950182,-1.1295887034705854,6,True
2022-01-25,0.7358579362950182,0.7633690265512578,3.7386415093592085,0,True
2022-01-26,0.7633690265512578,0.7646206067073776,0.16395479939423918,1,True
2022-01-27,0.7646206067073776,0.7585420197874804,-0.7949807874094605,10,True
2022-01-28,0.7585420197874804,0.7480871831632976,-1.378280484331229,0,True
2022-01-29,0.7480871831632976,0.7480871831632976,0.0,0,False
2022-01-30,0.7480871831632976,0.7583950948369634,1.3779024565129916,1,True
2022-01-31,0.7583950948369634,0.763751433459213,0.7062728462663648,2,True
2022-02-01,0.763751433459213,0.7722714098642355,1.1155430984179482,1,True
2022-02-02,0.7722714098642355,0.7715716124480588,-0.09061547627403632,1,True
2022-02-03,0.7715716124480588,0.7744828880925985,0.37731761998121005,4,True
2022-02-04,0.7744828880925985,0.7869512577605448,1.6098960815846386,0,True
2022-02-05,0.7869512577605448,0.7869512577605448,0.0,0,False
2022-02-06,0.7869512577605448,0.7869512577605448,0.0,0,False
2022-02-07,0.7869512577605448,0.7869512577605448,0.0,0,False
2022-02-08,0.7869512577605448,0.7792161134871157,-0.9829254603952453,3,True
2022-02-09,0.7792161134871157,0.7896034808823934,1.3330534643069214,2,True
2022-02-10,0.7896034808823934,0.7942765297235658,0.5918222189129851,5,True
2022-02-11,0.7942765297235658,0.7695821667150028,-3.109038487786797,0,True
2022-02-12,0.7695821667150028,0.7505345811176088,-2.4750554809110814,5,True
2022-02-13,0.7505345811176088,0.7505345811176088,0.0,0,False
2022-02-14,0.7505345811176088,0.7505345811176088,0.0,0,False
2022-02-15,0.7505345811176088,0.7505345811176088,0.0,0,False
2022-02-16,0.7505345811176088,0.7505345811176088,0.0,0,False
2022-02-17,0.7505345811176088,0.7505345811176088,0.0,0,False
2022-02-18,0.7505345811176088,0.7505345811176088,0.0,0,False
2022-02-19,0.7505345811176088,0.7505345811176088,0.0,0,False
2022-02-20,0.7505345811176088,0.7505345811176088,0.0,0,False
2022-02-21,0.7505345811176088,0.7505345811176088,0.0,0,False
2022-02-22,0.7505345811176088,0.7430814554253037,-0.9930422767738256,2,True
2022-02-23,0.7430814554253037,0.7430814554253037,0.0,0,False
2022-02-24,0.7430814554253037,0.7301323763121556,-1.742619065326656,11,True
2022-02-25,0.7301323763121556,0.7676403452183362,5.1371463755149005,0,True
2022-02-26,0.7676403452183362,0.7676403452183362,0.0,0,False
2022-02-27,0.7676403452183362,0.7676403452183362,0.0,0,False
2022-02-28,0.7676403452183362,0.7599960481602617,-0.9958175212768872,2,True
2022-03-01,0.7599960481602617,0.7599960481602617,0.0,0,False
2022-03-02,0.7599960481602617,0.7599960481602617,0.0,0,False
2022-03-03,0.7599960481602617,0.7599960481602617,0.0,0,False
2022-03-04,0.7599960481602617,0.7715707152171897,1.5229904267195948,3,True
2022-03-05,0.7715707152171897,0.7626155468153938,-1.1606413028875884,2,True
2022-03-06,0.7626155468153938,0.7585108393255983,-0.5382407304619474,4,True
2022-03-07,0.7585108393255983,0.7470411397901544,-1.512133899845347,0,True
2022-03-08,0.7470411397901544,0.7433259784912951,-0.49731682781257724,1,True
2022-03-09,0.7433259784912951,0.757912433860153,1.9623228288702554,2,True
2022-03-10,0.757912433860153,0.7509609515879758,-0.9171880499139307,4,True
2022-03-11,0.7509609515879758,0.7406182776883915,-1.3772585482259458,2,True
2022-03-12,0.7406182776883915,0.7378634941014851,-0.3719572781142544,0,True
2022-03-13,0.7378634941014851,0.7378634941014851,0.0,0,False
2022-03-14,0.7378634941014851,0.7341883941926264,-0.4980731447263187,1,True
2022-03-15,0.7341883941926264,0.7356838837000577,0.20369288308839106,1,True
2022-03-16,0.7356838837000577,0.7407219265430088,0.6848108208667991,1,True
2022-03-17,0.7407219265430088,0.7427960747930097,0.280017125951848,1,True
2022-03-18,0.7427960747930097,0.741005834405192,-0.24101371137651428,0,True
2022-03-19,0.741005834405192,0.741005834405192,0.0,0,False
2022-03-20,0.741005834405192,0.7288299732815416,-1.6431532058615916,4,True
2022-03-21,0.7288299732815416,0.7322447181355473,0.4685242071797324,3,True
2022-03-22,0.7322447181355473,0.7265602267798383,-0.7763103256221315,0,True
2022-03-23,0.7265602267798383,0.725845034842613,-0.09843532729491011,2,True
2022-03-24,0.725845034842613,0.7192997593246819,-0.901745579805513,0,True
2022-03-25,0.7192997593246819,0.7192997593246819,0.0,0,False
2022-03-26,0.7192997593246819,0.7211707558823186,0.26011360818378737,1,True
2022-03-27,0.7211707558823186,0.7410257743389189,2.7531646693450096,2,True
2022-03-28,0.7410257743389189,0.7419899296100262,0.1301108955309216,2,True
2022-03-29,0.7419899296100262,0.7470138897741374,0.6770927695409101,1,True
2022-03-30,0.7470138897741374,0.7488885180162512,0.25094958310354354,6,True
2022-03-31,0.7488885180162512,0.7506502077380576,0.23524058380184343,7,True
2022-04-01,0.7506502077380576,0.7292308958878388,-2.853434479790762,9,True
2022-04-02,0.7292308958878388,0.7305656973960667,0.18304236912545235,0,True
2022-04-03,0.7305656973960667,0.7212820992471386,-1.270741041088752,3,True
2022-04-04,0.7212820992471386,0.7149019222326305,-0.8845605652999855,2,True
2022-04-05,0.7149019222326305,0.7071096356098491,-1.0899798112790404,7,True
2022-04-06,0.7071096356098491,0.6742600801051108,-4.6456099380412175,12,True
2022-04-07,0.6742600801051108,0.6724496688194749,-0.2685034067794301,3,True
2022-04-08,0.6724496688194749,0.6740345814488441,0.2356923800931554,0,True
2022-04-09,0.6740345814488441,0.6736363182364551,-0.0590864657912582,1,True
2022-04-10,0.6736363182364551,0.6706660085171953,-0.4409366951942162,0,True
2022-04-11,0.6706660085171953,0.6603613629251455,-1.5364794787845026,7,True
2022-04-12,0.6603613629251455,0.6499719982735792,-1.5732847551142903,1,True
2022-04-13,0.6499719982735792,0.6449195502938279,-0.7773331763785807,1,True
2022-04-14,0.6449195502938279,0.644208376436098,-0.11027326701538165,0,True
2022-04-15,0.644208376436098,0.6458299377105059,0.2517137829499694,1,True
2022-04-16,0.6458299377105059,0.645445423868794,-0.05953794013869862,0,True
2022-04-17,0.645445423868794,0.6510089093573939,0.8619606372375133,1,True
2022-04-18,0.6510089093573939,0.6717351746559419,3.1837145391768518,6,True
2022-04-19,0.6717351746559419,0.6872905525292652,2.315700957790501,2,True
2022-04-20,0.6872905525292652,0.6946627340824977,1.0726440987879782,1,True
2022-04-21,0.6946627340824977,0.6919151206391123,-0.39553200547232104,5,True
2022-04-22,0.6919151206391123,0.6839994886167293,-1.144017782856288,2,True
2022-04-23,0.6839994886167293,0.6764219248136112,-1.1078317936234816,2,True
2022-04-24,0.6764219248136112,0.6764219248136112,0.0,0,False
2022-04-25,0.6764219248136112,0.6663329005083116,-1.491528280677712,3,True
2022-04-26,0.6663329005083116,0.6609133728716078,-0.8133363417249129,2,True
2022-04-27,0.6609133728716078,0.656415227465702,-0.6805953080298188,1,True
2022-04-28,0.656415227465702,0.6587501492583414,0.35570804803752853,1,True
2022-04-29,0.6587501492583414,0.6477436791891633,-1.6708110171314239,3,True
2022-04-30,0.6477436791891633,0.6421005169939257,-0.8712029737290017,4,True
2022-05-01,0.6421005169939257,0.6447937835325414,0.4194462498215312,8,True
2022-05-02,0.6447937835325414,0.6512193510660996,0.9965306269479557,1,True
2022-05-03,0.6512193510660996,0.6578705196036876,1.0213407397521967,3,True
2022-05-04,0.6578705196036876,0.6525371607878767,-0.8107003820484016,2,True
2022-05-05,0.6525371607878767,0.6554661420572563,0.44886045506482564,0,True
2022-05-06,0.6554661420572563,0.6218418104872854,-5.129835000239225,13,True
2022-05-07,0.6218418104872854,0.6172616717713997,-0.7365440275391988,2,True
2022-05-08,0.6172616717713997,0.6120208377643532,-0.8490457526718731,3,True
2022-05-09,0.6120208377643532,0.6002533106649351,-1.9227330792205732,5,True
2022-05-10,0.6002533106649351,0.5858856974891693,-2.3935916588031847,18,True
2022-05-11,0.5858856974891693,0.5531260312670981,-5.591477375615018,28,True
2022-05-12,0.5531260312670981,0.5125580225505625,-7.33431558511225,18,True
2022-05-13,0.5125580225505625,0.5307429511402679,3.5478770772555013,6,True
2022-05-14,0.5307429511402679,0.506095725565149,-4.643910111696425,15,True
2022-05-15,0.506095725565149,0.5384339925846631,6.3897530419571025,3,True
2022-05-16,0.5384339925846631,0.5394924840673536,0.19658704637302016,8,True
2022-05-17,0.5394924840673536,0.55337620004232,2.573477181793904,4,True
2022-05-18,0.55337620004232,0.5375589503056235,-2.858317675296995,2,True
2022-05-19,0.5375589503056235,0.5458721845867011,1.546478628316228,8,True
2022-05-20,0.5458721845867011,0.5598661829854639,2.5636034943524733,1,True
2022-05-21,0.5598661829854639,0.5606588619455316,0.1415836469780718,0,True
2022-05-22,0.5606588619455316,0.5592737750668589,-0.24704628298682918,1,True
2022-05-23,0.5592737750668589,0.558654991436284,-0.11064055891069069,4,True
2022-05-24,0.558654991436284,0.522433838724395,-6.483635386263298,13,True
2022-05-25,0.522433838724395,0.5171936356098821,-1.003036695958992,1,True
2022-05-26,0.5171936356098821,0.5103216194861061,-1.3287124300499942,13,True
2022-05-27,0.5103216194861061,0.4935156210145397,-3.293217028212525,5,True
2022-05-28,0.4935156210145397,0.4956104184280316,0.4244642569136037,1,True
2022-05-29,0.4956104184280316,0.507078473438423,2.3139253300537233,3,True
2022-05-30,0.507078473438423,0.5168278177531238,1.922650008901372,0,True
2022-05-31,0.5168278177531238,0.5106586598345949,-1.193658256505803,8,True
2022-06-01,0.5106586598345949,0.5035309264655069,-1.3957921268576423,5,True
2022-06-02,0.5035309264655069,0.4964797478600783,-1.4003466787876895,11,True
2022-06-03,0.4964797478600783,0.49862048631554506,0.43118343994770214,0,True
2022-06-04,0.49862048631554506,0.49862048631554506,0.0,0,False
2022-06-05,0.49862048631554506,0.49862048631554506,0.0,0,False
2022-06-06,0.49862048631554506,0.50067256281634,0.41155078002477197,1,True
2022-06-07,0.50067256281634,0.49467748950959956,-1.1974040025316102,4,True
2022-06-08,0.49467748950959956,0.5031211347212118,1.7068990181831056,6,True
2022-06-09,0.5031211347212118,0.5024972135524519,-0.12401012911246179,5,True
2022-06-10,0.5024972135524519,0.49502912689195133,-1.4861946413004423,6,True
2022-06-11,0.49502912689195133,0.491422255484071,-0.7286180169894574,6,True
2022-06-12,0.491422255484071,0.48568190249290816,-1.1681100982104176,16,True
2022-06-13,0.48568190249290816,0.4458984905397561,-8.19124858244702,15,True
2022-06-14,0.4458984905397561,0.4663157511871569,4.578903288657887,4,True
2022-06-15,0.4663157511871569,0.4622660585177959,-0.8684443231975814,8,True
2022-06-16,0.4622660585177959,0.4653420792404095,0.6654221450903108,7,True
2022-06-17,0.4653420792404095,0.46341959072008115,-0.41313446732916814,2,True
2022-06-18,0.46341959072008115,0.4573120089483199,-1.3179377596598818,9,True
2022-06-19,0.4573120089483199,0.4561739641320354,-0.24885522225879253,3,True
2022-06-20,0.4561739641320354,0.46245533340869216,1.3769679487535713,2,True
2022-06-21,0.46245533340869216,0.4663409046343329,0.8402046521986728,0,True
2022-06-22,0.4663409046343329,0.4666125996756112,0.05826103577410979,8,True
2022-06-23,0.4666125996756112,0.4594494244475863,-1.535143978753406,1,True
2022-06-24,0.4594494244475863,0.4548863378300661,-0.9931640730656222,2,True
2022-06-25,0.4548863378300661,0.453691573709511,-0.2626511330840242,4,True
2022-06-26,0.453691573709511,0.45786844149013856,0.9206403695083631,0,True
2022-06-27,0.45786844149013856,0.45593102979822553,-0.42313719757747226,5,True
2022-06-28,0.45593102979822553,0.45350732294915347,-0.5315950638728584,3,True
2022-06-29,0.45350732294915347,0.45673518106362765,0.7117543534872706,5,True
2022-06-30,0.45673518106362765,0.4495346098471256,-1.576530890336414,4,True
2022-07-01,0.4495346098471256,0.4605288896180084,2.445702628908064,1,True
2022-07-02,0.4605288896180084,0.45935372822776505,-0.25517647572949054,2,True
2022-07-03,0.45935372822776505,0.4567132065616532,-0.5748340557285236,3,True
2022-07-04,0.4567132065616532,0.45868246012363295,0.4311794652940293,0,True
2022-07-05,0.45868246012363295,0.4590520397492543,0.08057417881681683,1,True
2022-07-06,0.4590520397492543,0.4601340701471438,0.23570974621538454,0,True
2022-07-07,0.4601340701471438,0.4601340701471438,0.0,0,False
2022-07-08,0.4601340701471438,0.4601340701471438,0.0,0,False
2022-07-09,0.4601340701471438,0.4601340701471438,0.0,0,False
2022-07-10,0.4601340701471438,0.4601340701471438,0.0,0,False
2022-07-11,0.4601340701471438,0.457844375208806,-0.49761473598457506,1,True
2022-07-12,0.457844375208806,0.46130901853309747,0.7567294722603979,2,True
2022-07-13,0.46130901853309747,0.46718082023292024,1.272856472326156,6,True
2022-07-14,0.46718082023292024,0.47293376596813386,1.2314173626274627,0,True
2022-07-15,0.47293376596813386,0.47293376596813386,0.0,0,False
2022-07-16,0.47293376596813386,0.47293376596813386,0.0,0,False
2022-07-17,0.47293376596813386,0.47293376596813386,0.0,0,False
2022-07-18,0.47293376596813386,0.47408804496404877,0.24406779108951948,1,True
2022-07-19,0.47408804496404877,0.47470939367226905,0.1310618807667696,4,True
2022-07-20,0.47470939367226905,0.4677580735341997,-1.464331700768584,2,True
2022-07-21,0.4677580735341997,0.45507247488038477,-2.7119999357718028,8,True
2022-07-22,0.45507247488038477,0.46025508835618656,1.1388545257904337,0,True
2022-07-23,0.46025508835618656,0.46266736151991966,0.5241165659566338,3,True
2022-07-24,0.46266736151991966,0.46325985650492935,0.12806068339534793,3,True
2022-07-25,0.46325985650492935,0.4641914493817407,0.20109510110366546,1,True
2022-07-26,0.4641914493817407,0.4603953005528393,-0.8177980947209451,1,True
2022-07-27,0.4603953005528393,0.4577556762457105,-0.5733386730835677,1,True
2022-07-28,0.4577556762457105,0.4562631566339209,-0.32605157931202555,0,True
2022-07-29,0.4562631566339209,0.45866957606928443,0.5274191878907875,4,True
2022-07-30,0.45866957606928443,0.46215833276993146,0.7606252698391325,2,True
2022-07-31,0.46215833276993146,0.45740554524249316,-1.0283894480388578,6,True
2022-08-01,0.45740554524249316,0.45239699065808037,-1.0949920997913365,2,True
2022-08-02,0.45239699065808037,0.4450413719916653,-1.6259212192625716,6,True
2022-08-03,0.4450413719916653,0.4467138943919791,0.37581279080389773,2,True
2022-08-04,0.4467138943919791,0.4444716133202342,-0.5019501519640146,0,True
2022-08-05,0.4444716133202342,0.4496910826652014,1.1743088171542349,2,True
2022-08-06,0.4496910826652014,0.4490252231688421,-0.14807042479316745,0,True
2022-08-07,0.4490252231688421,0.44999308966165374,0.21554835739099332,2,True
2022-08-08,0.44999308966165374,0.45058050815907624,0.13053944847556398,0,True
2022-08-09,0.45058050815907624,0.44965081185015193,-0.20633300644156138,6,True
2022-08-10,0.44965081185015193,0.47867882193257233,6.45567834359746,2,True
2022-08-11,0.47867882193257233,0.4790743514491382,0.08262941631069776,3,True
2022-08-12,0.4790743514491382,0.47052134814734825,-1.7853185577391462,4,True
2022-08-13,0.47052134814734825,0.46864301128268504,-0.39920332458007746,0,True
2022-08-14,0.46864301128268504,0.46864301128268504,0.0,0,False
2022-08-15,0.46864301128268504,0.46630288636793343,-0.49934061928004203,1,True
2022-08-16,0.46630288636793343,0.4616725360701112,-0.9929919872228021,2,True
2022-08-17,0.4616725360701112,0.4593776010206691,-0.4970915248667884,1,True
2022-08-18,0.4593776010206691,0.4570920149311312,-0.497539732990826,1,True
2022-08-19,0.4570920149311312,0.4440815707247784,-2.846351233747346,12,True
2022-08-20,0.4440815707247784,0.4459737116349675,0.4260795842306653,2,True
2022-08-21,0.4459737116349675,0.45045703704482115,1.0052891668025588,1,True
2022-08-22,0.45045703704482115,0.4482765574858209,-0.48405938406580473,0,True
2022-08-23,0.4482765574858209,0.4482765574858209,0.0,0,False
2022-08-24,0.4482765574858209,0.4482765574858209,0.0,0,False
2022-08-25,0.4482765574858209,0.4467347311219044,-0.3439453476139498,1,True
2022-08-26,0.4467347311219044,0.44671580468305705,-0.004236616839670138,1,True
2022-08-27,0.44671580468305705,0.43462733473775356,-2.706076171600913,6,True
2022-08-28,0.43462733473775356,0.4333502156189288,-0.2938423372739196,1,True
2022-08-29,0.4333502156189288,0.4314849334884636,-0.4304329531257034,1,True
2022-08-30,0.4314849334884636,0.42934180779776665,-0.4966861005714085,1,True
2022-08-31,0.42934180779776665,0.4285443505622318,-0.1857394786744182,2,True
2022-09-01,0.4285443505622318,0.42174402303137554,-1.5868433505037527,2,True
2022-09-02,0.42174402303137554,0.421826624233898,0.01958562493162841,0,True
2022-09-03,0.421826624233898,0.421826624233898,0.0,0,False
2022-09-04,0.421826624233898,0.421826624233898,0.0,0,False
2022-09-05,0.421826624233898,0.421826624233898,0.0,0,False
2022-09-06,0.421826624233898,0.419728156747961,-0.49747155949393385,1,True
2022-09-07,0.419728156747961,0.4163942158035575,-0.7943095765208463,5,True
2022-09-08,0.4163942158035575,0.4144800040177445,-0.4597114256544077,2,True
2022-09-09,0.4144800040177445,0.4140096878670984,-0.11347137282549102,0,True
2022-09-10,0.4140096878670984,0.4131401935130679,-0.21001787627482615,2,True
2022-09-11,0.4131401935130679,0.4141008827160386,0.2325334639560639,0,True
2022-09-12,0.4141008827160386,0.4141008827160386,0.0,0,False
2022-09-13,0.4141008827160386,0.4052404928956606,-2.139669387387866,6,True
2022-09-14,0.4052404928956606,0.41309425337964767,1.9380492871943211,4,True
2022-09-15,0.41309425337964767,0.4112955726722026,-0.43541654059079393,3,True
2022-09-16,0.4112955726722026,0.4018041052979857,-2.307699864734869,3,True
2022-09-17,0.4018041052979857,0.3998045490667741,-0.4976445498805271,1,True
2022-09-18,0.3998045490667741,0.3998045490667741,0.0,0,False
2022-09-19,0.3998045490667741,0.4080454277426133,2.061226840733843,8,True
2022-09-20,0.4080454277426133,0.40915559102405835,0.2720685506970799,0,True
2022-09-21,0.40915559102405835,0.40915559102405835,0.0,0,False
2022-09-22,0.40915559102405835,0.4097754803972679,0.15150455885450942,2,True
2022-09-23,0.4097754803972679,0.4057190573928525,-0.9899135498499745,3,True
2022-09-24,0.4057190573928525,0.40577335045661134,0.01338193579263347,0,True
2022-09-25,0.40577335045661134,0.40577335045661134,0.0,0,False
2022-09-26,0.40577335045661134,0.40577335045661134,0.0,0,False
2022-09-27,0.40577335045661134,0.40577335045661134,0.0,0,False
2022-09-28,0.40577335045661134,0.40577335045661134,0.0,0,False
2022-09-29,0.40577335045661134,0.40577335045661134,0.0,0,False
2022-09-30,0.40577335045661134,0.4043575347348553,-0.34891786761324095,1,True
2022-10-01,0.4043575347348553,0.40374547176296777,-0.15136677798990306,0,True
2022-10-02,0.40374547176296777,0.40374547176296777,0.0,0,False
2022-10-03,0.40374547176296777,0.40374547176296777,0.0,0,False
2022-10-04,0.40374547176296777,0.40374547176296777,0.0,0,False
2022-10-05,0.40374547176296777,0.40374547176296777,0.0,0,False
2022-10-06,0.40374547176296777,0.40374547176296777,0.0,0,False
2022-10-07,0.40374547176296777,0.40374547176296777,0.0,0,False
2022-10-08,0.40374547176296777,0.4017340061819067,-0.49820139710247124,1,True
2022-10-09,0.4017340061819067,0.4017340061819067,0.0,0,False
2022-10-10,0.4017340061819067,0.4024400330979678,0.17574487227784985,1,True
2022-10-11,0.4024400330979678,0.4095413987668565,1.7645773493811578,5,True
2022-10-12,0.4095413987668565,0.4076232901129372,-0.46835525289868896,2,True
2022-10-13,0.4076232901129372,0.40819584239797524,0.14046113137435867,1,True
2022-10-14,0.40819584239797524,0.4151507100777311,1.7038065941335834,0,True
2022-10-15,0.4151507100777311,0.4151507100777311,0.0,0,False
2022-10-16,0.4151507100777311,0.4151507100777311,0.0,0,False
2022-10-17,0.4151507100777311,0.4151507100777311,0.0,0,False
2022-10-18,0.4151507100777311,0.4151507100777311,0.0,0,False
2022-10-19,0.4151507100777311,0.4151507100777311,0.0,0,False
2022-10-20,0.4151507100777311,0.41880399435161664,0.8799898892625224,2,True
2022-10-21,0.41880399435161664,0.4137642331336427,-1.2033699023755506,0,True
2022-10-22,0.4137642331336427,0.4137642331336427,0.0,0,False
2022-10-23,0.4137642331336427,0.4137642331336427,0.0,0,False
2022-10-24,0.4137642331336427,0.4137642331336427,0.0,0,False
2022-10-25,0.4137642331336427,0.4116999333240564,-0.4989072627066604,1,True
2022-10-26,0.4116999333240564,0.4116999333240564,0.0,0,False
2022-10-27,0.4116999333240564,0.4116999333240564,0.0,0,False
2022-10-28,0.4116999333240564,0.4096496285442478,-0.49800950008771494,1,True
2022-10-29,0.4096496285442478,0.4096496285442478,0.0,0,False
2022-10-30,0.4096496285442478,0.4011445889928219,-2.076174115340923,6,True
2022-10-31,0.4011445889928219,0.40254066374316655,0.3480228298354593,3,True
2022-11-01,0.40254066374316655,0.40157733952206764,-0.2393110331118109,1,True
2022-11-02,0.40157733952206764,0.40531411919536087,0.930525531580173,3,True
2022-11-03,0.40531411919536087,0.4200653603094137,3.6394589814283673,6,True
2022-11-04,0.4200653603094137,0.42424903847679707,0.9959588584742329,4,True
2022-11-05,0.42424903847679707,0.41955454676152276,-1.1065415097059939,5,True
2022-11-06,0.41955454676152276,0.41755098553937514,-0.47754487172473326,2,True
2022-11-07,0.41755098553937514,0.4103879402491523,-1.7154899732711448,7,True
2022-11-08,0.4103879402491523,0.395512429252346,-3.6247436968482094,12,True
2022-11-09,0.395512429252346,0.36149497983357376,-8.600854714749884,20,True
2022-11-10,0.36149497983357376,0.3685487606509488,1.9512804356570879,15,True
2022-11-11,0.3685487606509488,0.3679911256505312,-0.15130562355784027,10,True
2022-11-12,0.3679911256505312,0.36141831903157384,-1.786131827863524,6,True
2022-11-13,0.36141831903157384,0.36212509861679926,0.19555721113397873,3,True
2022-11-14,0.36212509861679926,0.35831796807237926,-1.0513302057664653,10,True
2022-11-15,0.35831796807237926,0.3586104795059127,0.08163459820533792,2,True
2022-11-16,0.3586104795059127,0.3548494665346395,-1.0487738608350283,2,True
2022-11-17,0.3548494665346395,0.3529643932818333,-0.5312318125246906,3,True
2022-11-18,0.3529643932818333,0.35450428797354955,0.43627479740899755,0,True
2022-11-19,0.35450428797354955,0.3544452219743973,-0.016661575376097915,3,True
2022-11-20,0.3544452219743973,0.3481152887648125,-1.7858706556473258,3,True
2022-11-21,0.3481152887648125,0.33493205396398457,-3.7870312584100785,8,True
2022-11-22,0.33493205396398457,0.33908476881028193,1.2398678469705215,5,True
2022-11-23,0.33908476881028193,0.34740929177376273,2.45499760802832,1,True
2022-11-24,0.34740929177376273,0.34309266486006235,-1.242519131155373,2,True
2022-11-25,0.34309266486006235,0.35200206757884933,2.5967919548559593,3,True
2022-11-26,0.35200206757884933,0.35196444351910156,-0.010688590554752686,0,True
2022-11-27,0.35196444351910156,0.35196444351910156,0.0,0,False
2022-11-28,0.35196444351910156,0.3518859791208693,-0.02229327412955895,6,True
2022-11-29,0.3518859791208693,0.3527510151328163,0.24582849652270422,0,True
2022-11-30,0.3527510151328163,0.3527510151328163,0.0,0,False
2022-12-01,0.3527510151328163,0.35304277378615156,0.08270951487563405,1,True
2022-12-02,0.35304277378615156,0.3526094254479672,-0.12274669540378591,2,True
2022-12-03,0.3526094254479672,0.3525401808507605,-0.019637761276158905,0,True
2022-12-04,0.3525401808507605,0.3490316769119361,-0.9952068244696521,2,True
2022-12-05,0.3490316769119361,0.3480861677739123,-0.27089493606688997,2,True
2022-12-06,0.3480861677739123,0.349249940448151,0.3343346510093381,2,True
2022-12-07,0.349249940448151,0.34739720251195577,-0.5304905517858671,2,True
2022-12-08,0.34739720251195577,0.34381868912778063,-1.0300927463720688,2,True
2022-12-09,0.34381868912778063,0.34381868912778063,0.0,0,False
2022-12-10,0.34381868912778063,0.34381868912778063,0.0,0,False
2022-12-11,0.34381868912778063,0.34381868912778063,0.0,0,False
2022-12-12,0.34381868912778063,0.34347586704943256,-0.09971013478580204,1,True
2022-12-13,0.34347586704943256,0.3441156780853024,0.18627539726912,1,True
2022-12-14,0.3441156780853024,0.34398003694646256,-0.03941730861976023,0,True
2022-12-15,0.34398003694646256,0.34398003694646256,0.0,0,False
2022-12-16,0.34398003694646256,0.3450754832270656,0.3184621672604582,5,True
2022-12-17,0.3450754832270656,0.3404446227778495,-1.3419847755944292,7,True
2022-12-18,0.3404446227778495,0.34201034486552656,0.4599050720500708,0,True
2022-12-19,0.34201034486552656,0.34030737779263265,-0.4979285271512701,1,True
2022-12-20,0.34030737779263265,0.34030737779263265,0.0,0,False
2022-12-21,0.34030737779263265,0.34030737779263265,0.0,0,False
2022-12-22,0.34030737779263265,0.34030737779263265,0.0,0,False
2022-12-23,0.34030737779263265,0.34030737779263265,0.0,0,False
2022-12-24,0.34030737779263265,0.34030737779263265,0.0,0,False
2022-12-25,0.34030737779263265,0.34030737779263265,0.0,0,False
2022-12-26,0.34030737779263265,0.34030737779263265,0.0,0,False
2022-12-27,0.34030737779263265,0.34030737779263265,0.0,0,False
2022-12-28,0.34030737779263265,0.34312138059393554,0.8269003215726878,4,True
2022-12-29,0.34312138059393554,0.33640549886870413,-1.9572903657610552,0,True
2022-12-30,0.33640549886870413,0.3423215518664318,1.7586076974433373,1,True
2022-12-31,0.3423215518664318,0.3439404210343692,0.4729089241126916,0,True
2023-01-01,0.3439404210343692,0.3439404210343692,0.0,0,False
2023-01-02,0.3439404210343692,0.3434745246379097,-0.1354584596536812,1,True
2023-01-03,0.3434745246379097,0.34561744692145546,0.6238955526046253,0,True
2023-01-04,0.34561744692145546,0.34561744692145546,0.0,0,False
2023-01-05,0.34561744692145546,0.34561744692145546,0.0,0,False
2023-01-06,0.34561744692145546,0.3450669778172634,-0.15927121419803125,1,True
2023-01-07,0.3450669778172634,0.3462184698365516,0.33370101844343303,0,True
2023-01-08,0.3462184698365516,0.3462184698365516,0.0,0,False
2023-01-09,0.3462184698365516,0.3463185625077944,0.028910263305736983,1,True
2023-01-10,0.3463185625077944,0.343181748163018,-0.9057598074044382,5,True
2023-01-11,0.343181748163018,0.3389217517272529,-1.241323717991405,3,True
2023-01-12,0.3389217517272529,0.33823784328002815,-0.20178948200856306,0,True
2023-01-13,0.33823784328002815,0.3382271651339263,-0.0031569933152009177,1,True
2023-01-14,0.3382271651339263,0.3380557130158408,-0.05069140972683295,5,True
2023-01-15,0.3380557130158408,0.3363571541400183,-0.5024493923411089,1,True
2023-01-16,0.3363571541400183,0.336534469099128,0.05271627403407031,2,True
2023-01-17,0.336534469099128,0.3356285073010769,-0.26920327076042083,0,True
2023-01-18,0.3356285073010769,0.3356285073010769,0.0,0,False
2023-01-19,0.3356285073010769,0.32953612035816915,-1.8152173639537028,8,True
2023-01-20,0.32953612035816915,0.3308010880538741,0.383863138987639,0,True
2023-01-21,0.3308010880538741,0.3298553183647112,-0.2859028350622794,3,True
2023-01-22,0.3298553183647112,0.33349209323970397,1.102536376561214,2,True
2023-01-23,0.33349209323970397,0.3320594471378794,-0.4295892259115197,1,True
2023-01-24,0.3320594471378794,0.3516033335401974,5.885658899565338,4,True
2023-01-25,0.3516033335401974,0.34581922556238476,-1.645066307982368,10,True
2023-01-26,0.34581922556238476,0.3598529829194727,4.058119479698008,1,True
2023-01-27,0.3598529829194727,0.3585834431415242,-0.3527940126128226,3,True
2023-01-28,0.3585834431415242,0.3625426176722929,1.1041152642416119,0,True
2023-01-29,0.3625426176722929,0.36073312930158585,-0.4991105272877605,1,True
2023-01-30,0.36073312930158585,0.3599305015100964,-0.22249905159622552,5,True
2023-01-31,0.3599305015100964,0.3683749153461132,2.346123432325986,5,True
2023-02-01,0.3683749153461132,0.36581221367920985,-0.6956775719908936,2,True
2023-02-02,0.36581221367920985,0.36581221367920985,0.0,0,False
2023-02-03,0.36581221367920985,0.3687812642512589,0.8116324335339709,4,True
2023-02-04,0.3687812642512589,0.36935759335516705,0.1562793882922131,0,True
2023-02-05,0.36935759335516705,0.3714647356913721,0.5704884302131896,6,True
2023-02-06,0.3714647356913721,0.36240994185014025,-2.4375917741906394,2,True
2023-02-07,0.36240994185014025,0.365257880293304,0.7858334207457851,0,True
2023-02-08,0.365257880293304,0.35785898396409543,-2.0256637100525388,5,True
2023-02-09,0.35785898396409543,0.3516660865415495,-1.730541274651154,10,True
2023-02-10,0.3516660865415495,0.3353517157311974,-4.639165229378639,10,True
2023-02-11,0.3353517157311974,0.3339454516564363,-0.4193400566610661,2,True
2023-02-12,0.3339454516564363,0.3384314745627997,1.343340022782713,2,True
2023-02-13,0.3384314745627997,0.3376551085281524,-0.2294012504747811,3,True
2023-02-14,0.3376551085281524,0.33742337781104487,-0.06862941245511234,1,True
2023-02-15,0.33742337781104487,0.3381550039203995,0.21682733250460995,0,True
2023-02-16,0.3381550039203995,0.3381550039203995,0.0,0,False
2023-02-17,0.3381550039203995,0.34233506181642653,1.2361366378038419,1,True
2023-02-18,0.34233506181642653,0.3421107415109581,-0.06552653540019548,1,True
2023-02-19,0.3421107415109581,0.34314181462711685,0.3013857768992878,2,True
2023-02-20,0.34314181462711685,0.3433855705013172,0.07103648223847348,6,True
2023-02-21,0.3433855705013172,0.34587863502397026,0.7260248352932708,8,True
2023-02-22,0.34587863502397026,0.3377685601509102,-2.344774742301725,5,True
2023-02-23,0.3377685601509102,0.33993745120855934,0.6421234281485777,2,True
2023-02-24,0.33993745120855934,0.3372986928791255,-0.7762481950877809,1,True
2023-02-25,0.3372986928791255,0.33313563923653294,-1.23423355336999,3,True
2023-02-26,0.33313563923653294,0.33163637830321485,-0.45004519382977337,2,True
2023-02-27,0.33163637830321485,0.33071541868204807,-0.2777016278729061,1,True
2023-02-28,0.33071541868204807,0.3276956520526774,-0.9131012522503146,3,True
2023-03-01,0.3276956520526774,0.3258660995943951,-0.5583084324805809,1,True
2023-03-02,0.3258660995943951,0.3242469612437541,-0.4968722897706668,1,True
2023-03-03,0.3242469612437541,0.3244612808852499,0.06609765614262741,9,True
2023-03-04,0.3244612808852499,0.3260429114738265,0.487463584024983,0,True
2023-03-05,0.3260429114738265,0.3311905444383977,1.5788206961169893,4,True
2023-03-06,0.3311905444383977,0.33021263243569277,-0.2952717156714635,0,True
2023-03-07,0.33021263243569277,0.33021263243569277,0.0,0,False
2023-03-08,0.33021263243569277,0.33021263243569277,0.0,0,False
2023-03-09,0.33021263243569277,0.33021263243569277,0.0,0,False
2023-03-10,0.33021263243569277,0.318352706694084,-3.5916026755634323,12,True
2023-03-11,0.318352706694084,0.31219025134131756,-1.9357320428527558,6,True
2023-03-12,0.31219025134131756,0.31386357034213375,0.5359933545736384,0,True
2023-03-13,0.31386357034213375,0.31386357034213375,0.0,0,False
2023-03-14,0.31386357034213375,0.3171486797797476,1.0466679627816777,1,True
2023-03-15,0.3171486797797476,0.3127391138058013,-1.3903781586001251,6,True
2023-03-16,0.3127391138058013,0.31586051871355497,0.9980858709256024,5,True
2023-03-17,0.31586051871355497,0.3139133263116589,-0.6164722358548147,2,True
2023-03-18,0.3139133263116589,0.32199278128239117,2.573785275592555,3,True
2023-03-19,0.32199278128239117,0.3249843561915209,0.9290813592824243,3,True
2023-03-20,0.3249843561915209,0.33210943442461044,2.1924372965480776,5,True
2023-03-21,0.33210943442461044,0.32746982312117406,-1.3970127983490288,2,True
2023-03-22,0.32746982312117406,0.32720924629354553,-0.07957277563621634,0,True
2023-03-23,0.32720924629354553,0.33792747760823294,3.2756505007416115,8,True
2023-03-24,0.33792747760823294,0.3370834006049866,-0.24978051776686216,1,True
2023-03-25,0.3370834006049866,0.3354054695206542,-0.4977792087420774,1,True
2023-03-26,0.3354054695206542,0.3354054695206542,0.0,0,False
2023-03-27,0.3354054695206542,0.3337360525466141,-0.4977309930055629,1,True
2023-03-28,0.3337360525466141,0.3436846265381944,2.9809707149307085,4,True
2023-03-29,0.3436846265381944,0.3442156083932045,0.1544968305269956,1,True
2023-03-30,0.3442156083932045,0.3433795813296915,-0.24287889425338438,2,True
2023-03-31,0.3433795813296915,0.3433795813296915,0.0,0,False
2023-04-01,0.3433795813296915,0.3430114010441629,-0.1072225331811727,1,True
2023-04-02,0.3430114010441629,0.34166500660991006,-0.39252177337378846,0,True
2023-04-03,0.34166500660991006,0.34166500660991006,0.0,0,False
2023-04-04,0.34166500660991006,0.3382690688848794,-0.9939378219402828,2,True
2023-04-05,0.3382690688848794,0.3366977454654291,-0.4645187999689937,2,True
2023-04-06,0.3366977454654291,0.3287770738004755,-2.35245758892878,5,True
2023-04-07,0.3287770738004755,0.3261392917609009,-0.8023010878110637,1,True
2023-04-08,0.3261392917609009,0.327165625890253,0.3146919599324338,1,True
2023-04-09,0.327165625890253,0.32727614949204475,0.03378215590070788,0,True
2023-04-10,0.32727614949204475,0.32727614949204475,0.0,0,False
2023-04-11,0.32727614949204475,0.32727614949204475,0.0,0,False
2023-04-12,0.32727614949204475,0.3297275959349352,0.7490452471697884,1,True
2023-04-13,0.3297275959349352,0.32995495263419145,0.0689528877956258,0,True
2023-04-14,0.32995495263419145,0.33364368330723887,1.1179497818106565,2,True
2023-04-15,0.33364368330723887,0.33206003342359025,-0.47465303941939263,1,True
2023-04-16,0.33206003342359025,0.3312809128866014,-0.23463243346572016,1,True
2023-04-17,0.3312809128866014,0.3276910350178586,-1.0836355881365223,3,True
2023-04-18,0.3276910350178586,0.32716023929966753,-0.16198054309364274,0,True
2023-04-19,0.32716023929966753,0.3209860554760874,-1.887204825622102,10,True
2023-04-20,0.3209860554760874,0.3145924315174483,-1.9918696932662794,0,True
2023-04-21,0.3145924315174483,0.31302320533325156,-0.49881244015551607,1,True
2023-04-22,0.31302320533325156,0.312581552293187,-0.14109274729148247,1,True
2023-04-23,0.312581552293187,0.3126253609582528,0.014015115333698702,0,True
2023-04-24,0.3126253609582528,0.3126253609582528,0.0,0,False
2023-04-25,0.3126253609582528,0.3126253609582528,0.0,0,False
2023-04-26,0.3126253609582528,0.3126253609582528,0.0,0,False
2023-04-27,0.3126253609582528,0.3090433623854966,-1.1457799078669395,12,True
2023-04-28,0.3090433623854966,0.31527321494853566,2.0158506285173017,0,True
2023-04-29,0.31527321494853566,0.3137032111738302,-0.4979819725445922,1,True
2023-04-30,0.3137032111738302,0.3137032111738302,0.0,0,False
2023-05-01,0.3137032111738302,0.3137032111738302,0.0,0,False
2023-05-02,0.3137032111738302,0.3137032111738302,0.0,0,False
2023-05-03,0.3137032111738302,0.3137032111738302,0.0,0,False
2023-05-04,0.3137032111738302,0.3137032111738302,0.0,0,False
2023-05-05,0.3137032111738302,0.3137032111738302,0.0,0,False
2023-05-06,0.3137032111738302,0.31058623186778084,-0.9936077142424171,2,True
2023-05-07,0.31058623186778084,0.31058623186778084,0.0,0,False
2023-05-08,0.31058623186778084,0.31976659069970637,2.9558164174623425,6,True
2023-05-09,0.31976659069970637,0.3141063018880995,-1.7701313946591912,4,True
2023-05-10,0.3141063018880995,0.31185322777080726,-0.7172966934279823,2,True
2023-05-11,0.31185322777080726,0.3085046472650785,-1.0737681086917528,5,True
2023-05-12,0.3085046472650785,0.3055006272810644,-0.9737357315829698,0,True
2023-05-13,0.3055006272810644,0.3039753650786604,-0.4992664715548156,1,True
2023-05-14,0.3039753650786604,0.3039753650786604,0.0,0,False
2023-05-15,0.3039753650786604,0.3039753650786604,0.0,0,False
2023-05-16,0.3039753650786604,0.3039753650786604,0.0,0,False
2023-05-17,0.3039753650786604,0.3039753650786604,0.0,0,False
2023-05-18,0.3039753650786604,0.3024591674142217,-0.49878965160429223,1,True
2023-05-19,0.3024591674142217,0.3024591674142217,0.0,0,False
2023-05-20,0.3024591674142217,0.3024591674142217,0.0,0,False
2023-05-21,0.3024591674142217,0.3024591674142217,0.0,0,False
2023-05-22,0.3024591674142217,0.30095022266932037,-0.4988920513805395,1,True
2023-05-23,0.30095022266932037,0.30095022266932037,0.0,0,False
2023-05-24,0.30095022266932037,0.2994509232341643,-0.4981885116607798,1,True
2023-05-25,0.2994509232341643,0.30012224714290525,0.22418495207510158,1,True
2023-05-26,0.30012224714290525,0.30156800538306155,0.4817231158035007,1,True
2023-05-27,0.30156800538306155,0.3024755252378583,0.30093373255692946,2,True
2023-05-28,0.3024755252378583,0.3024755252378583,0.0,0,False
2023-05-29,0.3024755252378583,0.30396416192296666,0.49215111997498173,1,True
2023-05-30,0.30396416192296666,0.30481236711395493,0.27904776195399883,2,True
2023-05-31,0.30481236711395493,0.30315501680381624,-0.5437280402468381,2,True
2023-06-01,0.30315501680381624,0.30363358133215185,0.15786132566142363,0,True
2023-06-02,0.30363358133215185,0.31080486998982265,2.361823295765819,2,True
2023-06-03,0.31080486998982265,0.31412381442395676,1.0678547071166555,3,True
2023-06-04,0.31412381442395676,0.3102371019408177,-1.2373186319115992,4,True
2023-06-05,0.3102371019408177,0.31355482646841,1.0694157812965788,1,True
2023-06-06,0.31355482646841,0.30473619353749776,-2.8124692036276766,12,True
2023-06-07,0.30473619353749776,0.3028095966499529,-0.6322179407638351,2,True
2023-06-08,0.3028095966499529,0.29827507040807677,-1.4974843241570057,3,True
2023-06-09,0.29827507040807677,0.2970004915244066,-0.4273165980403171,1,True
2023-06-10,0.2970004915244066,0.30578080127789087,2.9563283577134225,8,True
2023-06-11,0.30578080127789087,0.30635897577227295,0.18908135892306,0,True
2023-06-12,0.30635897577227295,0.30635897577227295,0.0,0,False
2023-06-13,0.30635897577227295,0.30528672258051714,-0.3499989478202292,2,True
2023-06-14,0.30528672258051714,0.3052618989673116,-0.008131245602727155,0,True
2023-06-15,0.3052618989673116,0.3051905361461787,-0.023377572299165816,7,True
2023-06-16,0.3051905361461787,0.3106173855255532,1.7781840314914588,0,True
2023-06-17,0.3106173855255532,0.3113748251524305,0.24384972064450672,1,True
2023-06-18,0.3113748251524305,0.3119608565792954,0.18820770965604083,0,True
2023-06-19,0.3119608565792954,0.3143844386229113,0.7768865844872019,1,True
2023-06-20,0.3143844386229113,0.31490908078374186,0.166879176058643,1,True
2023-06-21,0.31490908078374186,0.31490908078374186,0.0,0,False
2023-06-22,0.31490908078374186,0.3130065389202998,-0.60415592294355,4,True
2023-06-23,0.3130065389202998,0.3107699097394832,-0.7145630850178719,0,True
2023-06-24,0.3107699097394832,0.3108343636095,0.020740061375579266,1,True
2023-06-25,0.3108343636095,0.3079932686320461,-0.9140221642363611,7,True
2023-06-26,0.3079932686320461,0.3091500955301951,0.3756013575514361,0,True
2023-06-27,0.3091500955301951,0.3091500955301951,0.0,0,False
2023-06-28,0.3091500955301951,0.3091500955301951,0.0,0,False
2023-06-29,0.3091500955301951,0.30865788141949746,-0.1592152542775449,2,True
2023-06-30,0.30865788141949746,0.30755799861787436,-0.3563436632704198,9,True
2023-07-01,0.30755799861787436,0.310290479132927,0.8884439771789543,2,True
2023-07-02,0.310290479132927,0.3101939227170647,-0.03111807237273778,0,True
2023-07-03,0.3101939227170647,0.3101939227170647,0.0,0,False
2023-07-04,0.3101939227170647,0.30965209554295076,-0.17467369101494823,1,True
2023-07-05,0.30965209554295076,0.3055611445734596,-1.321144286886855,2,True
2023-07-06,0.3055611445734596,0.30590114664822243,0.11127137098450035,4,True
2023-07-07,0.30590114664822243,0.30394881277046304,-0.6382237854127837,0,True
2023-07-08,0.30394881277046304,0.30394881277046304,0.0,0,False
2023-07-09,0.30394881277046304,0.30394881277046304,0.0,0,False
2023-07-10,0.30394881277046304,0.30394719061454134,-0.0005336937844657719,1,True
2023-07-11,0.30394719061454134,0.3028721352988597,-0.3536980596886008,0,True
2023-07-12,0.3028721352988597,0.3020156953198676,-0.28277278731733135,1,True
2023-07-13,0.3020156953198676,0.30165247649976984,-0.12026488216549946,0,True
2023-07-14,0.30165247649976984,0.3001478958736028,-0.4987794708750548,1,True
2023-07-15,0.3001478958736028,0.3025456731700612,0.7988652692298537,7,True
2023-07-16,0.3025456731700612,0.30317725124970846,0.20875462307214931,2,True
2023-07-17,0.30317725124970846,0.30121381448085666,-0.6476200838811064,3,True
2023-07-18,0.30121381448085666,0.2963986289111156,-1.5985938686245316,2,True
2023-07-19,0.2963986289111156,0.2949226613299604,-0.4979670744690967,1,True
2023-07-20,0.2949226613299604,0.29328054973895423,-0.556793968832725,2,True
2023-07-21,0.29328054973895423,0.2930803874981845,-0.06824940861162032,0,True
2023-07-22,0.2930803874981845,0.2930803874981845,0.0,0,False
2023-07-23,0.2930803874981845,0.2930803874981845,0.0,0,False
2023-07-24,0.2930803874981845,0.2864056669912305,-2.27743676877572,7,True
2023-07-25,0.2864056669912305,0.28461664319669244,-0.6246467862637717,0,True
2023-07-26,0.28461664319669244,0.28461664319669244,0.0,0,False
2023-07-27,0.28461664319669244,0.28461664319669244,0.0,0,False
2023-07-28,0.28461664319669244,0.28461664319669244,0.0,0,False
2023-07-29,0.28461664319669244,0.28461664319669244,0.0,0,False
2023-07-30,0.28461664319669244,0.28461664319669244,0.0,0,False
2023-07-31,0.28461664319669244,0.2832002476512481,-0.49765028830920377,1,True
2023-08-01,0.2832002476512481,0.28599886973419886,0.988213148173922,3,True
2023-08-02,0.28599886973419886,0.28889579166254803,1.0129137681703204,0,True
2023-08-03,0.28889579166254803,0.28889579166254803,0.0,0,False
2023-08-04,0.28889579166254803,0.28889579166254803,0.0,0,False
2023-08-05,0.28889579166254803,0.28889579166254803,0.0,0,False
2023-08-06,0.28889579166254803,0.28939212611754694,0.1718039754551537,1,True
2023-08-07,0.28939212611754694,0.285945493048927,-1.1909906170771034,3,True
2023-08-08,0.285945493048927,0.2795713525135212,-2.2291453057856514,5,True
2023-08-09,0.2795713525135212,0.27806139364260035,-0.5400978524249367,0,True
2023-08-10,0.27806139364260035,0.2766766592672209,-0.4979959127872635,1,True
2023-08-11,0.2766766592672209,0.2766766592672209,0.0,0,False
2023-08-12,0.2766766592672209,0.2766766592672209,0.0,0,False
2023-08-13,0.2766766592672209,0.2840083195757807,2.649901993170567,2,True
2023-08-14,0.2840083195757807,0.27579524649092546,-2.891842428110203,5,True
2023-08-15,0.27579524649092546,0.27359325338850415,-0.7984159010854253,2,True
2023-08-16,0.27359325338850415,0.2736976659854852,0.03816343995615146,6,True
2023-08-17,0.2736976659854852,0.2737234864186498,0.009433925229740403,7,True
2023-08-18,0.2737234864186498,0.285399419888157,4.265594312812926,7,True
2023-08-19,0.285399419888157,0.29188038437407976,2.2708401048826765,2,True
2023-08-20,0.29188038437407976,0.2912179218643811,-0.22696369648794734,1,True
2023-08-21,0.2912179218643811,0.2901606559906306,-0.3630497281835732,1,True
2023-08-22,0.2901606559906306,0.28936143237369544,-0.27544175974050233,3,True
2023-08-23,0.28936143237369544,0.29228556256966487,1.0105459362645952,1,True
2023-08-24,0.29228556256966487,0.29250886523678676,0.07639880162355617,0,True
2023-08-25,0.29250886523678676,0.2908583907349591,-0.5642476854476164,8,True
2023-08-26,0.2908583907349591,0.29197321080348704,0.38328619838365885,0,True
2023-08-27,0.29197321080348704,0.29197321080348704,0.0,0,False
2023-08-28,0.29197321080348704,0.28907221668353794,-0.9935822920074777,2,True
2023-08-29,0.28907221668353794,0.29186078467120224,0.9646613637439572,3,True
2023-08-30,0.29186078467120224,0.28733867479883207,-1.5494064670128926,3,True
2023-08-31,0.28733867479883207,0.29033677603094604,1.043403305946522,3,True
2023-09-01,0.29033677603094604,0.28632554314573694,-1.3815793300610224,3,True
2023-09-02,0.28632554314573694,0.2801983996025056,-2.1399220886530124,4,True
2023-09-03,0.2801983996025056,0.277230548889287,-1.0591961686536533,3,True
2023-09-04,0.277230548889287,0.2750276162714024,-0.7946211652036794,7,True
2023-09-05,0.2750276162714024,0.27842164630198646,1.234068809742661,2,True
2023-09-06,0.27842164630198646,0.27630814509010154,-0.7591008960533663,4,True
2023-09-07,0.27630814509010154,0.27813124131494704,0.6598054589563418,3,True
2023-09-08,0.27813124131494704,0.2755869934675696,-0.9147652149211205,8,True
2023-09-09,0.2755869934675696,0.27960051869814556,1.4563550986480989,7,True
2023-09-10,0.27960051869814556,0.2706060303718014,-3.2169068813690305,7,True
2023-09-11,0.2706060303718014,0.2674917276457073,-1.1508622782039346,1,True
2023-09-12,0.2674917276457073,0.2667001091054299,-0.2959413164828284,2,True
2023-09-13,0.2667001091054299,0.2653026243690955,-0.5239910628540234,2,True
2023-09-14,0.2653026243690955,0.2647531141676084,-0.20712580691347737,4,True
2023-09-15,0.2647531141676084,0.26599077523428927,0.46747743480644033,0,True
2023-09-16,0.26599077523428927,0.2656657701402642,-0.12218660355374222,6,True
2023-09-17,0.2656657701402642,0.26673088920258126,0.40092446300277196,4,True
2023-09-18,0.26673088920258126,0.2602778235698117,-2.419316957275408,4,True
2023-09-19,0.2602778235698117,0.2633598289267284,1.184121380241221,1,True
2023-09-20,0.2633598289267284,0.26574783562835086,0.9067467545655461,3,True
2023-09-21,0.26574783562835086,0.26438235818371436,-0.5138244838035599,2,True
2023-09-22,0.26438235818371436,0.2699915857021651,2.12163457387462,1,True
2023-09-23,0.2699915857021651,0.2681173264464241,-0.6941917285557597,1,True
2023-09-24,0.2681173264464241,0.266782671296559,-0.4977877288104948,1,True
2023-09-25,0.266782671296559,0.2666992393419286,-0.03127337852378842,1,True
2023-09-26,0.2666992393419286,0.2671517303113541,0.1696633895702293,1,True
2023-09-27,0.2671517303113541,0.2641175669414283,-1.1357453557907293,1,True
2023-09-28,0.2641175669414283,0.26534460812020216,0.46458143355756487,2,True
2023-09-29,0.26534460812020216,0.2620674670671082,-1.235050931055437,2,True
2023-09-30,0.2620674670671082,0.2620674670671082,0.0,0,False
2023-10-01,0.2620674670671082,0.2618086057651238,-0.09877658790745647,1,True
2023-10-02,0.2618086057651238,0.26443886823316903,1.0046508824102185,1,True
2023-10-03,0.26443886823316903,0.26323200754258874,-0.4563855149751106,2,True
2023-10-04,0.26323200754258874,0.25675434700821836,-2.460817966189899,7,True
2023-10-05,0.25675434700821836,0.25405862431728826,-1.0499229019261036,2,True
2023-10-06,0.25405862431728826,0.25404976060307927,-0.0034888460223703177,0,True
2023-10-07,0.25404976060307927,0.2527852522591148,-0.49774041942125535,1,True
2023-10-08,0.2527852522591148,0.25213232654788886,-0.25829264381161954,1,True
2023-10-09,0.25213232654788886,0.24694642400028832,-2.056817790326282,5,True
2023-10-10,0.24694642400028832,0.2440574400293554,-1.1698828936796302,1,True
2023-10-11,0.2440574400293554,0.2440574400293554,0.0,0,False
2023-10-12,0.2440574400293554,0.2440574400293554,0.0,0,False
2023-10-13,0.2440574400293554,0.2440574400293554,0.0,0,False
2023-10-14,0.2440574400293554,0.2440574400293554,0.0,0,False
2023-10-15,0.2440574400293554,0.24407400886346664,0.006788907606858352,1,True
2023-10-16,0.24407400886346664,0.24514826959845204,0.44013729277758706,2,True
2023-10-17,0.24514826959845204,0.24656870056719057,0.5794170895291995,2,True
2023-10-18,0.24656870056719057,0.24343882449813636,-1.2693728205787846,4,True
2023-10-19,0.24343882449813636,0.23783009899228744,-2.303956863664469,5,True
2023-10-20,0.23783009899228744,0.23694954359592946,-0.37024556609487336,0,True
2023-10-21,0.23694954359592946,0.2372120060984614,0.11076725388403652,2,True
2023-10-22,0.2372120060984614,0.239176910491568,0.8283326065254171,1,True
2023-10-23,0.239176910491568,0.239176910491568,0.0,0,False
2023-10-24,0.239176910491568,0.2351118391965048,-1.699608581241585,8,True
2023-10-25,0.2351118391965048,0.24250167050834193,3.1431132252173644,6,True
2023-10-26,0.24250167050834193,0.24810688470654133,2.3114126127253165,6,True
2023-10-27,0.24810688470654133,0.2464208166310894,-0.6795732724008019,6,True
2023-10-28,0.2464208166310894,0.24774667543530635,0.538046591332364,2,True
2023-10-29,0.24774667543530635,0.24801106691721886,0.10671847823908731,0,True
2023-10-30,0.24801106691721886,0.2470553378517491,-0.3853574267267512,2,True
2023-10-31,0.2470553378517491,0.2409896750461207,-2.4551838702907225,6,True
2023-11-01,0.2409896750461207,0.24044412697100978,-0.2263781944211951,5,True
2023-11-02,0.24044412697100978,0.2394327596036858,-0.42062469150927484,4,True
2023-11-03,0.2394327596036858,0.2353657576252882,-1.6985987987313766,2,True
2023-11-04,0.2353657576252882,0.23333663280293127,-0.8621155612565268,4,True
2023-11-05,0.23333663280293127,0.22880042003749745,-1.9440636949899615,6,True
2023-11-06,0.22880042003749745,0.2253198174221648,-1.521239609071623,5,True
2023-11-07,0.2253198174221648,0.22104313032162126,-1.8980519110445737,5,True
2023-11-08,0.22104313032162126,0.22203033620514517,0.44661233402165657,0,True
2023-11-09,0.22203033620514517,0.22427244791313855,1.0098222370486187,5,True
2023-11-10,0.22427244791313855,0.21922401361089175,-2.251027421880225,8,True
2023-11-11,0.21922401361089175,0.21695499049073697,-1.0350248965800612,7,True
2023-11-12,0.21695499049073697,0.22158406669716516,2.1336573986878715,6,True
2023-11-13,0.22158406669716516,0.22222821051383623,0.29069951927158666,4,True
2023-11-14,0.22222821051383623,0.2224851565720076,0.11562261045852118,8,True
2023-11-15,0.2224851565720076,0.2209000466667038,-0.7124564756259555,3,True
2023-11-16,0.2209000466667038,0.2167993702110293,-1.8563492935162795,4,True
2023-11-17,0.2167993702110293,0.21681335222059783,0.006449285140885941,5,True
2023-11-18,0.21681335222059783,0.21336893092918854,-1.588657366408297,5,True
2023-11-19,0.21336893092918854,0.20878086021420225,-2.1502993406799953,4,True
2023-11-20,0.20878086021420225,0.20963894683913614,0.4109987017265393,2,True
2023-11-21,0.20963894683913614,0.2028841892059402,-3.2220909974228773,5,True
2023-11-22,0.2028841892059402,0.20130259080181592,-0.7795572490465807,6,True
2023-11-23,0.20130259080181592,0.19978044227470187,-0.7561494966612847,3,True
2023-11-24,0.19978044227470187,0.20576109049215327,2.993610460241092,1,True
2023-11-25,0.20576109049215327,0.2057991330808662,0.01848871845591127,5,True
2023-11-26,0.2057991330808662,0.20536953651843737,-0.20874556466670136,0,True
2023-11-27,0.20536953651843737,0.20562105204839043,0.12246973636738101,5,True
2023-11-28,0.20562105204839043,0.20344716711686475,-1.0572287758814136,4,True
2023-11-29,0.20344716711686475,0.20646784615276909,1.4847486346021066,3,True
2023-11-30,0.20646784615276909,0.2037113887505709,-1.33505407915121,3,True
2023-12-01,0.2037113887505709,0.20364854119854742,-0.030851270716358847,0,True
2023-12-02,0.20364854119854742,0.20364854119854742,0.0,0,False
2023-12-03,0.20364854119854742,0.20590596386920842,1.1084894875137419,3,True
2023-12-04,0.20590596386920842,0.20824289948585506,1.1349528555331556,5,True
2023-12-05,0.20824289948585506,0.2090262852638027,0.3761884702344176,7,True
2023-12-06,0.2090262852638027,0.2041738345118246,-2.3214548093097642,6,True
2023-12-07,0.2041738345118246,0.20191301906805048,-1.1072993016855937,5,True
2023-12-08,0.20191301906805048,0.1989344681257659,-1.4751653737002046,2,True
2023-12-09,0.1989344681257659,0.1989344681257659,0.0,0,False
2023-12-10,0.1989344681257659,0.1988122929233425,-0.06141479833760011,3,True
2023-12-11,0.1988122929233425,0.2001326732240307,0.6641341344004958,6,True
2023-12-12,0.2001326732240307,0.20631204320120708,3.0876367549736106,1,True
2023-12-13,0.20631204320120708,0.20359621861078997,-1.316367454016476,6,True
2023-12-14,0.20359621861078997,0.20621719286910742,1.287339360328632,2,True
2023-12-15,0.20621719286910742,0.2015284788902537,-2.2736775307720336,4,True
2023-12-16,0.2015284788902537,0.20482716470281426,1.6368335784229027,5,True
2023-12-17,0.20482716470281426,0.20094500486245936,-1.8953344621000623,6,True
2023-12-18,0.20094500486245936,0.20008047999415268,-0.4302295888859886,8,True
2023-12-19,0.20008047999415268,0.2004831691582701,0.20126359359453616,4,True
2023-12-20,0.2004831691582701,0.19936548627402242,-0.5574946210897824,2,True
2023-12-21,0.19936548627402242,0.19547943105711793,-1.9492116160784279,3,True
2023-12-22,0.19547943105711793,0.19429422795395204,-0.6063057871390942,2,True
2023-12-23,0.19429422795395204,0.19417326815755545,-0.062255990654158655,3,True
2023-12-24,0.19417326815755545,0.21390693508619776,10.162916407540745,3,True
2023-12-25,0.21390693508619776,0.20568186770084282,-3.8451616269666533,5,True
2023-12-26,0.20568186770084282,0.20295481668095788,-1.3258587401838162,3,True
2023-12-27,0.20295481668095788,0.2025078731711823,-0.2202182323557178,11,True
2023-12-28,0.2025078731711823,0.1974062284922518,-2.5192327582335583,7,True
2023-12-29,0.1974062284922518,0.1992441056436861,0.9310127474049912,3,True
2023-12-30,0.1992441056436861,0.19830849714138843,-0.46957901177305805,3,True
2023-12-31,0.19830849714138843,0.19513503566714474,-1.600265001242529,3,True
