day,start_equity,end_equity,return_pct,entries,active
2021-09-02,1.0,1.0,0.0,0,False
2021-09-03,1.0,1.0,0.0,0,False
2021-09-04,1.0,1.0,0.0,0,False
2021-09-05,1.0,1.0,0.0,0,False
2021-09-06,1.0,1.0,0.0,0,False
2021-09-07,1.0,1.0,0.0,0,False
2021-09-08,1.0,1.0,0.0,0,False
2021-09-09,1.0,1.0,0.0,0,False
2021-09-10,1.0,1.0,0.0,0,False
2021-09-11,1.0,1.0,0.0,0,False
2021-09-12,1.0,1.0,0.0,0,False
2021-09-13,1.0,1.0,0.0,0,False
2021-09-14,1.0,1.0,0.0,0,False
2021-09-15,1.0,1.0,0.0,0,False
2021-09-16,1.0,1.0,0.0,0,False
2021-09-17,1.0,1.0,0.0,0,False
2021-09-18,1.0,1.0,0.0,0,False
2021-09-19,1.0,1.0,0.0,0,False
2021-09-20,1.0,1.0,0.0,0,False
2021-09-21,1.0,1.0,0.0,0,False
2021-09-22,1.0,1.0,0.0,0,False
2021-09-23,1.0,1.0,0.0,0,False
2021-09-24,1.0,1.0,0.0,0,False
2021-09-25,1.0,1.0,0.0,0,False
2021-09-26,1.0,1.0,0.0,0,False
2021-09-27,1.0,1.0,0.0,0,False
2021-09-28,1.0,1.0,0.0,0,False
2021-09-29,1.0,1.0,0.0,0,False
2021-09-30,1.0,1.0,0.0,0,False
2021-10-01,1.0,1.0,0.0,0,False
2021-10-02,1.0,1.0,0.0,0,False
2021-10-03,1.0,1.0,0.0,0,False
2021-10-04,1.0,1.0,0.0,0,False
2021-10-05,1.0,1.0,0.0,0,False
2021-10-06,1.0,0.9900197364997588,-0.9980263500241171,2,True
2021-10-07,0.9900197364997588,0.9900197364997588,0.0,0,False
2021-10-08,0.9900197364997588,0.9900197364997588,0.0,0,False
2021-10-09,0.9900197364997588,0.9900197364997588,0.0,0,False
2021-10-10,0.9900197364997588,0.9900197364997588,0.0,0,False
2021-10-11,0.9900197364997588,0.9900197364997588,0.0,0,False
2021-10-12,0.9900197364997588,0.9900197364997588,0.0,0,False
2021-10-13,0.9900197364997588,0.9988731730880753,0.8942686960583313,1,True
2021-10-14,0.9988731730880753,0.9988731730880753,0.0,0,False
2021-10-15,0.9988731730880753,1.0031606450901993,0.4292308691071334,2,True
2021-10-16,1.0031606450901993,0.9931568613479089,-0.9972264952031629,2,True
2021-10-17,0.9931568613479089,0.9931568613479089,0.0,0,False
2021-10-18,0.9931568613479089,0.9931568613479089,0.0,0,False
2021-10-19,0.9931568613479089,0.9931568613479089,0.0,0,False
2021-10-20,0.9931568613479089,0.9931568613479089,0.0,0,False
2021-10-21,0.9931568613479089,0.9931568613479089,0.0,0,False
2021-10-22,0.9931568613479089,0.9931568613479089,0.0,0,False
2021-10-23,0.9931568613479089,0.9931568613479089,0.0,0,False
2021-10-24,0.9931568613479089,0.9931568613479089,0.0,0,False
2021-10-25,0.9931568613479089,0.999862416156716,0.6751758025118404,1,True
2021-10-26,0.999862416156716,0.999862416156716,0.0,0,False
2021-10-27,0.999862416156716,1.0227269123114962,2.2867642372904617,4,True
2021-10-28,1.0227269123114962,1.0213028190193854,-0.13924472652158126,0,True
2021-10-29,1.0213028190193854,1.0213028190193854,0.0,0,False
2021-10-30,1.0213028190193854,1.0196326987859656,-0.16352840727721363,1,True
2021-10-31,1.0196326987859656,1.0080208159807622,-1.1388299746594277,4,True
2021-11-01,1.0080208159807622,1.0149088516477807,0.6833227605837378,2,True
2021-11-02,1.0149088516477807,1.0149088516477807,0.0,0,False
2021-11-03,1.0149088516477807,1.0149088516477807,0.0,0,False
2021-11-04,1.0149088516477807,1.0135001604872744,-0.13879977085815565,1,True
2021-11-05,1.0135001604872744,1.0135001604872744,0.0,0,False
2021-11-06,1.0135001604872744,1.0135001604872744,0.0,0,False
2021-11-07,1.0135001604872744,1.0135001604872744,0.0,0,False
2021-11-08,1.0135001604872744,1.0135001604872744,0.0,0,False
2021-11-09,1.0135001604872744,1.0135001604872744,0.0,0,False
2021-11-10,1.0135001604872744,1.0135001604872744,0.0,0,False
2021-11-11,1.0135001604872744,1.036174080589172,2.237189591661859,6,True
2021-11-12,1.036174080589172,1.0309998419089352,-0.49935997986888525,1,True
2021-11-13,1.0309998419089352,1.0309998419089352,0.0,0,False
2021-11-14,1.0309998419089352,1.0309998419089352,0.0,0,False
2021-11-15,1.0309998419089352,1.0309998419089352,0.0,0,False
2021-11-16,1.0309998419089352,1.0677777062171807,3.567203680666897,4,True
2021-11-17,1.0677777062171807,1.0677777062171807,0.0,0,False
2021-11-18,1.0677777062171807,1.062442021496927,-0.4996999552609571,1,True
2021-11-19,1.062442021496927,1.062442021496927,0.0,0,False
2021-11-20,1.062442021496927,1.062442021496927,0.0,0,False
2021-11-21,1.062442021496927,1.062442021496927,0.0,0,False
2021-11-22,1.062442021496927,1.062442021496927,0.0,0,False
2021-11-23,1.062442021496927,1.062442021496927,0.0,0,False
2021-11-24,1.062442021496927,1.062442021496927,0.0,0,False
2021-11-25,1.062442021496927,1.0571363736874766,-0.4993823382451579,1,True
2021-11-26,1.0571363736874766,1.0630783307550682,0.5620804671458757,6,True
2021-11-27,1.0630783307550682,1.0603459373044404,-0.2570265399622129,0,True
2021-11-28,1.0603459373044404,1.0550529215051039,-0.499178203369377,1,True
2021-11-29,1.0550529215051039,1.0550529215051039,0.0,0,False
2021-11-30,1.0550529215051039,1.0550529215051039,0.0,0,False
2021-12-01,1.0550529215051039,1.0645602426254186,0.9011226760788249,1,True
2021-12-02,1.0645602426254186,1.0672291352997867,0.2507037711446003,2,True
2021-12-03,1.0672291352997867,1.0561250926540213,-1.0404553510100945,1,True
2021-12-04,1.0561250926540213,1.0299089880059562,-2.482291617765142,5,True
2021-12-05,1.0299089880059562,1.0299089880059562,0.0,0,False
2021-12-06,1.0299089880059562,1.0299089880059562,0.0,0,False
2021-12-07,1.0299089880059562,1.0299089880059562,0.0,0,False
2021-12-08,1.0299089880059562,1.0299089880059562,0.0,0,False
2021-12-09,1.0299089880059562,1.0299089880059562,0.0,0,False
2021-12-10,1.0299089880059562,1.0299089880059562,0.0,0,False
2021-12-11,1.0299089880059562,1.0299089880059562,0.0,0,False
2021-12-12,1.0299089880059562,1.0299089880059562,0.0,0,False
2021-12-13,1.0299089880059562,1.0299089880059562,0.0,0,False
2021-12-14,1.0299089880059562,1.0299089880059562,0.0,0,False
2021-12-15,1.0299089880059562,1.0299089880059562,0.0,0,False
2021-12-16,1.0299089880059562,1.0299089880059562,0.0,0,False
2021-12-17,1.0299089880059562,1.0289591230682968,-0.09222804623721936,1,True
2021-12-18,1.0289591230682968,1.0289591230682968,0.0,0,False
2021-12-19,1.0289591230682968,1.0289591230682968,0.0,0,False
2021-12-20,1.0289591230682968,1.0289591230682968,0.0,0,False
2021-12-21,1.0289591230682968,1.0289591230682968,0.0,0,False
2021-12-22,1.0289591230682968,1.0289591230682968,0.0,0,False
2021-12-23,1.0289591230682968,1.0289591230682968,0.0,0,False
2021-12-24,1.0289591230682968,1.0289591230682968,0.0,0,False
2021-12-25,1.0289591230682968,1.0289591230682968,0.0,0,False
2021-12-26,1.0289591230682968,1.0289591230682968,0.0,0,False
2021-12-27,1.0289591230682968,1.0289591230682968,0.0,0,False
2021-12-28,1.0289591230682968,1.0289591230682968,0.0,0,False
2021-12-29,1.0289591230682968,1.0289591230682968,0.0,0,False
2021-12-30,1.0289591230682968,1.0289591230682968,0.0,0,False
2021-12-31,1.0289591230682968,1.0289591230682968,0.0,0,False
2022-01-01,1.0289591230682968,1.0289591230682968,0.0,0,False
2022-01-02,1.0289591230682968,1.0289591230682968,0.0,0,False
2022-01-03,1.0289591230682968,1.0289591230682968,0.0,0,False
2022-01-04,1.0289591230682968,1.0289591230682968,0.0,0,False
2022-01-05,1.0289591230682968,1.0289591230682968,0.0,0,False
2022-01-06,1.0289591230682968,1.0238287268041142,-0.4986005905544766,1,True
2022-01-07,1.0238287268041142,1.0238287268041142,0.0,0,False
2022-01-08,1.0238287268041142,1.0238287268041142,0.0,0,False
2022-01-09,1.0238287268041142,1.0238287268041142,0.0,0,False
2022-01-10,1.0238287268041142,1.0238287268041142,0.0,0,False
2022-01-11,1.0238287268041142,1.0238287268041142,0.0,0,False
2022-01-12,1.0238287268041142,1.0238287268041142,0.0,0,False
2022-01-13,1.0238287268041142,1.0238287268041142,0.0,0,False
2022-01-14,1.0238287268041142,1.0238287268041142,0.0,0,False
2022-01-15,1.0238287268041142,1.0238287268041142,0.0,0,False
2022-01-16,1.0238287268041142,1.0238287268041142,0.0,0,False
2022-01-17,1.0238287268041142,1.0238287268041142,0.0,0,False
2022-01-18,1.0238287268041142,1.0238287268041142,0.0,0,False
2022-01-19,1.0238287268041142,1.0238287268041142,0.0,0,False
2022-01-20,1.0238287268041142,1.0238287268041142,0.0,0,False
2022-01-21,1.0238287268041142,1.0238287268041142,0.0,0,False
2022-01-22,1.0238287268041142,1.0467041316298755,2.2342999592487534,3,True
2022-01-23,1.0467041316298755,1.0486505891267413,0.1859606203937325,0,True
2022-01-24,1.0486505891267413,1.0486505891267413,0.0,0,False
2022-01-25,1.0486505891267413,1.0486505891267413,0.0,0,False
2022-01-26,1.0486505891267413,1.0486505891267413,0.0,0,False
2022-01-27,1.0486505891267413,1.0486505891267413,0.0,0,False
2022-01-28,1.0486505891267413,1.0486505891267413,0.0,0,False
2022-01-29,1.0486505891267413,1.0486505891267413,0.0,0,False
2022-01-30,1.0486505891267413,1.0486505891267413,0.0,0,False
2022-01-31,1.0486505891267413,1.0520762472816174,0.32667298244011267,1,True
2022-02-01,1.0520762472816174,1.0520762472816174,0.0,0,False
2022-02-02,1.0520762472816174,1.0520762472816174,0.0,0,False
2022-02-03,1.0520762472816174,1.0520762472816174,0.0,0,False
2022-02-04,1.0520762472816174,1.0520762472816174,0.0,0,False
2022-02-05,1.0520762472816174,1.0520762472816174,0.0,0,False
2022-02-06,1.0520762472816174,1.0520762472816174,0.0,0,False
2022-02-07,1.0520762472816174,1.0520762472816174,0.0,0,False
2022-02-08,1.0520762472816174,1.0520762472816174,0.0,0,False
2022-02-09,1.0520762472816174,1.0520762472816174,0.0,0,False
2022-02-10,1.0520762472816174,1.0538443552014156,0.1680589143958633,2,True
2022-02-11,1.0538443552014156,1.0415621355835778,-1.1654680842779985,0,True
2022-02-12,1.0415621355835778,1.0415621355835778,0.0,0,False
2022-02-13,1.0415621355835778,1.0415621355835778,0.0,0,False
2022-02-14,1.0415621355835778,1.0415621355835778,0.0,0,False
2022-02-15,1.0415621355835778,1.0415621355835778,0.0,0,False
2022-02-16,1.0415621355835778,1.0415621355835778,0.0,0,False
2022-02-17,1.0415621355835778,1.0415621355835778,0.0,0,False
2022-02-18,1.0415621355835778,1.0415621355835778,0.0,0,False
2022-02-19,1.0415621355835778,1.0415621355835778,0.0,0,False
2022-02-20,1.0415621355835778,1.0415621355835778,0.0,0,False
2022-02-21,1.0415621355835778,1.0415621355835778,0.0,0,False
2022-02-22,1.0415621355835778,1.0415621355835778,0.0,0,False
2022-02-23,1.0415621355835778,1.0415621355835778,0.0,0,False
2022-02-24,1.0415621355835778,1.0415621355835778,0.0,0,False
2022-02-25,1.0415621355835778,1.0415621355835778,0.0,0,False
2022-02-26,1.0415621355835778,1.0415621355835778,0.0,0,False
2022-02-27,1.0415621355835778,1.0415621355835778,0.0,0,False
2022-02-28,1.0415621355835778,1.0415621355835778,0.0,0,False
2022-03-01,1.0415621355835778,1.0415621355835778,0.0,0,False
2022-03-02,1.0415621355835778,1.0415621355835778,0.0,0,False
2022-03-03,1.0415621355835778,1.0415621355835778,0.0,0,False
2022-03-04,1.0415621355835778,1.0415621355835778,0.0,0,False
2022-03-05,1.0415621355835778,1.0415621355835778,0.0,0,False
2022-03-06,1.0415621355835778,1.0415621355835778,0.0,0,False
2022-03-07,1.0415621355835778,1.0415621355835778,0.0,0,False
2022-03-08,1.0415621355835778,1.0415621355835778,0.0,0,False
2022-03-09,1.0415621355835778,1.0415621355835778,0.0,0,False
2022-03-10,1.0415621355835778,1.0415621355835778,0.0,0,False
2022-03-11,1.0415621355835778,1.0415621355835778,0.0,0,False
2022-03-12,1.0415621355835778,1.0415621355835778,0.0,0,False
2022-03-13,1.0415621355835778,1.0415621355835778,0.0,0,False
2022-03-14,1.0415621355835778,1.0415621355835778,0.0,0,False
2022-03-15,1.0415621355835778,1.0415621355835778,0.0,0,False
2022-03-16,1.0415621355835778,1.0415621355835778,0.0,0,False
2022-03-17,1.0415621355835778,1.0415621355835778,0.0,0,False
2022-03-18,1.0415621355835778,1.0415621355835778,0.0,0,False
2022-03-19,1.0415621355835778,1.0415621355835778,0.0,0,False
2022-03-20,1.0415621355835778,1.0415621355835778,0.0,0,False
2022-03-21,1.0415621355835778,1.0415621355835778,0.0,0,False
2022-03-22,1.0415621355835778,1.0415621355835778,0.0,0,False
2022-03-23,1.0415621355835778,1.0415621355835778,0.0,0,False
2022-03-24,1.0415621355835778,1.0415621355835778,0.0,0,False
2022-03-25,1.0415621355835778,1.0415621355835778,0.0,0,False
2022-03-26,1.0415621355835778,1.0444426936054962,0.276561322988611,1,True
2022-03-27,1.0444426936054962,1.0444426936054962,0.0,0,False
2022-03-28,1.0444426936054962,1.0542613427888596,0.9400850083472356,1,True
2022-03-29,1.0542613427888596,1.0542613427888596,0.0,0,False
2022-03-30,1.0542613427888596,1.0489935352842075,-0.4996680890069549,1,True
2022-03-31,1.0489935352842075,1.0489935352842075,0.0,0,False
2022-04-01,1.0489935352842075,1.0467166402231771,-0.21705520429289304,1,True
2022-04-02,1.0467166402231771,1.0467166402231771,0.0,0,False
2022-04-03,1.0467166402231771,1.0458286505208152,-0.08483572996150768,1,True
2022-04-04,1.0458286505208152,1.0406084890291392,-0.49914118236065175,1,True
2022-04-05,1.0406084890291392,1.0406084890291392,0.0,0,False
2022-04-06,1.0406084890291392,1.0427978176387767,0.2103892705776378,1,True
2022-04-07,1.0427978176387767,1.0375942306018588,-0.4990024862825626,1,True
2022-04-08,1.0375942306018588,1.0375942306018588,0.0,0,False
2022-04-09,1.0375942306018588,1.0375942306018588,0.0,0,False
2022-04-10,1.0375942306018588,1.0375942306018588,0.0,0,False
2022-04-11,1.0375942306018588,1.0375942306018588,0.0,0,False
2022-04-12,1.0375942306018588,1.0375942306018588,0.0,0,False
2022-04-13,1.0375942306018588,1.0375942306018588,0.0,0,False
2022-04-14,1.0375942306018588,1.0375942306018588,0.0,0,False
2022-04-15,1.0375942306018588,1.0375942306018588,0.0,0,False
2022-04-16,1.0375942306018588,1.0375942306018588,0.0,0,False
2022-04-17,1.0375942306018588,1.0375942306018588,0.0,0,False
2022-04-18,1.0375942306018588,1.042127108038112,0.4368641712303889,1,True
2022-04-19,1.042127108038112,1.0399032325596629,-0.21339771907822325,0,True
2022-04-20,1.0399032325596629,1.0399032325596629,0.0,0,False
2022-04-21,1.0399032325596629,1.0399032325596629,0.0,0,False
2022-04-22,1.0399032325596629,1.0399032325596629,0.0,0,False
2022-04-23,1.0399032325596629,1.0399032325596629,0.0,0,False
2022-04-24,1.0399032325596629,1.0399032325596629,0.0,0,False
2022-04-25,1.0399032325596629,1.0399032325596629,0.0,0,False
2022-04-26,1.0399032325596629,1.0399032325596629,0.0,0,False
2022-04-27,1.0399032325596629,1.0347120936994392,-0.4991944151809258,1,True
2022-04-28,1.0347120936994392,1.0347120936994392,0.0,0,False
2022-04-29,1.0347120936994392,1.0295446111147395,-0.4994126014536304,1,True
2022-04-30,1.0295446111147395,1.0295446111147395,0.0,0,False
2022-05-01,1.0295446111147395,1.041439093036927,1.1553148638511868,4,True
2022-05-02,1.041439093036927,1.041439093036927,0.0,0,False
2022-05-03,1.041439093036927,1.041439093036927,0.0,0,False
2022-05-04,1.041439093036927,1.0362387676266174,-0.4993403306135846,1,True
2022-05-05,1.0362387676266174,1.0362387676266174,0.0,0,False
2022-05-06,1.0362387676266174,1.0259203709986184,-0.9957547382281384,2,True
2022-05-07,1.0259203709986184,1.0259203709986184,0.0,0,False
2022-05-08,1.0259203709986184,1.0259203709986184,0.0,0,False
2022-05-09,1.0259203709986184,1.0259203709986184,0.0,0,False
2022-05-10,1.0259203709986184,1.0051939907149863,-2.020271832935472,5,True
2022-05-11,1.0051939907149863,0.9802242897142242,-2.4840678746001488,5,True
2022-05-12,0.9802242897142242,1.0109754810911127,3.1371586788421446,8,True
2022-05-13,1.0109754810911127,1.0117130239913148,0.0729535892805444,0,True
2022-05-14,1.0117130239913148,1.0083935747088586,-0.32810186324978563,2,True
2022-05-15,1.0083935747088586,1.003361412112209,-0.49902763393772087,1,True
2022-05-16,1.003361412112209,0.998355095977007,-0.49895442208236496,1,True
2022-05-17,0.998355095977007,0.998355095977007,0.0,0,False
2022-05-18,0.998355095977007,0.998355095977007,0.0,0,False
2022-05-19,0.998355095977007,0.993371980788992,-0.4991325439310135,1,True
2022-05-20,0.993371980788992,0.9884169418471841,-0.4988100165531528,1,True
2022-05-21,0.9884169418471841,0.9884169418471841,0.0,0,False
2022-05-22,0.9884169418471841,0.9884169418471841,0.0,0,False
2022-05-23,0.9884169418471841,0.9834839417741857,-0.49908089027485003,1,True
2022-05-24,0.9834839417741857,0.982468985310755,-0.10320010529096812,2,True
2022-05-25,0.982468985310755,0.996856186320301,1.4643923853734142,1,True
2022-05-26,0.996856186320301,0.991878633958479,-0.49932502101388554,1,True
2022-05-27,0.991878633958479,0.9869251906463296,-0.49940014257396914,1,True
2022-05-28,0.9869251906463296,0.9869251906463296,0.0,0,False
2022-05-29,0.9869251906463296,0.9869251906463296,0.0,0,False
2022-05-30,0.9869251906463296,0.9869251906463296,0.0,0,False
2022-05-31,0.9869251906463296,0.9721721625154663,-1.4948476612702044,3,True
2022-06-01,0.9721721625154663,0.9721721625154663,0.0,0,False
2022-06-02,0.9721721625154663,0.9673187336639262,-0.4992355303593654,1,True
2022-06-03,0.9673187336639262,0.9673187336639262,0.0,0,False
2022-06-04,0.9673187336639262,0.9673187336639262,0.0,0,False
2022-06-05,0.9673187336639262,0.9673187336639262,0.0,0,False
2022-06-06,0.9673187336639262,0.9673187336639262,0.0,0,False
2022-06-07,0.9673187336639262,0.9688026005139745,0.15339999096553036,1,True
2022-06-08,0.9688026005139745,0.9691422542151834,0.035059123605640785,1,True
2022-06-09,0.9691422542151834,0.9691422542151834,0.0,0,False
2022-06-10,0.9691422542151834,0.9767242011498303,0.7823358131038072,2,True
2022-06-11,0.9767242011498303,0.971842723564361,-0.49978055010029276,1,True
2022-06-12,0.971842723564361,0.9832291313124853,1.171630704437776,4,True
2022-06-13,0.9832291313124853,0.9735035615707922,-0.9891458086388027,3,True
2022-06-14,0.9735035615707922,0.9762338993906835,0.2804651084671761,1,True
2022-06-15,0.9762338993906835,0.9762338993906835,0.0,0,False
2022-06-16,0.9762338993906835,1.003947114030732,2.8387883945994563,4,True
2022-06-17,1.003947114030732,1.003769414344855,-0.01770010425782287,1,True
2022-06-18,1.003769414344855,0.9837888214923793,-1.9905560547007428,4,True
2022-06-19,0.9837888214923793,0.9837888214923793,0.0,0,False
2022-06-20,0.9837888214923793,0.9837888214923793,0.0,0,False
2022-06-21,0.9837888214923793,0.9837888214923793,0.0,0,False
2022-06-22,0.9837888214923793,0.9837888214923793,0.0,0,False
2022-06-23,0.9837888214923793,0.9837888214923793,0.0,0,False
2022-06-24,0.9837888214923793,0.9837888214923793,0.0,0,False
2022-06-25,0.9837888214923793,0.9837888214923793,0.0,0,False
2022-06-26,0.9837888214923793,0.9837888214923793,0.0,0,False
2022-06-27,0.9837888214923793,0.9837888214923793,0.0,0,False
2022-06-28,0.9837888214923793,0.9862511872849814,0.2502941422801275,1,True
2022-06-29,0.9862511872849814,0.9788781636213245,-0.747580713586149,0,True
2022-06-30,0.9788781636213245,0.9788781636213245,0.0,0,False
2022-07-01,0.9788781636213245,0.9788781636213245,0.0,0,False
2022-07-02,0.9788781636213245,0.9788781636213245,0.0,0,False
2022-07-03,0.9788781636213245,0.9770854741308159,-0.1831371417947092,1,True
2022-07-04,0.9770854741308159,0.9770854741308159,0.0,0,False
2022-07-05,0.9770854741308159,0.9770854741308159,0.0,0,False
2022-07-06,0.9770854741308159,0.9770854741308159,0.0,0,False
2022-07-07,0.9770854741308159,0.9770854741308159,0.0,0,False
2022-07-08,0.9770854741308159,0.9770854741308159,0.0,0,False
2022-07-09,0.9770854741308159,0.9770854741308159,0.0,0,False
2022-07-10,0.9770854741308159,0.9770854741308159,0.0,0,False
2022-07-11,0.9770854741308159,0.9770854741308159,0.0,0,False
2022-07-12,0.9770854741308159,0.9770854741308159,0.0,0,False
2022-07-13,0.9770854741308159,0.9945088209308095,1.7831957654976804,4,True
2022-07-14,0.9945088209308095,1.0111353467486162,1.6718329156945044,0,True
2022-07-15,1.0111353467486162,1.0111353467486162,0.0,0,False
2022-07-16,1.0111353467486162,1.0111353467486162,0.0,0,False
2022-07-17,1.0111353467486162,1.0111353467486162,0.0,0,False
2022-07-18,1.0111353467486162,1.0111353467486162,0.0,0,False
2022-07-19,1.0111353467486162,1.008478604824907,-0.26274839785317416,2,True
2022-07-20,1.008478604824907,1.008478604824907,0.0,0,False
2022-07-21,1.008478604824907,0.998908160769841,-0.9489982245808437,3,True
2022-07-22,0.998908160769841,0.998908160769841,0.0,0,False
2022-07-23,0.998908160769841,0.998908160769841,0.0,0,False
2022-07-24,0.998908160769841,1.007970145872219,0.9071890147933193,1,True
2022-07-25,1.007970145872219,1.0096082370649404,0.16251386010088797,1,True
2022-07-26,1.0096082370649404,1.0096082370649404,0.0,0,False
2022-07-27,1.0096082370649404,1.0096082370649404,0.0,0,False
2022-07-28,1.0096082370649404,1.0096082370649404,0.0,0,False
2022-07-29,1.0096082370649404,1.004565943516582,-0.4994307062130443,1,True
2022-07-30,1.004565943516582,1.004565943516582,0.0,0,False
2022-07-31,1.004565943516582,0.999544952102842,-0.4998170051598083,1,True
2022-08-01,0.999544952102842,0.999544952102842,0.0,0,False
2022-08-02,0.999544952102842,0.999544952102842,0.0,0,False
2022-08-03,0.999544952102842,0.99733223701811,-0.22137224344707107,1,True
2022-08-04,0.99733223701811,0.99733223701811,0.0,0,False
2022-08-05,0.99733223701811,0.99733223701811,0.0,0,False
2022-08-06,0.99733223701811,0.99733223701811,0.0,0,False
2022-08-07,0.99733223701811,0.99733223701811,0.0,0,False
2022-08-08,0.99733223701811,0.99733223701811,0.0,0,False
2022-08-09,0.99733223701811,1.000332509394668,0.3008297802072901,1,True
2022-08-10,1.000332509394668,1.000332509394668,0.0,0,False
2022-08-11,1.000332509394668,1.000332509394668,0.0,0,False
2022-08-12,1.000332509394668,1.000874262954364,0.05415734814255835,1,True
2022-08-13,1.000874262954364,1.000874262954364,0.0,0,False
2022-08-14,1.000874262954364,1.000874262954364,0.0,0,False
2022-08-15,1.000874262954364,1.000874262954364,0.0,0,False
2022-08-16,1.000874262954364,1.0006004427686983,-0.02735810039290465,1,True
2022-08-17,1.0006004427686983,1.0006004427686983,0.0,0,False
2022-08-18,1.0006004427686983,1.0006004427686983,0.0,0,False
2022-08-19,1.0006004427686983,0.9754961912544625,-2.5089186893393123,8,True
2022-08-20,0.9754961912544625,0.9754961912544625,0.0,0,False
2022-08-21,0.9754961912544625,0.9754961912544625,0.0,0,False
2022-08-22,0.9754961912544625,0.9754961912544625,0.0,0,False
2022-08-23,0.9754961912544625,0.9754961912544625,0.0,0,False
2022-08-24,0.9754961912544625,0.9754961912544625,0.0,0,False
2022-08-25,0.9754961912544625,0.9754961912544625,0.0,0,False
2022-08-26,0.9754961912544625,0.9754961912544625,0.0,0,False
2022-08-27,0.9754961912544625,0.970626122406994,-0.499240170400439,1,True
2022-08-28,0.970626122406994,0.9716814086412329,0.10872221650308767,1,True
2022-08-29,0.9716814086412329,0.968595218737574,-0.3176133531230585,0,True
2022-08-30,0.968595218737574,0.968595218737574,0.0,0,False
2022-08-31,0.968595218737574,0.968595218737574,0.0,0,False
2022-09-01,0.968595218737574,0.968595218737574,0.0,0,False
2022-09-02,0.968595218737574,0.968595218737574,0.0,0,False
2022-09-03,0.968595218737574,0.968595218737574,0.0,0,False
2022-09-04,0.968595218737574,0.968595218737574,0.0,0,False
2022-09-05,0.968595218737574,0.968595218737574,0.0,0,False
2022-09-06,0.968595218737574,0.968595218737574,0.0,0,False
2022-09-07,0.968595218737574,0.9583526112379585,-1.057470375805214,4,True
2022-09-08,0.9583526112379585,0.9583526112379585,0.0,0,False
2022-09-09,0.9583526112379585,0.9583526112379585,0.0,0,False
2022-09-10,0.9583526112379585,0.9583526112379585,0.0,0,False
2022-09-11,0.9583526112379585,0.9583526112379585,0.0,0,False
2022-09-12,0.9583526112379585,0.9583526112379585,0.0,0,False
2022-09-13,0.9583526112379585,0.9537661213881018,-0.478580618039115,4,True
2022-09-14,0.9537661213881018,0.9479704814307786,-0.6076584004565344,1,True
2022-09-15,0.9479704814307786,0.9522320131708775,0.4495426623059906,1,True
2022-09-16,0.9522320131708775,0.9522320131708775,0.0,0,False
2022-09-17,0.9522320131708775,0.9522320131708775,0.0,0,False
2022-09-18,0.9522320131708775,0.9522320131708775,0.0,0,False
2022-09-19,0.9522320131708775,0.9555688687654215,0.3504246389944843,5,True
2022-09-20,0.9555688687654215,0.9555688687654215,0.0,0,False
2022-09-21,0.9555688687654215,0.9555688687654215,0.0,0,False
2022-09-22,0.9555688687654215,0.9555688687654215,0.0,0,False
2022-09-23,0.9555688687654215,0.9555688687654215,0.0,0,False
2022-09-24,0.9555688687654215,0.9555688687654215,0.0,0,False
2022-09-25,0.9555688687654215,0.9555688687654215,0.0,0,False
2022-09-26,0.9555688687654215,0.9555688687654215,0.0,0,False
2022-09-27,0.9555688687654215,0.9555688687654215,0.0,0,False
2022-09-28,0.9555688687654215,0.9555688687654215,0.0,0,False
2022-09-29,0.9555688687654215,0.9555688687654215,0.0,0,False
2022-09-30,0.9555688687654215,0.9555688687654215,0.0,0,False
2022-10-01,0.9555688687654215,0.9555688687654215,0.0,0,False
2022-10-02,0.9555688687654215,0.9555688687654215,0.0,0,False
2022-10-03,0.9555688687654215,0.9555688687654215,0.0,0,False
2022-10-04,0.9555688687654215,0.9555688687654215,0.0,0,False
2022-10-05,0.9555688687654215,0.9555688687654215,0.0,0,False
2022-10-06,0.9555688687654215,0.9555688687654215,0.0,0,False
2022-10-07,0.9555688687654215,0.9555688687654215,0.0,0,False
2022-10-08,0.9555688687654215,0.9555688687654215,0.0,0,False
2022-10-09,0.9555688687654215,0.9555688687654215,0.0,0,False
2022-10-10,0.9555688687654215,0.9531832889797265,-0.2496502202690154,1,True
2022-10-11,0.9531832889797265,0.9693954220703362,1.7008410951017572,4,True
2022-10-12,0.9693954220703362,0.9693954220703362,0.0,0,False
2022-10-13,0.9693954220703362,0.9693954220703362,0.0,0,False
2022-10-14,0.9693954220703362,0.9693954220703362,0.0,0,False
2022-10-15,0.9693954220703362,0.9693954220703362,0.0,0,False
2022-10-16,0.9693954220703362,0.9693954220703362,0.0,0,False
2022-10-17,0.9693954220703362,0.9693954220703362,0.0,0,False
2022-10-18,0.9693954220703362,0.9693954220703362,0.0,0,False
2022-10-19,0.9693954220703362,0.9693954220703362,0.0,0,False
2022-10-20,0.9693954220703362,0.9723623260247052,0.3060571451877214,1,True
2022-10-21,0.9723623260247052,0.9723623260247052,0.0,0,False
2022-10-22,0.9723623260247052,0.9723623260247052,0.0,0,False
2022-10-23,0.9723623260247052,0.9723623260247052,0.0,0,False
2022-10-24,0.9723623260247052,0.9723623260247052,0.0,0,False
2022-10-25,0.9723623260247052,0.9723623260247052,0.0,0,False
2022-10-26,0.9723623260247052,0.9723623260247052,0.0,0,False
2022-10-27,0.9723623260247052,0.9723623260247052,0.0,0,False
2022-10-28,0.9723623260247052,0.9723623260247052,0.0,0,False
2022-10-29,0.9723623260247052,0.9723623260247052,0.0,0,False
2022-10-30,0.9723623260247052,0.9723623260247052,0.0,0,False
2022-10-31,0.9723623260247052,0.9723623260247052,0.0,0,False
2022-11-01,0.9723623260247052,0.9723623260247052,0.0,0,False
2022-11-02,0.9723623260247052,0.9767202500918489,0.4481790327027779,1,True
2022-11-03,0.9767202500918489,0.9763861269883946,-0.034208679857206103,3,True
2022-11-04,0.9763861269883946,0.9711372338800907,-0.5375837451207732,5,True
2022-11-05,0.9711372338800907,0.971682843677303,0.05618256392376786,1,True
2022-11-06,0.971682843677303,0.971682843677303,0.0,0,False
2022-11-07,0.971682843677303,0.9699085659936516,-0.1825984368455713,2,True
2022-11-08,0.9699085659936516,0.9669914694945688,-0.3007599480363665,5,True
2022-11-09,0.9669914694945688,0.9518313082066198,-1.5677657731430705,14,True
2022-11-10,0.9518313082066198,0.9661661882344468,1.506031573476596,5,True
2022-11-11,0.9661661882344468,0.9767148771450165,1.091808949539641,5,True
2022-11-12,0.9767148771450165,0.9757880822118259,-0.09488899523059091,2,True
2022-11-13,0.9757880822118259,0.9733533149896129,-0.24951803230616187,1,True
2022-11-14,0.9733533149896129,0.9734459708696286,0.009519244306144259,2,True
2022-11-15,0.9734459708696286,0.9734459708696286,0.0,0,False
2022-11-16,0.9734459708696286,0.9734459708696286,0.0,0,False
2022-11-17,0.9734459708696286,0.9734459708696286,0.0,0,False
2022-11-18,0.9734459708696286,0.9734459708696286,0.0,0,False
2022-11-19,0.9734459708696286,0.9736715503640205,0.023173293756650892,2,True
2022-11-20,0.9736715503640205,0.9716646743106578,-0.20611427463526066,1,True
2022-11-21,0.9716646743106578,0.968635691632361,-0.31173127503536513,1,True
2022-11-22,0.968635691632361,0.968635691632361,0.0,0,False
2022-11-23,0.968635691632361,0.968635691632361,0.0,0,False
2022-11-24,0.968635691632361,0.968635691632361,0.0,0,False
2022-11-25,0.968635691632361,0.968476684919246,-0.016415533155400563,1,True
2022-11-26,0.968476684919246,0.968476684919246,0.0,0,False
2022-11-27,0.968476684919246,0.968476684919246,0.0,0,False
2022-11-28,0.968476684919246,0.9662430033433881,-0.23063865249829396,2,True
2022-11-29,0.9662430033433881,0.9662430033433881,0.0,0,False
2022-11-30,0.9662430033433881,0.9662430033433881,0.0,0,False
2022-12-01,0.9662430033433881,0.9661969866478689,-0.004762435056182568,1,True
2022-12-02,0.9661969866478689,0.9655788538689133,-0.06397585456151544,1,True
2022-12-03,0.9655788538689133,0.9655788538689133,0.0,0,False
2022-12-04,0.9655788538689133,0.9652820840799603,-0.03073490971388093,3,True
2022-12-05,0.9652820840799603,0.9663914151346291,0.11492299224906688,1,True
2022-12-06,0.9663914151346291,0.9656231788112044,-0.07949535885701797,0,True
2022-12-07,0.9656231788112044,0.9656231788112044,0.0,0,False
2022-12-08,0.9656231788112044,0.9632156955425815,-0.24931912587131677,1,True
2022-12-09,0.9632156955425815,0.9632156955425815,0.0,0,False
2022-12-10,0.9632156955425815,0.9632156955425815,0.0,0,False
2022-12-11,0.9632156955425815,0.9632156955425815,0.0,0,False
2022-12-12,0.9632156955425815,0.9632156955425815,0.0,0,False
2022-12-13,0.9632156955425815,0.9632156955425815,0.0,0,False
2022-12-14,0.9632156955425815,0.9632156955425815,0.0,0,False
2022-12-15,0.9632156955425815,0.9632156955425815,0.0,0,False
2022-12-16,0.9632156955425815,0.9632156955425815,0.0,0,False
2022-12-17,0.9632156955425815,0.9710118963893988,0.8093930448699549,4,True
2022-12-18,0.9710118963893988,0.9710118963893988,0.0,0,False
2022-12-19,0.9710118963893988,0.9710118963893988,0.0,0,False
2022-12-20,0.9710118963893988,0.9710118963893988,0.0,0,False
2022-12-21,0.9710118963893988,0.9710118963893988,0.0,0,False
2022-12-22,0.9710118963893988,0.9710118963893988,0.0,0,False
2022-12-23,0.9710118963893988,0.9710118963893988,0.0,0,False
2022-12-24,0.9710118963893988,0.9710118963893988,0.0,0,False
2022-12-25,0.9710118963893988,0.9710118963893988,0.0,0,False
2022-12-26,0.9710118963893988,0.9710118963893988,0.0,0,False
2022-12-27,0.9710118963893988,0.9710118963893988,0.0,0,False
2022-12-28,0.9710118963893988,0.9729021930011246,0.19467285815495394,1,True
2022-12-29,0.9729021930011246,0.9721931207407939,-0.07288217309320277,0,True
2022-12-30,0.9721931207407939,0.9721931207407939,0.0,0,False
2022-12-31,0.9721931207407939,0.9721931207407939,0.0,0,False
2023-01-01,0.9721931207407939,0.9721931207407939,0.0,0,False
2023-01-02,0.9721931207407939,0.9724543605040677,0.026871179984766513,1,True
2023-01-03,0.9724543605040677,0.9725181928178567,0.006564042116674607,0,True
2023-01-04,0.9725181928178567,0.9725181928178567,0.0,0,False
2023-01-05,0.9725181928178567,0.9725181928178567,0.0,0,False
2023-01-06,0.9725181928178567,0.9725181928178567,0.0,0,False
2023-01-07,0.9725181928178567,0.9725181928178567,0.0,0,False
2023-01-08,0.9725181928178567,0.9725181928178567,0.0,0,False
2023-01-09,0.9725181928178567,0.9725181928178567,0.0,0,False
2023-01-10,0.9725181928178567,0.9710817720138853,-0.14770117562626917,2,True
2023-01-11,0.9710817720138853,0.9715778864288498,0.05108884022564375,0,True
2023-01-12,0.9715778864288498,0.9715778864288498,0.0,0,False
2023-01-13,0.9715778864288498,0.9715778864288498,0.0,0,False
2023-01-14,0.9715778864288498,0.9689521818344077,-0.27025158055966614,3,True
2023-01-15,0.9689521818344077,0.9699730376060791,0.1053566719607213,1,True
2023-01-16,0.9699730376060791,0.9699730376060791,0.0,0,False
2023-01-17,0.9699730376060791,0.9699730376060791,0.0,0,False
2023-01-18,0.9699730376060791,0.9699730376060791,0.0,0,False
2023-01-19,0.9699730376060791,0.9675523076511182,-0.24956672619842468,1,True
2023-01-20,0.9675523076511182,0.9675523076511182,0.0,0,False
2023-01-21,0.9675523076511182,0.968476715418607,0.09554085708636251,1,True
2023-01-22,0.968476715418607,0.9679860187818558,-0.05066684918069164,0,True
2023-01-23,0.9679860187818558,0.9679860187818558,0.0,0,False
2023-01-24,0.9679860187818558,0.9724199902564261,0.4580615203668037,1,True
2023-01-25,0.9724199902564261,0.9801925776034452,0.7993035339564969,5,True
2023-01-26,0.9801925776034452,0.9847725134883454,0.46724857844751,1,True
2023-01-27,0.9847725134883454,0.9847725134883454,0.0,0,False
2023-01-28,0.9847725134883454,0.9847725134883454,0.0,0,False
2023-01-29,0.9847725134883454,0.9847725134883454,0.0,0,False
2023-01-30,0.9847725134883454,0.9848908702281599,0.012018688396908672,2,True
2023-01-31,0.9848908702281599,0.9857156031844356,0.08373851166725288,2,True
2023-02-01,0.9857156031844356,0.9857156031844356,0.0,0,False
2023-02-02,0.9857156031844356,0.9857156031844356,0.0,0,False
2023-02-03,0.9857156031844356,0.9857156031844356,0.0,0,False
2023-02-04,0.9857156031844356,0.9857156031844356,0.0,0,False
2023-02-05,0.9857156031844356,0.9879234766370236,0.22398686248399358,5,True
2023-02-06,0.9879234766370236,0.9954790196329669,0.7647903076119844,1,True
2023-02-07,0.9954790196329669,0.9954790196329669,0.0,0,False
2023-02-08,0.9954790196329669,0.9954790196329669,0.0,0,False
2023-02-09,0.9954790196329669,0.9954790196329669,0.0,0,False
2023-02-10,0.9954790196329669,0.9968188508779537,0.13459161052744584,1,True
2023-02-11,0.9968188508779537,0.9952826759539171,-0.1541077320802775,0,True
2023-02-12,0.9952826759539171,0.9927975689727545,-0.2496885599642118,1,True
2023-02-13,0.9927975689727545,0.9927975689727545,0.0,0,False
2023-02-14,0.9927975689727545,0.9927975689727545,0.0,0,False
2023-02-15,0.9927975689727545,0.9927975689727545,0.0,0,False
2023-02-16,0.9927975689727545,0.9927975689727545,0.0,0,False
2023-02-17,0.9927975689727545,0.9927975689727545,0.0,0,False
2023-02-18,0.9927975689727545,0.9927975689727545,0.0,0,False
2023-02-19,0.9927975689727545,0.9927975689727545,0.0,0,False
2023-02-20,0.9927975689727545,0.9927975689727545,0.0,0,False
2023-02-21,0.9927975689727545,0.9909058236482919,-0.19054693359291663,3,True
2023-02-22,0.9909058236482919,0.9895035140523243,-0.1415179487799012,2,True
2023-02-23,0.9895035140523243,0.993921609533761,0.44649618911845046,1,True
2023-02-24,0.993921609533761,0.993921609533761,0.0,0,False
2023-02-25,0.993921609533761,0.993921609533761,0.0,0,False
2023-02-26,0.993921609533761,0.9948616879257014,0.09458275008040751,1,True
2023-02-27,0.9948616879257014,0.9923784457641722,-0.2496067736518004,1,True
2023-02-28,0.9923784457641722,0.9923784457641722,0.0,0,False
2023-03-01,0.9923784457641722,0.9923784457641722,0.0,0,False
2023-03-02,0.9923784457641722,0.9923784457641722,0.0,0,False
2023-03-03,0.9923784457641722,0.9919312829817396,-0.045059703215166724,6,True
2023-03-04,0.9919312829817396,0.9919312829817396,0.0,0,False
2023-03-05,0.9919312829817396,0.9919312829817396,0.0,0,False
2023-03-06,0.9919312829817396,0.9919312829817396,0.0,0,False
2023-03-07,0.9919312829817396,0.9919312829817396,0.0,0,False
2023-03-08,0.9919312829817396,0.9919312829817396,0.0,0,False
2023-03-09,0.9919312829817396,0.9919312829817396,0.0,0,False
2023-03-10,0.9919312829817396,0.989451988190911,-0.24994622443763603,1,True
2023-03-11,0.989451988190911,0.9979586395047438,0.8597336116718646,3,True
2023-03-12,0.9979586395047438,1.0032467168029238,0.5298894251573705,0,True
2023-03-13,1.0032467168029238,1.0032467168029238,0.0,0,False
2023-03-14,1.0032467168029238,1.0032467168029238,0.0,0,False
2023-03-15,1.0032467168029238,1.0032467168029238,0.0,0,False
2023-03-16,1.0032467168029238,1.0071597453715315,0.39003651874163214,5,True
2023-03-17,1.0071597453715315,1.0052408456659927,-0.19052585395288313,2,True
2023-03-18,1.0052408456659927,1.0040827826252012,-0.11520254531880436,0,True
2023-03-19,1.0040827826252012,1.0040827826252012,0.0,0,False
2023-03-20,1.0040827826252012,1.0040827826252012,0.0,0,False
2023-03-21,1.0040827826252012,0.9990777722240224,-0.49846591215249036,2,True
2023-03-22,0.9990777722240224,0.9990777722240224,0.0,0,False
2023-03-23,0.9990777722240224,1.0047903749020473,0.5717875861964261,3,True
2023-03-24,1.0047903749020473,1.0053662623652502,0.057314189863633125,0,True
2023-03-25,1.0053662623652502,1.0028577183529481,-0.24951543593678682,1,True
2023-03-26,1.0028577183529481,1.0028577183529481,0.0,0,False
2023-03-27,1.0028577183529481,1.0028577183529481,0.0,0,False
2023-03-28,1.0028577183529481,1.0028577183529481,0.0,0,False
2023-03-29,1.0028577183529481,1.0028577183529481,0.0,0,False
2023-03-30,1.0028577183529481,1.0028577183529481,0.0,0,False
2023-03-31,1.0028577183529481,1.0028577183529481,0.0,0,False
2023-04-01,1.0028577183529481,1.0028577183529481,0.0,0,False
2023-04-02,1.0028577183529481,1.0028577183529481,0.0,0,False
2023-04-03,1.0028577183529481,1.0028577183529481,0.0,0,False
2023-04-04,1.0028577183529481,1.0003543020628278,-0.2496282617470258,1,True
2023-04-05,1.0003543020628278,1.0003543020628278,0.0,0,False
2023-04-06,1.0003543020628278,0.9978585191982425,-0.2494898916752586,1,True
2023-04-07,0.9978585191982425,0.9953658850120508,-0.2497983570050044,1,True
2023-04-08,0.9953658850120508,0.9953658850120508,0.0,0,False
2023-04-09,0.9953658850120508,0.9953658850120508,0.0,0,False
2023-04-10,0.9953658850120508,0.9953658850120508,0.0,0,False
2023-04-11,0.9953658850120508,0.9953658850120508,0.0,0,False
2023-04-12,0.9953658850120508,0.9953658850120508,0.0,0,False
2023-04-13,0.9953658850120508,0.9953658850120508,0.0,0,False
2023-04-14,0.9953658850120508,0.9953658850120508,0.0,0,False
2023-04-15,0.9953658850120508,0.9953658850120508,0.0,0,False
2023-04-16,0.9953658850120508,0.9953658850120508,0.0,0,False
2023-04-17,0.9953658850120508,0.9928813986748488,-0.2496053335374171,1,True
2023-04-18,0.9928813986748488,0.9928813986748488,0.0,0,False
2023-04-19,0.9928813986748488,0.9854654003540326,-0.7469168352548405,3,True
2023-04-20,0.9854654003540326,0.9854654003540326,0.0,0,False
2023-04-21,0.9854654003540326,0.9854654003540326,0.0,0,False
2023-04-22,0.9854654003540326,0.9854654003540326,0.0,0,False
2023-04-23,0.9854654003540326,0.9854654003540326,0.0,0,False
2023-04-24,0.9854654003540326,0.9854654003540326,0.0,0,False
2023-04-25,0.9854654003540326,0.9854654003540326,0.0,0,False
2023-04-26,0.9854654003540326,0.9854654003540326,0.0,0,False
2023-04-27,0.9854654003540326,0.9854654003540326,0.0,0,False
2023-04-28,0.9854654003540326,0.9854654003540326,0.0,0,False
2023-04-29,0.9854654003540326,0.9854654003540326,0.0,0,False
2023-04-30,0.9854654003540326,0.9854654003540326,0.0,0,False
2023-05-01,0.9854654003540326,0.9854654003540326,0.0,0,False
2023-05-02,0.9854654003540326,0.9854654003540326,0.0,0,False
2023-05-03,0.9854654003540326,0.9854654003540326,0.0,0,False
2023-05-04,0.9854654003540326,0.9854654003540326,0.0,0,False
2023-05-05,0.9854654003540326,0.9854654003540326,0.0,0,False
2023-05-06,0.9854654003540326,0.9854654003540326,0.0,0,False
2023-05-07,0.9854654003540326,0.9854654003540326,0.0,0,False
2023-05-08,0.9854654003540326,0.9835265845370729,-0.19674113533192372,5,True
2023-05-09,0.9835265845370729,0.9832224936711776,-0.030918418543646187,2,True
2023-05-10,0.9832224936711776,0.9843084154991318,0.11044517745923965,1,True
2023-05-11,0.9843084154991318,0.9853806610473906,0.10893390032788997,0,True
2023-05-12,0.9853806610473906,0.9853806610473906,0.0,0,False
2023-05-13,0.9853806610473906,0.9853806610473906,0.0,0,False
2023-05-14,0.9853806610473906,0.9853806610473906,0.0,0,False
2023-05-15,0.9853806610473906,0.9853806610473906,0.0,0,False
2023-05-16,0.9853806610473906,0.9853806610473906,0.0,0,False
2023-05-17,0.9853806610473906,0.9853806610473906,0.0,0,False
2023-05-18,0.9853806610473906,0.9853806610473906,0.0,0,False
2023-05-19,0.9853806610473906,0.9853806610473906,0.0,0,False
2023-05-20,0.9853806610473906,0.9853806610473906,0.0,0,False
2023-05-21,0.9853806610473906,0.9853806610473906,0.0,0,False
2023-05-22,0.9853806610473906,0.9853806610473906,0.0,0,False
2023-05-23,0.9853806610473906,0.9853806610473906,0.0,0,False
2023-05-24,0.9853806610473906,0.9853806610473906,0.0,0,False
2023-05-25,0.9853806610473906,0.9853806610473906,0.0,0,False
2023-05-26,0.9853806610473906,0.9868062364416088,0.1446725565633633,1,True
2023-05-27,0.9868062364416088,0.9873326413948762,0.05334430750716379,1,True
2023-05-28,0.9873326413948762,0.9873326413948762,0.0,0,False
2023-05-29,0.9873326413948762,0.9873326413948762,0.0,0,False
2023-05-30,0.9873326413948762,0.9919980956551759,0.47253114752778824,1,True
2023-05-31,0.9919980956551759,0.9919980956551759,0.0,0,False
2023-06-01,0.9919980956551759,0.9919980956551759,0.0,0,False
2023-06-02,0.9919980956551759,0.9958396957099981,0.38725881346424185,3,True
2023-06-03,0.9958396957099981,0.9898145501319766,-0.6050316736696981,1,True
2023-06-04,0.9898145501319766,0.9898145501319766,0.0,0,False
2023-06-05,0.9898145501319766,0.9898145501319766,0.0,0,False
2023-06-06,0.9898145501319766,0.979960906664883,-0.9955040028235329,4,True
2023-06-07,0.979960906664883,0.979960906664883,0.0,0,False
2023-06-08,0.979960906664883,0.9775142219224734,-0.24967166810117014,1,True
2023-06-09,0.9775142219224734,0.9775142219224734,0.0,0,False
2023-06-10,0.9775142219224734,0.9906528890322785,1.3440896117056456,5,True
2023-06-11,0.9906528890322785,0.9907434466053955,0.009141201133067156,0,True
2023-06-12,0.9907434466053955,0.9907434466053955,0.0,0,False
2023-06-13,0.9907434466053955,0.9882696258330856,-0.2496933773103338,1,True
2023-06-14,0.9882696258330856,0.9882696258330856,0.0,0,False
2023-06-15,0.9882696258330856,0.9882696258330856,0.0,0,False
2023-06-16,0.9882696258330856,0.9882696258330856,0.0,0,False
2023-06-17,0.9882696258330856,0.9882696258330856,0.0,0,False
2023-06-18,0.9882696258330856,0.9882696258330856,0.0,0,False
2023-06-19,0.9882696258330856,0.9928262518821471,0.46107114191842324,1,True
2023-06-20,0.9928262518821471,0.9928262518821471,0.0,0,False
2023-06-21,0.9928262518821471,0.9928262518821471,0.0,0,False
2023-06-22,0.9928262518821471,0.9950402821384705,0.22300279148805835,2,True
2023-06-23,0.9950402821384705,0.9950402821384705,0.0,0,False
2023-06-24,0.9950402821384705,0.9950402821384705,0.0,0,False
2023-06-25,0.9950402821384705,0.9925549016346592,-0.24977687320053565,1,True
2023-06-26,0.9925549016346592,0.9925549016346592,0.0,0,False
2023-06-27,0.9925549016346592,0.9925549016346592,0.0,0,False
2023-06-28,0.9925549016346592,0.9925549016346592,0.0,0,False
2023-06-29,0.9925549016346592,0.9925549016346592,0.0,0,False
2023-06-30,0.9925549016346592,0.9826620321143735,-0.9967075376881351,4,True
2023-07-01,0.9826620321143735,0.9802097671230383,-0.24955324528604939,1,True
2023-07-02,0.9802097671230383,0.9802097671230383,0.0,0,False
2023-07-03,0.9802097671230383,0.9802097671230383,0.0,0,False
2023-07-04,0.9802097671230383,0.9802097671230383,0.0,0,False
2023-07-05,0.9802097671230383,0.9777620647393873,-0.2497120989556234,1,True
2023-07-06,0.9777620647393873,0.9777620647393873,0.0,0,False
2023-07-07,0.9777620647393873,0.9777620647393873,0.0,0,False
2023-07-08,0.9777620647393873,0.9777620647393873,0.0,0,False
2023-07-09,0.9777620647393873,0.9777620647393873,0.0,0,False
2023-07-10,0.9777620647393873,0.9777620647393873,0.0,0,False
2023-07-11,0.9777620647393873,0.9777620647393873,0.0,0,False
2023-07-12,0.9777620647393873,0.9777620647393873,0.0,0,False
2023-07-13,0.9777620647393873,0.9777620647393873,0.0,0,False
2023-07-14,0.9777620647393873,0.9777620647393873,0.0,0,False
2023-07-15,0.9777620647393873,0.9777620647393873,0.0,0,False
2023-07-16,0.9777620647393873,0.9777620647393873,0.0,0,False
2023-07-17,0.9777620647393873,0.9777620647393873,0.0,0,False
2023-07-18,0.9777620647393873,0.9777620647393873,0.0,0,False
2023-07-19,0.9777620647393873,0.9777620647393873,0.0,0,False
2023-07-20,0.9777620647393873,0.9777620647393873,0.0,0,False
2023-07-21,0.9777620647393873,0.9777620647393873,0.0,0,False
2023-07-22,0.9777620647393873,0.9777620647393873,0.0,0,False
2023-07-23,0.9777620647393873,0.9777620647393873,0.0,0,False
2023-07-24,0.9777620647393873,0.9756494332149522,-0.21606805997307355,2,True
2023-07-25,0.9756494332149522,0.9755421850279298,-0.01099249211564679,0,True
2023-07-26,0.9755421850279298,0.9755421850279298,0.0,0,False
2023-07-27,0.9755421850279298,0.9755421850279298,0.0,0,False
2023-07-28,0.9755421850279298,0.9755421850279298,0.0,0,False
2023-07-29,0.9755421850279298,0.9755421850279298,0.0,0,False
2023-07-30,0.9755421850279298,0.9755421850279298,0.0,0,False
2023-07-31,0.9755421850279298,0.9755421850279298,0.0,0,False
2023-08-01,0.9755421850279298,0.9755421850279298,0.0,0,False
2023-08-02,0.9755421850279298,0.9755421850279298,0.0,0,False
2023-08-03,0.9755421850279298,0.9755421850279298,0.0,0,False
2023-08-04,0.9755421850279298,0.9755421850279298,0.0,0,False
2023-08-05,0.9755421850279298,0.9755421850279298,0.0,0,False
2023-08-06,0.9755421850279298,0.9755421850279298,0.0,0,False
2023-08-07,0.9755421850279298,0.9755421850279298,0.0,0,False
2023-08-08,0.9755421850279298,0.9755421850279298,0.0,0,False
2023-08-09,0.9755421850279298,0.9755421850279298,0.0,0,False
2023-08-10,0.9755421850279298,0.9755421850279298,0.0,0,False
2023-08-11,0.9755421850279298,0.9755421850279298,0.0,0,False
2023-08-12,0.9755421850279298,0.9755421850279298,0.0,0,False
2023-08-13,0.9755421850279298,0.9800810407154262,0.46526493237875055,1,True
2023-08-14,0.9800810407154262,0.9803303207869168,0.025434638681365307,1,True
2023-08-15,0.9803303207869168,0.980531207372809,0.02049172423137513,0,True
2023-08-16,0.980531207372809,0.9889733278408995,0.8609741744691535,4,True
2023-08-17,0.9889733278408995,0.9875559848367158,-0.14331458334453373,1,True
2023-08-18,0.9875559848367158,1.0052317880203956,1.7898532797208766,4,True
2023-08-19,1.0052317880203956,1.014752098817694,0.9470761779277526,2,True
2023-08-20,1.014752098817694,1.014752098817694,0.0,0,False
2023-08-21,1.014752098817694,1.014752098817694,0.0,0,False
2023-08-22,1.014752098817694,1.014752098817694,0.0,0,False
2023-08-23,1.014752098817694,1.014752098817694,0.0,0,False
2023-08-24,1.014752098817694,1.014752098817694,0.0,0,False
2023-08-25,1.014752098817694,1.011985681917804,-0.27261997320461306,5,True
2023-08-26,1.011985681917804,1.0123284196816482,0.0338678471413445,0,True
2023-08-27,1.0123284196816482,1.0123284196816482,0.0,0,False
2023-08-28,1.0123284196816482,1.0123284196816482,0.0,0,False
2023-08-29,1.0123284196816482,1.0129285619287873,0.05928335463780687,1,True
2023-08-30,1.0129285619287873,1.0129285619287873,0.0,0,False
2023-08-31,1.0129285619287873,1.0129285619287873,0.0,0,False
2023-09-01,1.0129285619287873,1.0129285619287873,0.0,0,False
2023-09-02,1.0129285619287873,1.0238401506340522,1.077231812329127,3,True
2023-09-03,1.0238401506340522,1.0242766489270212,0.04263344162647176,0,True
2023-09-04,1.0242766489270212,1.0239118248581482,-0.035617727813586075,1,True
2023-09-05,1.0239118248581482,1.0263464572618448,0.23777754535003748,2,True
2023-09-06,1.0263464572618448,1.0266899540362961,0.03346791641565261,1,True
2023-09-07,1.0266899540362961,1.0266899540362961,0.0,0,False
2023-09-08,1.0266899540362961,1.0286350597710805,0.18945405349857225,3,True
2023-09-09,1.0286350597710805,1.025309746278604,-0.3232743683864392,1,True
2023-09-10,1.025309746278604,1.0217181435608254,-0.35029440915923526,3,True
2023-09-11,1.0217181435608254,1.019634807650771,-0.20390514969162998,1,True
2023-09-12,1.019634807650771,1.019634807650771,0.0,0,False
2023-09-13,1.019634807650771,1.01708971069882,-0.2496086768374539,1,True
2023-09-14,1.01708971069882,1.01708971069882,0.0,0,False
2023-09-15,1.01708971069882,1.01708971069882,0.0,0,False
2023-09-16,1.01708971069882,1.0219215525928498,0.4750654581600289,1,True
2023-09-17,1.0219215525928498,1.0267814237106332,0.47556205321757083,1,True
2023-09-18,1.0267814237106332,1.01910992877751,-0.7471400198690303,3,True
2023-09-19,1.01910992877751,1.01910992877751,0.0,0,False
2023-09-20,1.01910992877751,1.0209802209043957,0.18352211808290164,1,True
2023-09-21,1.0209802209043957,1.0237994926714338,0.2761338279933412,0,True
2023-09-22,1.0237994926714338,1.0237994926714338,0.0,0,False
2023-09-23,1.0237994926714338,1.0237994926714338,0.0,0,False
2023-09-24,1.0237994926714338,1.0237994926714338,0.0,0,False
2023-09-25,1.0237994926714338,1.0237994926714338,0.0,0,False
2023-09-26,1.0237994926714338,1.0245166747286838,0.07005102682544617,1,True
2023-09-27,1.0245166747286838,1.0209650897708062,-0.3466595562066521,1,True
2023-09-28,1.0209650897708062,1.0209650897708062,0.0,0,False
2023-09-29,1.0209650897708062,1.0209650897708062,0.0,0,False
2023-09-30,1.0209650897708062,1.0209650897708062,0.0,0,False
2023-10-01,1.0209650897708062,1.0209650897708062,0.0,0,False
2023-10-02,1.0209650897708062,1.0209650897708062,0.0,0,False
2023-10-03,1.0209650897708062,1.021251465398866,0.02804950246868554,1,True
2023-10-04,1.021251465398866,1.0184142936032787,-0.27781324107859495,0,True
2023-10-05,1.0184142936032787,1.0184142936032787,0.0,0,False
2023-10-06,1.0184142936032787,1.0184142936032787,0.0,0,False
2023-10-07,1.0184142936032787,1.0184142936032787,0.0,0,False
2023-10-08,1.0184142936032787,1.0184142936032787,0.0,0,False
2023-10-09,1.0184142936032787,1.015869419028274,-0.24988598363056003,1,True
2023-10-10,1.015869419028274,1.015869419028274,0.0,0,False
2023-10-11,1.015869419028274,1.015869419028274,0.0,0,False
2023-10-12,1.015869419028274,1.015869419028274,0.0,0,False
2023-10-13,1.015869419028274,1.015869419028274,0.0,0,False
2023-10-14,1.015869419028274,1.015869419028274,0.0,0,False
2023-10-15,1.015869419028274,1.0159039692032532,0.003401044891404581,1,True
2023-10-16,1.0159039692032532,1.016521880026571,0.06082374339007046,1,True
2023-10-17,1.016521880026571,1.0136274746675118,-0.28473615924367035,1,True
2023-10-18,1.0136274746675118,1.0136274746675118,0.0,0,False
2023-10-19,1.0136274746675118,1.008577070153762,-0.4982505545645832,2,True
2023-10-20,1.008577070153762,1.008577070153762,0.0,0,False
2023-10-21,1.008577070153762,1.0093025447174455,0.071930503394535,1,True
2023-10-22,1.0093025447174455,1.0093025447174455,0.0,0,False
2023-10-23,1.0093025447174455,1.0093025447174455,0.0,0,False
2023-10-24,1.0093025447174455,1.0067830474105088,-0.24962755916185797,1,True
2023-10-25,1.0067830474105088,1.0070371945999317,0.02524349114503277,1,True
2023-10-26,1.0070371945999317,1.0165848258819317,0.9480912257459284,5,True
2023-10-27,1.0165848258819317,1.0152550115258856,-0.13081194231798765,2,True
2023-10-28,1.0152550115258856,1.0184319818521952,0.3129233828193412,1,True
2023-10-29,1.0184319818521952,1.0184319818521952,0.0,0,False
2023-10-30,1.0184319818521952,1.0184319818521952,0.0,0,False
2023-10-31,1.0184319818521952,1.0184319818521952,0.0,0,False
2023-11-01,1.0184319818521952,1.0184319818521952,0.0,0,False
2023-11-02,1.0184319818521952,1.0184319818521952,0.0,0,False
2023-11-03,1.0184319818521952,1.015889963693427,-0.24960117161137996,1,True
2023-11-04,1.015889963693427,1.015889963693427,0.0,0,False
2023-11-05,1.015889963693427,1.020668878803989,0.47041660823061715,1,True
2023-11-06,1.020668878803989,1.0217819722286248,0.10905529185332163,1,True
2023-11-07,1.0217819722286248,1.0187969492898272,-0.2921389317808054,1,True
2023-11-08,1.0187969492898272,1.0187969492898272,0.0,0,False
2023-11-09,1.0187969492898272,1.017797327253676,-0.09811788667487553,4,True
2023-11-10,1.017797327253676,1.0238966615530294,0.5992680601560663,4,True
2023-11-11,1.0238966615530294,1.0238966615530294,0.0,0,False
2023-11-12,1.0238966615530294,1.0238966615530294,0.0,0,False
2023-11-13,1.0238966615530294,1.023433197434019,-0.04526473582865398,1,True
2023-11-14,1.023433197434019,1.0286211585360039,0.506917414345387,2,True
2023-11-15,1.0286211585360039,1.0333866664353903,0.46329086854182133,0,True
2023-11-16,1.0333866664353903,1.0333866664353903,0.0,0,False
2023-11-17,1.0333866664353903,1.0324664482117825,-0.08904878043202169,1,True
2023-11-18,1.0324664482117825,1.0286197952414535,-0.3725692953016835,2,True
2023-11-19,1.0286197952414535,1.0288680659323575,0.024136293317744695,0,True
2023-11-20,1.0288680659323575,1.0301762373692684,0.12714666537205765,1,True
2023-11-21,1.0301762373692684,1.0274854898718417,-0.26119292989109644,0,True
2023-11-22,1.0274854898718417,1.0249197395701852,-0.249711584927248,1,True
2023-11-23,1.0249197395701852,1.0249197395701852,0.0,0,False
2023-11-24,1.0249197395701852,1.0249197395701852,0.0,0,False
2023-11-25,1.0249197395701852,1.0295906102530468,0.4557303857588346,1,True
2023-11-26,1.0295906102530468,1.0295906102530468,0.0,0,False
2023-11-27,1.0295906102530468,1.0255746698594763,-0.39005215797213166,2,True
2023-11-28,1.0255746698594763,1.0230137913065651,-0.24970181383887624,1,True
2023-11-29,1.0230137913065651,1.0179018144247316,-0.49969774848339643,2,True
2023-11-30,1.0179018144247316,1.0168359938337037,-0.1047076030245897,1,True
2023-12-01,1.0168359938337037,1.0168359938337037,0.0,0,False
2023-12-02,1.0168359938337037,1.0216538071767838,0.47380436690835914,1,True
2023-12-03,1.0216538071767838,1.0222620419936754,0.05953433664309671,1,True
2023-12-04,1.0222620419936754,1.030876673397057,0.8427028540139103,5,True
2023-12-05,1.030876673397057,1.0334308943159525,0.24777172525192181,1,True
2023-12-06,1.0334308943159525,1.0302802535703248,-0.3048719331845695,0,True
2023-12-07,1.0302802535703248,1.0277089334588936,-0.24957482224090555,1,True
2023-12-08,1.0277089334588936,1.0277089334588936,0.0,0,False
2023-12-09,1.0277089334588936,1.0277089334588936,0.0,0,False
2023-12-10,1.0277089334588936,1.0277089334588936,0.0,0,False
2023-12-11,1.0277089334588936,1.036970593400775,0.9011948461623343,4,True
2023-12-12,1.036970593400775,1.036970593400775,0.0,0,False
2023-12-13,1.036970593400775,1.036521374831592,-0.0433202804439925,1,True
2023-12-14,1.036521374831592,1.036521374831592,0.0,0,False
2023-12-15,1.036521374831592,1.036521374831592,0.0,0,False
2023-12-16,1.036521374831592,1.0355293594698538,-0.09570621367064325,1,True
2023-12-17,1.0355293594698538,1.0329446142198992,-0.2496061773929692,1,True
2023-12-18,1.0329446142198992,1.035699499458577,0.2667021252401147,1,True
2023-12-19,1.035699499458577,1.0337779116056018,-0.18553526906016637,0,True
2023-12-20,1.0337779116056018,1.0337779116056018,0.0,0,False
2023-12-21,1.0337779116056018,1.0311972348927114,-0.24963550525879397,1,True
2023-12-22,1.0311972348927114,1.0311972348927114,0.0,0,False
2023-12-23,1.0311972348927114,1.0311972348927114,0.0,0,False
2023-12-24,1.0311972348927114,1.0301270961686873,-0.10377633762134186,1,True
2023-12-25,1.0301270961686873,1.0286253741561062,-0.1457802651892548,0,True
2023-12-26,1.0286253741561062,1.0286253741561062,0.0,0,False
2023-12-27,1.0286253741561062,1.0242918790620206,-0.42128992760274153,2,True
2023-12-28,1.0242918790620206,1.0254341683760222,0.11151990339390849,1,True
2023-12-29,1.0254341683760222,1.0219068924411416,-0.34397877929762677,1,True
2023-12-30,1.0219068924411416,1.0241882552873434,0.22324566583087346,2,True
2023-12-31,1.0241882552873434,1.0216310206175483,-0.2496840455446958,1,True
