day,start_equity,end_equity,return_pct,entries,active
2024-01-02,1.0111757462734035,1.017450248842126,0.6205155327198675,1,True
2024-01-03,1.017450248842126,1.0110569336146802,-0.628366373168765,11,True
2024-01-04,1.0110569336146802,1.040295455976371,2.8918769447689563,12,True
2024-01-05,1.040295455976371,1.0285749633773797,-1.1266503695328556,8,True
2024-01-06,1.0285749633773797,1.0267496534116083,-0.17746008125435475,8,True
2024-01-07,1.0267496534116083,1.0328887492858765,0.5979155535986491,9,True
2024-01-08,1.0328887492858765,1.0002161816285342,-3.16322233928209,13,True
2024-01-09,1.0002161816285342,1.000204171447335,-0.001200758537978075,6,True
2024-01-10,1.000204171447335,0.9745745663650733,-2.5624373316874616,8,True
2024-01-11,0.9745745663650733,0.9728891505488334,-0.1729386210565842,6,True
2024-01-12,0.9728891505488334,0.9777235255072578,0.4969091243023138,8,True
2024-01-13,0.9777235255072578,0.9953165374881081,1.7993851556065144,12,True
2024-01-14,0.9953165374881081,0.9929109778741977,-0.24168789759902998,1,True
2024-01-15,0.9929109778741977,1.000230054488772,0.7371332151291377,5,True
2024-01-16,1.000230054488772,0.9898014184789148,-1.0426237407140548,2,True
2024-01-17,0.9898014184789148,0.9898014184789148,0.0,0,False
2024-01-18,0.9898014184789148,0.9866518327422633,-0.31820380107068225,2,True
2024-01-19,0.9866518327422633,0.98298261319395,-0.37188595070211106,1,True
2024-01-20,0.98298261319395,1.013941434115658,3.149477977145021,12,True
2024-01-21,1.013941434115658,1.0029893255658506,-1.0801519872160714,3,True
2024-01-22,1.0029893255658506,0.9859063483328983,-1.7032062852029628,4,True
2024-01-23,0.9859063483328983,0.9611972187532981,-2.506234960489062,11,True
2024-01-24,0.9611972187532981,0.9581279160845407,-0.31932080210743674,1,True
2024-01-25,0.9581279160845407,0.951287426828574,-0.7139432158412506,4,True
2024-01-26,0.951287426828574,0.9541194019179408,0.2976992031533454,1,True
2024-01-27,0.9541194019179408,0.9541194019179408,0.0,0,False
2024-01-28,0.9541194019179408,0.951283206362158,-0.2972579270562492,2,True
2024-01-29,0.951283206362158,0.951283206362158,0.0,0,False
2024-01-30,0.951283206362158,0.951283206362158,0.0,0,False
2024-01-31,0.951283206362158,0.9469300787053273,-0.4576058557238416,1,True
2024-02-01,0.9469300787053273,0.9469300787053273,0.0,0,False
2024-02-02,0.9469300787053273,0.9471089306292695,0.01888755336474368,3,True
2024-02-03,0.9471089306292695,0.9538880408701171,0.715768801413752,1,True
2024-02-04,0.9538880408701171,0.9540830207640254,0.020440542868160883,1,True
2024-02-05,0.9540830207640254,0.9540830207640254,0.0,0,False
2024-02-06,0.9540830207640254,0.9456374696641717,-0.8852008594692817,2,True
2024-02-07,0.9456374696641717,0.9461982018751935,0.05929674204014912,5,True
2024-02-08,0.9461982018751935,0.9629533209901509,1.7707832335499774,1,True
2024-02-09,0.9629533209901509,0.9629533209901509,0.0,0,False
2024-02-10,0.9629533209901509,0.9552073073696372,-0.8044017764587852,3,True
2024-02-11,0.9552073073696372,0.9552073073696372,0.0,0,False
2024-02-12,0.9552073073696372,0.9585920542050909,0.3543468322886101,3,True
2024-02-13,0.9585920542050909,0.9585920542050909,0.0,0,False
2024-02-14,0.9585920542050909,0.9611732624483159,0.26927077393370524,2,True
2024-02-15,0.9611732624483159,0.9883100028058017,2.823293303890151,7,True
2024-02-16,0.9883100028058017,0.9632230241339901,-2.5383714219819664,6,True
2024-02-17,0.9632230241339901,0.9483726618634204,-1.541736638191482,6,True
2024-02-18,0.9483726618634204,0.9486781975004961,0.0322168330406436,4,True
2024-02-19,0.9486781975004961,0.9418120903333609,-0.7237551347997084,6,True
2024-02-20,0.9418120903333609,0.9367158049569984,-0.5411148814790323,13,True
2024-02-21,0.9367158049569984,0.9240419951830139,-1.3530047968568493,10,True
2024-02-22,0.9240419951830139,0.9474597414814614,2.5342729465244185,5,True
2024-02-23,0.9474597414814614,0.9322382040809699,-1.606562974031056,7,True
2024-02-24,0.9322382040809699,0.9180450577708247,-1.522480654409275,10,True
2024-02-25,0.9180450577708247,0.902545060334246,-1.688370010314677,9,True
2024-02-26,0.902545060334246,0.8997126470445338,-0.31382513895352737,11,True
2024-02-27,0.8997126470445338,0.892657574089269,-0.784147358430487,9,True
2024-02-28,0.892657574089269,0.9374406633949669,5.016827348537056,11,True
2024-02-29,0.9374406633949669,0.9070568327632821,-3.241147073954409,20,True
2024-03-01,0.9070568327632821,0.8887856645529896,-2.014335546608559,11,True
2024-03-02,0.8887856645529896,0.8650139513720593,-2.674628330429496,17,True
2024-03-03,0.8650139513720593,0.9045500859321566,4.570577676508725,17,True
2024-03-04,0.9045500859321566,0.9287074555574961,2.6706503046146857,4,True
2024-03-05,0.9287074555574961,0.9496861727136235,2.258915553071983,22,True
2024-03-06,0.9496861727136235,0.9254023733223555,-2.557034111792922,31,True
2024-03-07,0.9254023733223555,0.9177864741411025,-0.8229824561515442,11,True
2024-03-08,0.9177864741411025,0.9177870957853045,6.773298795170746e-05,9,True
2024-03-09,0.9177870957853045,0.9220981451477068,0.4697221591150713,13,True
2024-03-10,0.9220981451477068,0.9422924203375127,2.1900353336651746,13,True
2024-03-11,0.9422924203375127,0.9559608282275508,1.4505484279648817,13,True
2024-03-12,0.9559608282275508,0.9644339116769481,0.8863421177107478,11,True
2024-03-13,0.9644339116769481,0.9596321214013265,-0.4978869176502032,8,True
2024-03-14,0.9596321214013265,0.9735012135086781,1.4452509246042133,6,True
2024-03-15,0.9735012135086781,0.9481634758645203,-2.602743303507138,22,True
2024-03-16,0.9481634758645203,0.947860624854615,-0.031940801097529725,4,True
2024-03-17,0.947860624854615,0.9316528028552074,-1.7099372602268015,9,True
2024-03-18,0.9316528028552074,0.9325666350205277,0.09808720185457975,5,True
2024-03-19,0.9325666350205277,0.8834577842377855,-5.2659883957419495,21,True
2024-03-20,0.8834577842377855,0.8667631403167636,-1.8896934543879196,8,True
2024-03-21,0.8667631403167636,0.8608876991760714,-0.6778600597326934,6,True
2024-03-22,0.8608876991760714,0.8585826826749005,-0.26774880200716167,12,True
2024-03-23,0.8585826826749005,0.8662628406817582,0.8945158296147282,8,True
2024-03-24,0.8662628406817582,0.8560338853334177,-1.1808142826823964,7,True
2024-03-25,0.8560338853334177,0.8690280303681938,1.517947508551587,4,True
2024-03-26,0.8690280303681938,0.8970687948264651,3.226681243686791,10,True
2024-03-27,0.8970687948264651,0.8910657127624256,-0.6691885949728915,11,True
2024-03-28,0.8910657127624256,0.8632634645970622,-3.1201119925457266,7,True
2024-03-29,0.8632634645970622,0.8578744989533128,-0.6242550350795573,9,True
2024-03-30,0.8578744989533128,0.8508924361356089,-0.8138792826016705,4,True
2024-03-31,0.8508924361356089,0.8470450556963046,-0.45215826065836406,1,True
2024-04-01,0.8470450556963046,0.8470827533544837,0.004450490316365574,7,True
2024-04-02,0.8470827533544837,0.8438565794148011,-0.380856997372081,9,True
2024-04-03,0.8438565794148011,0.8638273853537618,2.366611391809026,5,True
2024-04-04,0.8638273853537618,0.862389648899479,-0.16643793408958052,3,True
2024-04-05,0.862389648899479,0.8450377163632286,-2.0120756966869657,5,True
2024-04-06,0.8450377163632286,0.8316828336862602,-1.5803889481339928,3,True
2024-04-07,0.8316828336862602,0.8440219038173261,1.4836268865110025,4,True
2024-04-08,0.8440219038173261,0.8356300116742824,-0.9942742131559656,2,True
2024-04-09,0.8356300116742824,0.8232283908354397,-1.4841042884511269,3,True
2024-04-10,0.8232283908354397,0.8049979822408542,-2.214501928934298,7,True
2024-04-11,0.8049979822408542,0.8010025638756058,-0.4963265068225975,1,True
2024-04-12,0.8010025638756058,0.7972706120324745,-0.4659100995974885,11,True
2024-04-13,0.7972706120324745,0.7947834609582217,-0.31195820298860477,18,True
2024-04-14,0.7947834609582217,0.7615921405599496,-4.176146337803177,26,True
2024-04-15,0.7615921405599496,0.7650619724326772,0.4556023740182491,6,True
2024-04-16,0.7650619724326772,0.7608766397892215,-0.5470579893217642,1,True
2024-04-17,0.7608766397892215,0.7557438878528523,-0.6745839822065114,2,True
2024-04-18,0.7557438878528523,0.7552315255666157,-0.06779575653497183,1,True
2024-04-19,0.7552315255666157,0.7832824522301376,3.7142155370800456,10,True
2024-04-20,0.7832824522301376,0.7832824522301376,0.0,0,False
2024-04-21,0.7832824522301376,0.7832824522301376,0.0,0,False
2024-04-22,0.7832824522301376,0.7832824522301376,0.0,0,False
2024-04-23,0.7832824522301376,0.77485590352665,-1.0757994998478182,4,True
2024-04-24,0.77485590352665,0.7674652627813168,-0.9538084064012131,6,True
2024-04-25,0.7674652627813168,0.768361332503588,0.1167570397940576,5,True
2024-04-26,0.768361332503588,0.7711763267353962,0.36636333879997984,2,True
2024-04-27,0.7711763267353962,0.7754511633059714,0.5543267372679628,6,True
2024-04-28,0.7754511633059714,0.7781016644670717,0.34180117156579204,3,True
2024-04-29,0.7781016644670717,0.7757451350894401,-0.30285623142133344,3,True
2024-04-30,0.7757451350894401,0.7680497445687556,-0.9919998428088439,2,True
2024-05-01,0.7680497445687556,0.763531091167933,-0.5883282212872487,6,True
2024-05-02,0.763531091167933,0.7581921171888496,-0.699247750463794,5,True
2024-05-03,0.7581921171888496,0.7529231421021673,-0.6949393125080361,3,True
2024-05-04,0.7529231421021673,0.7529231421021673,0.0,0,False
2024-05-05,0.7529231421021673,0.749175512337735,-0.49774400000095476,1,True
2024-05-06,0.749175512337735,0.7454399821661856,-0.49861882963754267,1,True
2024-05-07,0.7454399821661856,0.746985374925516,0.20731283487633867,4,True
2024-05-08,0.746985374925516,0.7466758485636876,-0.04143673654376512,3,True
2024-05-09,0.7466758485636876,0.732180127367397,-1.9413673582953983,12,True
2024-05-10,0.732180127367397,0.7273632623758204,-0.6578797773296619,5,True
2024-05-11,0.7273632623758204,0.7227698563256107,-0.6315147173100222,4,True
2024-05-12,0.7227698563256107,0.7179644655910211,-0.6648576573211162,1,True
2024-05-13,0.7179644655910211,0.7242781832296742,0.8793913823375243,5,True
2024-05-14,0.7242781832296742,0.7227781105475256,-0.2071127802662054,4,True
2024-05-15,0.7227781105475256,0.7181830412409483,-0.6357510333422245,3,True
2024-05-16,0.7181830412409483,0.7093603785605049,-1.2284699267193444,4,True
2024-05-17,0.7093603785605049,0.7083350594289536,-0.1445413590243083,1,True
2024-05-18,0.7083350594289536,0.7063182492090638,-0.28472545485969114,2,True
2024-05-19,0.7063182492090638,0.7063182492090638,0.0,0,False
2024-05-20,0.7063182492090638,0.7071063697706652,0.11158150911205755,2,True
2024-05-21,0.7071063697706652,0.7039264915179492,-0.44970295681926453,4,True
2024-05-22,0.7039264915179492,0.7070371183279204,0.4418965399729968,1,True
2024-05-23,0.7070371183279204,0.6982057876496709,-1.2490618171694834,8,True
2024-05-24,0.6982057876496709,0.7000985440708474,0.2710886180917971,6,True
2024-05-25,0.7000985440708474,0.6967472702285211,-0.4786860179482266,3,True
2024-05-26,0.6967472702285211,0.7023755261691711,0.8077901674166554,3,True
2024-05-27,0.7023755261691711,0.6998776178242333,-0.3556371558903315,5,True
2024-05-28,0.6998776178242333,0.696377879977248,-0.5000499741462328,2,True
2024-05-29,0.696377879977248,0.6916084449699815,-0.6848918014774275,4,True
2024-05-30,0.6916084449699815,0.6782262723060853,-1.9349348263780985,6,True
2024-05-31,0.6782262723060853,0.6678468942180427,-1.530370985593199,4,True
2024-06-01,0.6678468942180427,0.6606006062702555,-1.085022332292429,3,True
2024-06-02,0.6606006062702555,0.6548644743225758,-0.8683207210580468,5,True
2024-06-03,0.6548644743225758,0.6393964329651703,-2.3620217562429713,13,True
2024-06-04,0.6393964329651703,0.63656956240183,-0.4421154729047916,10,True
2024-06-05,0.63656956240183,0.6365824656188697,0.0020269924611016066,0,True
2024-06-06,0.6365824656188697,0.631738081106534,-0.76099873527401,3,True
2024-06-07,0.631738081106534,0.6301676679346326,-0.24858611802388575,0,True
2024-06-08,0.6301676679346326,0.649606279119908,3.084672885390205,10,True
2024-06-09,0.649606279119908,0.650416645391411,0.12474729656259953,3,True
2024-06-10,0.650416645391411,0.6474155123560915,-0.4614170096328696,0,True
2024-06-11,0.6474155123560915,0.6350786492410662,-1.9055556871241386,4,True
2024-06-12,0.6350786492410662,0.6275569063010616,-1.1843797534357603,4,True
2024-06-13,0.6275569063010616,0.6222141943405645,-0.8513509941254771,4,True
2024-06-14,0.6222141943405645,0.615788666284379,-1.0326874755718807,6,True
2024-06-15,0.615788666284379,0.6299272285120768,2.2960088422881775,5,True
2024-06-16,0.6299272285120768,0.6299272285120768,0.0,0,False
2024-06-17,0.6299272285120768,0.624278791606184,-0.8966808625235467,4,True
2024-06-18,0.624278791606184,0.6337905854801228,1.5236452049678384,6,True
2024-06-19,0.6337905854801228,0.6282155692207048,-0.8796306520070352,3,True
2024-06-20,0.6282155692207048,0.6295690319952031,0.2154455955584389,1,True
2024-06-21,0.6295690319952031,0.6270502857849233,-0.4000746673160749,1,True
2024-06-22,0.6270502857849233,0.6207347473094273,-1.007182138126339,3,True
2024-06-23,0.6207347473094273,0.6227056193308963,0.31750631489726455,2,True
2024-06-24,0.6227056193308963,0.6286817109959529,0.959697725464248,2,True
2024-06-25,0.6286817109959529,0.6375096572996576,1.4041996370022458,1,True
2024-06-26,0.6375096572996576,0.6387880640568927,0.20053135550137657,0,True
2024-06-27,0.6387880640568927,0.6359930566112687,-0.43754847701334976,2,True
2024-06-28,0.6359930566112687,0.6331832929274439,-0.44179156590103963,2,True
2024-06-29,0.6331832929274439,0.6185393478962928,-2.312749751094445,7,True
2024-06-30,0.6185393478962928,0.61699863423603,-0.2490890297445092,1,True
2024-07-01,0.61699863423603,0.6119811688646164,-0.813205263837613,2,True
2024-07-02,0.6119811688646164,0.6119811688646164,0.0,0,False
2024-07-03,0.6119811688646164,0.6089400612909296,-0.4969282926350238,1,True
2024-07-04,0.6089400612909296,0.6083473246819553,-0.09733907270245146,5,True
2024-07-05,0.6083473246819553,0.5713884707035146,-6.075288322795336,22,True
2024-07-06,0.5713884707035146,0.5717690893388968,0.06661293583918315,5,True
2024-07-07,0.5717690893388968,0.572730976776384,0.16823005220505394,3,True
2024-07-08,0.572730976776384,0.5761954004135142,0.6048954531200357,2,True
2024-07-09,0.5761954004135142,0.57814370609077,0.33813280631145304,2,True
2024-07-10,0.57814370609077,0.5807725973957019,0.4547124317425544,1,True
2024-07-11,0.5807725973957019,0.5728613174871314,-1.3621992401236183,3,True
2024-07-12,0.5728613174871314,0.5729038125732486,0.007418040775308832,0,True
2024-07-13,0.5729038125732486,0.5693331406275649,-0.623258541367655,2,True
2024-07-14,0.5693331406275649,0.5657132390934433,-0.635814301997506,3,True
2024-07-15,0.5657132390934433,0.5657132390934433,0.0,0,False
2024-07-16,0.5657132390934433,0.5669730058023349,0.2226864463894085,3,True
2024-07-17,0.5669730058023349,0.5656901908992477,-0.22625678647114622,2,True
2024-07-18,0.5656901908992477,0.5656901908992477,0.0,0,False
2024-07-19,0.5656901908992477,0.5622737965545044,-0.6039338138977501,2,True
2024-07-20,0.5622737965545044,0.5623679752179508,0.016749609180344294,3,True
2024-07-21,0.5623679752179508,0.5607440982419591,-0.2887570145441276,1,True
2024-07-22,0.5607440982419591,0.5622871924332175,0.2751868804497848,1,True
2024-07-23,0.5622871924332175,0.5626173883074033,0.05872370536432747,3,True
2024-07-24,0.5626173883074033,0.564611768521344,0.3544825054093481,1,True
2024-07-25,0.564611768521344,0.5621585138613916,-0.4345029269186451,3,True
2024-07-26,0.5621585138613916,0.5575425479408892,-0.8211146512388412,1,True
2024-07-27,0.5575425479408892,0.5638665852257608,1.134269897109652,3,True
2024-07-28,0.5638665852257608,0.5567082415530914,-1.2695101749651272,3,True
2024-07-29,0.5567082415530914,0.5567082415530914,0.0,0,False
2024-07-30,0.5567082415530914,0.5543256480997372,-0.4279788362225978,2,True
2024-07-31,0.5543256480997372,0.5416512920925403,-2.2864458916244224,8,True
2024-08-01,0.5416512920925403,0.5381760177857092,-0.641607314071968,1,True
2024-08-02,0.5381760177857092,0.5287278840119921,-1.7555843184151598,4,True
2024-08-03,0.5287278840119921,0.5264373066702321,-0.43322423708374025,9,True
2024-08-04,0.5264373066702321,0.5088520542852345,-3.3404267065011206,7,True
2024-08-05,0.5088520542852345,0.5066714349064072,-0.4285370100137076,27,True
2024-08-06,0.5066714349064072,0.507641377527644,0.19143424207761495,0,True
2024-08-07,0.507641377527644,0.5073935002679354,-0.048829207129619245,1,True
2024-08-08,0.5073935002679354,0.5051129123219212,-0.4494712574776516,0,True
2024-08-09,0.5051129123219212,0.5051129123219212,0.0,0,False
2024-08-10,0.5051129123219212,0.5051129123219212,0.0,0,False
2024-08-11,0.5051129123219212,0.5053461288699312,0.0461711713006796,1,True
2024-08-12,0.5053461288699312,0.511767360875273,1.2706601749777002,3,True
2024-08-13,0.511767360875273,0.5083126487509604,-0.6750551888272116,0,True
2024-08-14,0.5083126487509604,0.5083126487509604,0.0,0,False
2024-08-15,0.5083126487509604,0.5083126487509604,0.0,0,False
2024-08-16,0.5083126487509604,0.5083126487509604,0.0,0,False
2024-08-17,0.5083126487509604,0.5151978089157884,1.354512853800971,1,True
2024-08-18,0.5151978089157884,0.5309250652734369,3.0526636731522228,4,True
2024-08-19,0.5309250652734369,0.5249192710083753,-1.1311943356768106,8,True
2024-08-20,0.5249192710083753,0.5218380536923624,-0.5869887973619092,4,True
2024-08-21,0.5218380536923624,0.5192373685351087,-0.49837016270699586,1,True
2024-08-22,0.5192373685351087,0.5207001525977693,0.2817177944621774,2,True
2024-08-23,0.5207001525977693,0.5207001525977693,0.0,0,False
2024-08-24,0.5207001525977693,0.5202076083538117,-0.09459268285215705,3,True
2024-08-25,0.5202076083538117,0.5189960175360084,-0.2329052475101956,2,True
2024-08-26,0.5189960175360084,0.5141008910923762,-0.9431915232938293,2,True
2024-08-27,0.5141008910923762,0.5140309128159882,-0.01361177885518261,1,True
2024-08-28,0.5140309128159882,0.5159722603045253,0.37767135013375697,4,True
2024-08-29,0.5159722603045253,0.5131656418429342,-0.5439475486404222,3,True
2024-08-30,0.5131656418429342,0.5131656418429342,0.0,0,False
2024-08-31,0.5131656418429342,0.5131656418429342,0.0,0,False
2024-09-01,0.5131656418429342,0.5106126259739625,-0.497503273953237,1,True
2024-09-02,0.5106126259739625,0.5117467948715269,0.2221192426256513,1,True
2024-09-03,0.5117467948715269,0.5138056542315443,0.4023199325624116,1,True
2024-09-04,0.5138056542315443,0.5129111132747958,-0.17410103399629895,0,True
2024-09-05,0.5129111132747958,0.5092660931805159,-0.7106533666247694,3,True
2024-09-06,0.5092660931805159,0.508738832031532,-0.10353352717651365,1,True
2024-09-07,0.508738832031532,0.5089430752968379,0.04014697767227293,0,True
2024-09-08,0.5089430752968379,0.5089430752968379,0.0,0,False
2024-09-09,0.5089430752968379,0.5089430752968379,0.0,0,False
2024-09-10,0.5089430752968379,0.5089430752968379,0.0,0,False
2024-09-11,0.5089430752968379,0.5038875446270354,-0.9933391208543085,2,True
2024-09-12,0.5038875446270354,0.5038875446270354,0.0,0,False
2024-09-13,0.5038875446270354,0.5077461396315993,0.7657651088438522,2,True
2024-09-14,0.5077461396315993,0.5077461396315993,0.0,0,False
2024-09-15,0.5077461396315993,0.5104161116366883,0.525847819744385,3,True
2024-09-16,0.5104161116366883,0.5102458508451263,-0.03335725257889166,3,True
2024-09-17,0.5102458508451263,0.5077043931625552,-0.4980849287381073,1,True
2024-09-18,0.5077043931625552,0.5059916480950724,-0.33735084638798485,3,True
2024-09-19,0.5059916480950724,0.5070955580797375,0.21816762960833458,2,True
2024-09-20,0.5070955580797375,0.5099234568439641,0.5576658519619526,4,True
2024-09-21,0.5099234568439641,0.5026196612940876,-1.4323317454508544,7,True
2024-09-22,0.5026196612940876,0.5109093754851701,1.649301615010268,3,True
2024-09-23,0.5109093754851701,0.5129577797237636,0.4009329906401238,1,True
2024-09-24,0.5129577797237636,0.5129577797237636,0.0,0,False
2024-09-25,0.5129577797237636,0.5129577797237636,0.0,0,False
2024-09-26,0.5129577797237636,0.5129577797237636,0.0,0,False
2024-09-27,0.5129577797237636,0.5104944548483944,-0.48021981003888436,1,True
2024-09-28,0.5104944548483944,0.5104944548483944,0.0,0,False
2024-09-29,0.5104944548483944,0.5104944548483944,0.0,0,False
2024-09-30,0.5104944548483944,0.5067308603601325,-0.73724493038414,2,True
2024-10-01,0.5067308603601325,0.5083948343453534,0.32837431374088677,0,True
2024-10-02,0.5083948343453534,0.4914626763285876,-3.3305133870152104,14,True
2024-10-03,0.4914626763285876,0.4920666870423317,0.12290062762370102,3,True
2024-10-04,0.4920666870423317,0.49001647612844007,-0.4166530610342334,3,True
2024-10-05,0.49001647612844007,0.48873881338253494,-0.2607387318891319,0,True
2024-10-06,0.48873881338253494,0.48873881338253494,0.0,0,False
2024-10-07,0.48873881338253494,0.48873881338253494,0.0,0,False
2024-10-08,0.48873881338253494,0.4845816056796238,-0.8505990498563709,2,True
2024-10-09,0.4845816056796238,0.4845816056796238,0.0,0,False
2024-10-10,0.4845816056796238,0.4845816056796238,0.0,0,False
2024-10-11,0.4845816056796238,0.4834533820406991,-0.23282428092629148,1,True
2024-10-12,0.4834533820406991,0.48436202110921905,0.18794760824394352,1,True
2024-10-13,0.48436202110921905,0.48436202110921905,0.0,0,False
2024-10-14,0.48436202110921905,0.48436202110921905,0.0,0,False
2024-10-15,0.48436202110921905,0.4773633067860746,-1.444934577470991,4,True
2024-10-16,0.4773633067860746,0.47463501211172127,-0.5715342246814026,5,True
2024-10-17,0.47463501211172127,0.47463952031273277,0.0009498247909300872,2,True
2024-10-18,0.47463952031273277,0.48420327452548356,2.014951095191009,4,True
2024-10-19,0.48420327452548356,0.4777937942026643,-1.323716847867351,3,True
2024-10-20,0.4777937942026643,0.48202148299506314,0.8848354339666464,3,True
2024-10-21,0.48202148299506314,0.48244222080599747,0.08728611188033586,7,True
2024-10-22,0.48244222080599747,0.495394554003048,2.6847428849431143,4,True
2024-10-23,0.495394554003048,0.48922892990877376,-1.2445885899335707,5,True
2024-10-24,0.48922892990877376,0.4858576025764607,-0.6891103788448705,3,True
2024-10-25,0.4858576025764607,0.48215815480583785,-0.7614263419991829,3,True
2024-10-26,0.48215815480583785,0.47900779344100564,-0.6533875520783883,10,True
2024-10-27,0.47900779344100564,0.4748738135251287,-0.8630297820793387,2,True
2024-10-28,0.4748738135251287,0.47250719977060796,-0.4983668686535214,1,True
2024-10-29,0.47250719977060796,0.4793273569737949,1.4433975199738658,2,True
2024-10-30,0.4793273569737949,0.4793273569737949,0.0,0,False
2024-10-31,0.4793273569737949,0.4790106670094246,-0.06606966194663277,1,True
2024-11-01,0.4790106670094246,0.47532641566497386,-0.7691376410158823,3,True
2024-11-02,0.47532641566497386,0.4762329651778566,0.1907214669764512,1,True
2024-11-03,0.4762329651778566,0.4743480465706794,-0.3957975917255663,3,True
2024-11-04,0.4743480465706794,0.4783564647107896,0.845037345276145,4,True
2024-11-05,0.4783564647107896,0.475978618029021,-0.4970867662897005,1,True
2024-11-06,0.475978618029021,0.47745470330240686,0.31011587862879164,3,True
2024-11-07,0.47745470330240686,0.4779608409799614,0.10600747548483724,4,True
2024-11-08,0.4779608409799614,0.47575549440667975,-0.4614073757088555,2,True
2024-11-09,0.47575549440667975,0.4765340289902962,0.1636417430317616,2,True
2024-11-10,0.4765340289902962,0.47526526175357287,-0.26624903145147094,9,True
2024-11-11,0.47526526175357287,0.4736992244868983,-0.3295080437599074,14,True
2024-11-12,0.4736992244868983,0.4540749166504736,-4.142778122062863,10,True
2024-11-13,0.4540749166504736,0.4653030712921499,2.4727537747519346,8,True
2024-11-14,0.4653030712921499,0.4680869266509235,0.5982886274622734,8,True
2024-11-15,0.4680869266509235,0.4735886907672089,1.1753723086541878,9,True
2024-11-16,0.4735886907672089,0.4750560505603372,0.3098384361229556,8,True
2024-11-17,0.4750560505603372,0.47640460415513175,0.28387252266419694,14,True
2024-11-18,0.47640460415513175,0.4801079322227627,0.7773493445132784,7,True
2024-11-19,0.4801079322227627,0.46804996907744284,-2.5115109199498,10,True
2024-11-20,0.46804996907744284,0.4634363228583101,-0.9857165952230518,4,True
2024-11-21,0.4634363228583101,0.4714206914324632,1.7228620590005406,6,True
2024-11-22,0.4714206914324632,0.47275233735173333,0.2824750681230892,8,True
2024-11-23,0.47275233735173333,0.46945119129011387,-0.6982823353368972,2,True
2024-11-24,0.46945119129011387,0.463660448666005,-1.2335132451565811,26,True
2024-11-25,0.463660448666005,0.4725978566421836,1.927576096234307,8,True
2024-11-26,0.4725978566421836,0.4638577873168866,-1.849367110421396,12,True
2024-11-27,0.4638577873168866,0.46551879297286913,0.3580851074184599,7,True
2024-11-28,0.46551879297286913,0.46660895033949146,0.2341811722917697,5,True
2024-11-29,0.46660895033949146,0.4699119851169679,0.7078807157627987,6,True
2024-11-30,0.4699119851169679,0.47057778383670895,0.14168583497085052,4,True
2024-12-01,0.47057778383670895,0.46644675238881345,-0.8778636794568695,6,True
2024-12-02,0.46644675238881345,0.47800477207719866,2.4778861958397513,11,True
2024-12-03,0.47800477207719866,0.4830347201481013,1.0522798860447935,19,True
2024-12-04,0.4830347201481013,0.48871676671232783,1.1763225969521285,9,True
2024-12-05,0.48871676671232783,0.4936171159460004,1.0026971791121442,11,True
2024-12-06,0.4936171159460004,0.49082571557160276,-0.5654991053233638,10,True
2024-12-07,0.49082571557160276,0.4918886049291944,0.21655127754538483,5,True
2024-12-08,0.4918886049291944,0.49100378199707034,-0.1798827871305142,0,True
2024-12-09,0.49100378199707034,0.49036420576737777,-0.13025892124317595,3,True
2024-12-10,0.49036420576737777,0.4643838446619239,-5.298176498179929,28,True
2024-12-11,0.4643838446619239,0.4763402954870056,2.5746913813907923,11,True
2024-12-12,0.4763402954870056,0.4750012590229266,-0.28110921472851436,2,True
2024-12-13,0.4750012590229266,0.47505373673377144,0.011047909841921388,1,True
2024-12-14,0.47505373673377144,0.47505373673377144,0.0,0,False
2024-12-15,0.47505373673377144,0.4654641964698784,-2.0186222152099753,5,True
2024-12-16,0.4654641964698784,0.4641985452671832,-0.27191161259964014,0,True
2024-12-17,0.4641985452671832,0.4641985452671832,0.0,0,False
2024-12-18,0.4641985452671832,0.4575966018834391,-1.4222240571529876,4,True
2024-12-19,0.4575966018834391,0.4550981512581961,-0.5459941387150891,13,True
2024-12-20,0.4550981512581961,0.43581953128048684,-4.2361455269396835,25,True
2024-12-21,0.43581953128048684,0.44535473089063043,2.187877992096432,3,True
2024-12-22,0.44535473089063043,0.4474023617901819,0.459775266214546,2,True
2024-12-23,0.4474023617901819,0.4459386912135638,-0.32714860305197435,5,True
2024-12-24,0.4459386912135638,0.4459386912135638,0.0,0,False
2024-12-25,0.4459386912135638,0.44954502517312883,0.8087062259053868,4,True
2024-12-26,0.44954502517312883,0.44636889658844536,-0.7065206835422666,3,True
2024-12-27,0.44636889658844536,0.4472332735968716,0.1936463349110129,0,True
2024-12-28,0.4472332735968716,0.4412115285138672,-1.3464438892425323,4,True
2024-12-29,0.4412115285138672,0.44306349354047514,0.419745384452197,6,True
2024-12-30,0.44306349354047514,0.4388102509327872,-0.9599623236165811,6,True
2024-12-31,0.4388102509327872,0.43748745587594345,-0.3014503544600089,3,True
