day,start_equity,end_equity,return_pct,entries,active
2021-09-02,1.0,1.0,0.0,0,False
2021-09-03,1.0,1.0,0.0,0,False
2021-09-04,1.0,1.0,0.0,0,False
2021-09-05,1.0,1.0,0.0,0,False
2021-09-06,1.0,1.0,0.0,0,False
2021-09-07,1.0,1.0,0.0,0,False
2021-09-08,1.0,1.0,0.0,0,False
2021-09-09,1.0,1.0,0.0,0,False
2021-09-10,1.0,1.0,0.0,0,False
2021-09-11,1.0,1.0,0.0,0,False
2021-09-12,1.0,1.0,0.0,0,False
2021-09-13,1.0,1.0,0.0,0,False
2021-09-14,1.0,1.0,0.0,0,False
2021-09-15,1.0,1.0,0.0,0,False
2021-09-16,1.0,1.0,0.0,0,False
2021-09-17,1.0,1.0,0.0,0,False
2021-09-18,1.0,1.0,0.0,0,False
2021-09-19,1.0,1.0,0.0,0,False
2021-09-20,1.0,1.0,0.0,0,False
2021-09-21,1.0,1.0,0.0,0,False
2021-09-22,1.0,1.0,0.0,0,False
2021-09-23,1.0,1.0,0.0,0,False
2021-09-24,1.0,1.0,0.0,0,False
2021-09-25,1.0,1.0,0.0,0,False
2021-09-26,1.0,1.0,0.0,0,False
2021-09-27,1.0,1.0,0.0,0,False
2021-09-28,1.0,1.0,0.0,0,False
2021-09-29,1.0,1.0,0.0,0,False
2021-09-30,1.0,1.0,0.0,0,False
2021-10-01,1.0,1.0,0.0,0,False
2021-10-02,1.0,1.0,0.0,0,False
2021-10-03,1.0,1.0,0.0,0,False
2021-10-04,1.0,1.0,0.0,0,False
2021-10-05,1.0,0.9993927768733932,-0.06072231266067707,1,True
2021-10-06,0.9993927768733932,1.0048928803354615,0.5503445281319186,3,True
2021-10-07,1.0048928803354615,1.0012255311037588,-0.36494927006334166,2,True
2021-10-08,1.0012255311037588,1.0006521663797656,-0.05726629077876799,1,True
2021-10-09,1.0006521663797656,1.0014821889720547,0.0829481632255824,2,True
2021-10-10,1.0014821889720547,1.0082699846050402,0.677774972708467,1,True
2021-10-11,1.0082699846050402,1.0050178042217393,-0.3225505502452264,0,True
2021-10-12,1.0050178042217393,1.0050178042217393,0.0,0,False
2021-10-13,1.0050178042217393,1.0216124727921436,1.6511815512815664,4,True
2021-10-14,1.0216124727921436,1.0371074829609217,1.5167209271074178,0,True
2021-10-15,1.0371074829609217,1.041714487442997,0.44421668513301427,4,True
2021-10-16,1.041714487442997,1.0392415709840426,-0.2373890820146496,2,True
2021-10-17,1.0392415709840426,1.0396187913908408,0.03629766334702911,0,True
2021-10-18,1.0396187913908408,1.0381936667377685,-0.13708146340503102,1,True
2021-10-19,1.0381936667377685,1.040852372474801,0.25608957386407116,0,True
2021-10-20,1.040852372474801,1.040852372474801,0.0,0,False
2021-10-21,1.040852372474801,1.040852372474801,0.0,0,False
2021-10-22,1.040852372474801,1.040852372474801,0.0,0,False
2021-10-23,1.040852372474801,1.040852372474801,0.0,0,False
2021-10-24,1.040852372474801,1.040852372474801,0.0,0,False
2021-10-25,1.040852372474801,1.0533730651261877,1.2029268494259782,2,True
2021-10-26,1.0533730651261877,1.0592265650230674,0.5556910548285776,0,True
2021-10-27,1.0592265650230674,1.061590508416066,0.22317636953781417,7,True
2021-10-28,1.061590508416066,1.0617272626946326,0.012882017829141112,1,True
2021-10-29,1.0617272626946326,1.0561427739052376,-0.5259814818376007,0,True
2021-10-30,1.0561427739052376,1.0576324573131626,0.14104943429349426,1,True
2021-10-31,1.0576324573131626,1.0504172308656288,-0.6822054672814715,1,True
2021-11-01,1.0504172308656288,1.0613039672717908,1.0364202039212955,2,True
2021-11-02,1.0613039672717908,1.0627936919142116,0.140367386569773,1,True
2021-11-03,1.0627936919142116,1.0609536255514267,-0.17313485926612193,1,True
2021-11-04,1.0609536255514267,1.07945195611356,1.7435569394014694,1,True
2021-11-05,1.07945195611356,1.0664774366618528,-1.2019543230456065,3,True
2021-11-06,1.0664774366618528,1.0558237644912625,-0.9989589844429325,2,True
2021-11-07,1.0558237644912625,1.0563409898014917,0.048987845095394,0,True
2021-11-08,1.0563409898014917,1.0563409898014917,0.0,0,False
2021-11-09,1.0563409898014917,1.0563409898014917,0.0,0,False
2021-11-10,1.0563409898014917,1.0563409898014917,0.0,0,False
2021-11-11,1.0563409898014917,1.04020262326837,-1.5277610817842402,13,True
2021-11-12,1.04020262326837,1.0360383673072882,-0.4003312304671547,1,True
2021-11-13,1.0360383673072882,1.0344998947019322,-0.14849571733086542,1,True
2021-11-14,1.0344998947019322,1.0349300743517251,0.041583343990270194,0,True
2021-11-15,1.0349300743517251,1.0349300743517251,0.0,0,False
2021-11-16,1.0349300743517251,1.0528066567706924,1.7273227304912542,7,True
2021-11-17,1.0528066567706924,1.0469023930210686,-0.5608117797938461,0,True
2021-11-18,1.0469023930210686,1.0373157231380432,-0.9157176396703881,4,True
2021-11-19,1.0373157231380432,1.0521810378395127,1.4330559510367324,4,True
2021-11-20,1.0521810378395127,1.05286458033338,0.06496434256892947,0,True
2021-11-21,1.05286458033338,1.0488067010950681,-0.38541321591680777,1,True
2021-11-22,1.0488067010950681,1.033389315854884,-1.4699930143549644,4,True
2021-11-23,1.033389315854884,1.0304531889366246,-0.2841259216842529,0,True
2021-11-24,1.0304531889366246,1.0255603504065007,-0.47482394956466223,2,True
2021-11-25,1.0255603504065007,1.0343318297519681,0.8552865116119746,5,True
2021-11-26,1.0343318297519681,1.0077021474262893,-2.574578250392301,8,True
2021-11-27,1.0077021474262893,1.0173558877458146,0.9579954100704668,0,True
2021-11-28,1.0173558877458146,1.010954353340024,-0.6292325510569019,7,True
2021-11-29,1.010954353340024,1.002420098924032,-0.8441780173156554,1,True
2021-11-30,1.002420098924032,0.9919463291472685,-1.0448483413297072,3,True
2021-12-01,0.9919463291472685,0.985999209110325,-0.5995405055892467,1,True
2021-12-02,0.985999209110325,0.983157092151616,-0.2882473872644953,5,True
2021-12-03,0.983157092151616,0.9703513523537483,-1.302512070562667,2,True
2021-12-04,0.9703513523537483,0.8997027116566014,-7.280727802952692,18,True
2021-12-05,0.8997027116566014,0.8925891900481447,-0.7906524584502694,3,True
2021-12-06,0.8925891900481447,0.8813855535349828,-1.2551839791559272,12,True
2021-12-07,0.8813855535349828,0.9017398956328715,2.3093573540266643,0,True
2021-12-08,0.9017398956328715,0.9070270709855791,0.586330423918624,2,True
2021-12-09,0.9070270709855791,0.9056373352178928,-0.153218775066577,2,True
2021-12-10,0.9056373352178928,0.8885471626550392,-1.8870878991248508,3,True
2021-12-11,0.8885471626550392,0.8796916453291936,-0.9966288451571548,2,True
2021-12-12,0.8796916453291936,0.8796916453291936,0.0,0,False
2021-12-13,0.8796916453291936,0.8709126729184103,-0.9979601895045875,2,True
2021-12-14,0.8709126729184103,0.8703446466448546,-0.06522195522224994,1,True
2021-12-15,0.8703446466448546,0.8671985835264793,-0.3614732543600119,1,True
2021-12-16,0.8671985835264793,0.8680135354238937,0.09397523391936335,0,True
2021-12-17,0.8680135354238937,0.8637622728892189,-0.4897691523437664,4,True
2021-12-18,0.8637622728892189,0.8644653241139981,0.08139406487708278,1,True
2021-12-19,0.8644653241139981,0.8598842603322444,-0.5299303111375719,1,True
2021-12-20,0.8598842603322444,0.8598842603322444,0.0,0,False
2021-12-21,0.8598842603322444,0.8568637014307902,-0.3512750541901033,1,True
2021-12-22,0.8568637014307902,0.8573693951673962,0.05901682330125002,0,True
2021-12-23,0.8573693951673962,0.8573693951673962,0.0,0,False
2021-12-24,0.8573693951673962,0.8573693951673962,0.0,0,False
2021-12-25,0.8573693951673962,0.8645071461729238,0.832517587606918,2,True
2021-12-26,0.8645071461729238,0.8606266253522327,-0.44887087838079154,0,True
2021-12-27,0.8606266253522327,0.8606266253522327,0.0,0,False
2021-12-28,0.8606266253522327,0.8624141566813766,0.20770114199200052,1,True
2021-12-29,0.8624141566813766,0.8622015892231298,-0.024647955579104597,0,True
2021-12-30,0.8622015892231298,0.8622015892231298,0.0,0,False
2021-12-31,0.8622015892231298,0.8622015892231298,0.0,0,False
2022-01-01,0.8622015892231298,0.8622015892231298,0.0,0,False
2022-01-02,0.8622015892231298,0.8622015892231298,0.0,0,False
2022-01-03,0.8622015892231298,0.8622015892231298,0.0,0,False
2022-01-04,0.8622015892231298,0.8622015892231298,0.0,0,False
2022-01-05,0.8622015892231298,0.8636418555665433,0.1670451970183784,1,True
2022-01-06,0.8636418555665433,0.8399070701977345,-2.7482208297140653,8,True
2022-01-07,0.8399070701977345,0.8436397987020495,0.44442160767099725,5,True
2022-01-08,0.8436397987020495,0.8344492052266603,-1.0893978081082722,0,True
2022-01-09,0.8344492052266603,0.8350122189455988,0.06747129908111216,1,True
2022-01-10,0.8350122189455988,0.8366174988616331,0.19224627851091025,0,True
2022-01-11,0.8366174988616331,0.8366174988616331,0.0,0,False
2022-01-12,0.8366174988616331,0.8366174988616331,0.0,0,False
2022-01-13,0.8366174988616331,0.8366174988616331,0.0,0,False
2022-01-14,0.8366174988616331,0.8366174988616331,0.0,0,False
2022-01-15,0.8366174988616331,0.8370001393072543,0.04573660557445347,1,True
2022-01-16,0.8370001393072543,0.8358908393476677,-0.13253282854942539,0,True
2022-01-17,0.8358908393476677,0.838137073124135,0.2687233393082966,1,True
2022-01-18,0.838137073124135,0.8432800572293296,0.6136208825633149,0,True
2022-01-19,0.8432800572293296,0.8390677821413691,-0.49951081516149687,1,True
2022-01-20,0.8390677821413691,0.8390677821413691,0.0,0,False
2022-01-21,0.8390677821413691,0.8060556524425084,-3.9343817509726153,8,True
2022-01-22,0.8060556524425084,0.7750104325157342,-3.8514983218219556,17,True
2022-01-23,0.7750104325157342,0.7840735432461875,1.1694179007415206,0,True
2022-01-24,0.7840735432461875,0.7730732645846401,-1.402965162681613,5,True
2022-01-25,0.7730732645846401,0.7834306138085813,1.3397629562970303,0,True
2022-01-26,0.7834306138085813,0.7841741421929811,0.09490673089544988,1,True
2022-01-27,0.7841741421929811,0.7812787558998254,-0.36922746331045087,7,True
2022-01-28,0.7812787558998254,0.768293232025793,-1.6620858785641124,0,True
2022-01-29,0.768293232025793,0.768293232025793,0.0,0,False
2022-01-30,0.768293232025793,0.7750499140593335,0.8794405250355908,1,True
2022-01-31,0.7750499140593335,0.7750499140593335,0.0,0,False
2022-02-01,0.7750499140593335,0.7750499140593335,0.0,0,False
2022-02-02,0.7750499140593335,0.7744897056019794,-0.07228030700888732,1,True
2022-02-03,0.7744897056019794,0.7735076686005469,-0.12679794119009324,4,True
2022-02-04,0.7735076686005469,0.7860025687259685,1.6153556884610953,0,True
2022-02-05,0.7860025687259685,0.7860025687259685,0.0,0,False
2022-02-06,0.7860025687259685,0.7860025687259685,0.0,0,False
2022-02-07,0.7860025687259685,0.7860025687259685,0.0,0,False
2022-02-08,0.7860025687259685,0.7815921888756738,-0.5611151955194571,3,True
2022-02-09,0.7815921888756738,0.7916942628040973,1.2924993458488077,2,True
2022-02-10,0.7916942628040973,0.7976547431401759,0.7528765353139288,5,True
2022-02-11,0.7976547431401759,0.7878224113816868,-1.2326550858058671,0,True
2022-02-12,0.7878224113816868,0.7684225676840603,-2.4624640550150234,5,True
2022-02-13,0.7684225676840603,0.7684225676840603,0.0,0,False
2022-02-14,0.7684225676840603,0.7684225676840603,0.0,0,False
2022-02-15,0.7684225676840603,0.7684225676840603,0.0,0,False
2022-02-16,0.7684225676840603,0.7684225676840603,0.0,0,False
2022-02-17,0.7684225676840603,0.7684225676840603,0.0,0,False
2022-02-18,0.7684225676840603,0.7684225676840603,0.0,0,False
2022-02-19,0.7684225676840603,0.7684225676840603,0.0,0,False
2022-02-20,0.7684225676840603,0.7684225676840603,0.0,0,False
2022-02-21,0.7684225676840603,0.7684225676840603,0.0,0,False
2022-02-22,0.7684225676840603,0.7607743776965041,-0.9953104332433793,2,True
2022-02-23,0.7607743776965041,0.7607743776965041,0.0,0,False
2022-02-24,0.7607743776965041,0.7442642315114217,-2.1701764240631083,9,True
2022-02-25,0.7442642315114217,0.7559822148604232,1.574438600281125,0,True
2022-02-26,0.7559822148604232,0.7559822148604232,0.0,0,False
2022-02-27,0.7559822148604232,0.7559822148604232,0.0,0,False
2022-02-28,0.7559822148604232,0.7603296200430696,0.575067124224482,2,True
2022-03-01,0.7603296200430696,0.767834131139446,0.9870075949364399,0,True
2022-03-02,0.767834131139446,0.767834131139446,0.0,0,False
2022-03-03,0.767834131139446,0.767834131139446,0.0,0,False
2022-03-04,0.767834131139446,0.77598136138319,1.061066435227831,3,True
2022-03-05,0.77598136138319,0.7696284936663519,-0.8186881841483973,2,True
2022-03-06,0.7696284936663519,0.7646607865092452,-0.6454681964075393,4,True
2022-03-07,0.7646607865092452,0.7650573552413553,0.05186204642722014,0,True
2022-03-08,0.7650573552413553,0.7612455113659985,-0.4982428897967073,1,True
2022-03-09,0.7612455113659985,0.7745461910255796,1.7472260211707669,2,True
2022-03-10,0.7745461910255796,0.772483525448644,-0.26630633535289494,3,True
2022-03-11,0.772483525448644,0.7664668078205491,-0.7788797339853271,1,True
2022-03-12,0.7664668078205491,0.765932598963552,-0.06969758527654024,0,True
2022-03-13,0.765932598963552,0.765932598963552,0.0,0,False
2022-03-14,0.765932598963552,0.762112722940133,-0.49872221506017667,1,True
2022-03-15,0.762112722940133,0.762924399131661,0.1065034301483303,1,True
2022-03-16,0.762924399131661,0.7693549024719526,0.8428755650770503,1,True
2022-03-17,0.7693549024719526,0.7706429117561949,0.16741419078554198,1,True
2022-03-18,0.7706429117561949,0.7696915180593824,-0.12345454454961713,0,True
2022-03-19,0.7696915180593824,0.7696915180593824,0.0,0,False
2022-03-20,0.7696915180593824,0.7658496407882789,-0.4991450705849054,1,True
2022-03-21,0.7658496407882789,0.7703593995621353,0.5888569418423417,4,True
2022-03-22,0.7703593995621353,0.7660722261570757,-0.5565160115520551,0,True
2022-03-23,0.7660722261570757,0.765354923514237,-0.09363381393384662,2,True
2022-03-24,0.765354923514237,0.7613667761511888,-0.5210846942404257,0,True
2022-03-25,0.7613667761511888,0.7613667761511888,0.0,0,False
2022-03-26,0.7613667761511888,0.762575506848878,0.15875800409883567,1,True
2022-03-27,0.762575506848878,0.7611569840360498,-0.18601735829278931,1,True
2022-03-28,0.7611569840360498,0.7608428062510684,-0.04127634529680346,1,True
2022-03-29,0.7608428062510684,0.7653022549258764,0.5861195818859466,1,True
2022-03-30,0.7653022549258764,0.7755231663149954,1.3355391707435826,6,True
2022-03-31,0.7755231663149954,0.7790232367398037,0.4513173270425108,6,True
2022-04-01,0.7790232367398037,0.7721016271343589,-0.8884984784807592,7,True
2022-04-02,0.7721016271343589,0.776235706874196,0.5354320719644923,1,True
2022-04-03,0.776235706874196,0.7708725805200588,-0.6909146676250977,2,True
2022-04-04,0.7708725805200588,0.770115235483367,-0.09824516474316036,0,True
2022-04-05,0.770115235483367,0.76148857294075,-1.120178142846695,6,True
2022-04-06,0.76148857294075,0.7308034748661235,-4.029620294382807,12,True
2022-04-07,0.7308034748661235,0.7335582015163462,0.3769449304722228,2,True
2022-04-08,0.7335582015163462,0.7341576812298874,0.08172217450530539,0,True
2022-04-09,0.7341576812298874,0.7341576812298874,0.0,0,False
2022-04-10,0.7341576812298874,0.7341576812298874,0.0,0,False
2022-04-11,0.7341576812298874,0.7266135157092718,-1.0275947134377739,6,True
2022-04-12,0.7266135157092718,0.7159258607418804,-1.4708857922851704,0,True
2022-04-13,0.7159258607418804,0.7168409595982881,0.12782033819247474,1,True
2022-04-14,0.7168409595982881,0.7168616604610731,0.002887790172678706,0,True
2022-04-15,0.7168616604610731,0.7179502451893864,0.15185422632493228,1,True
2022-04-16,0.7179502451893864,0.7176667132479736,-0.0394918649742948,0,True
2022-04-17,0.7176667132479736,0.7215632064662857,0.5429391034004638,1,True
2022-04-18,0.7215632064662857,0.7339496309780791,1.7166097717833395,6,True
2022-04-19,0.7339496309780791,0.7505853431250925,2.2666013367762305,1,True
2022-04-20,0.7505853431250925,0.7505853431250925,0.0,0,False
2022-04-21,0.7505853431250925,0.7492085724327282,-0.18342626924102712,3,True
2022-04-22,0.7492085724327282,0.7448693373664743,-0.5791758431385907,1,True
2022-04-23,0.7448693373664743,0.744906768255263,0.005025161717764348,2,True
2022-04-24,0.744906768255263,0.7453705613904363,0.062261903762750315,0,True
2022-04-25,0.7453705613904363,0.7405645359484874,-0.6447833723113083,3,True
2022-04-26,0.7405645359484874,0.7438428766724341,0.44268130119786697,2,True
2022-04-27,0.7438428766724341,0.7409250201913193,-0.3922678528787915,0,True
2022-04-28,0.7409250201913193,0.7425637489518896,0.2211733597749399,1,True
2022-04-29,0.7425637489518896,0.7316958285773485,-1.4635673219815626,2,True
2022-04-30,0.7316958285773485,0.7234377538093566,-1.1286212720452715,2,True
2022-05-01,0.7234377538093566,0.732950022255897,1.3148703390792438,7,True
2022-05-02,0.732950022255897,0.7401242574008612,0.9788164168251345,1,True
2022-05-03,0.7401242574008612,0.7469453604629662,0.9216159305545757,3,True
2022-05-04,0.7469453604629662,0.7415585830190797,-0.7211742289352618,1,True
2022-05-05,0.7415585830190797,0.7415585830190797,0.0,0,False
2022-05-06,0.7415585830190797,0.7237134115788023,-2.4064412237837063,8,True
2022-05-07,0.7237134115788023,0.7244874941587096,0.1069598224272994,2,True
2022-05-08,0.7244874941587096,0.7161242342230508,-1.1543691234270903,3,True
2022-05-09,0.7161242342230508,0.7053093910858348,-1.510190916657006,5,True
2022-05-10,0.7053093910858348,0.7001685120568538,-0.7288828270195724,14,True
2022-05-11,0.7001685120568538,0.6762971541220686,-3.409373247114389,22,True
2022-05-12,0.6762971541220686,0.6440476621828636,-4.768538761791707,1,True
2022-05-13,0.6440476621828636,0.6704854252095412,4.104938901116806,6,True
2022-05-14,0.6704854252095412,0.6475495016477619,-3.4207937561970603,8,True
2022-05-15,0.6475495016477619,0.6501822236405372,0.4065669089507562,2,True
2022-05-16,0.6501822236405372,0.6569469594424768,1.040436904605313,8,True
2022-05-17,0.6569469594424768,0.6674365299140513,1.5967149738354225,4,True
2022-05-18,0.6674365299140513,0.6485602690816017,-2.8281731650019792,2,True
2022-05-19,0.6485602690816017,0.6527112857562629,0.640035610035028,6,True
2022-05-20,0.6527112857562629,0.655676295513656,0.4542605317384263,1,True
2022-05-21,0.655676295513656,0.6563026542632076,0.09552865550230827,0,True
2022-05-22,0.6563026542632076,0.6563026542632076,0.0,0,False
2022-05-23,0.6563026542632076,0.6585487403403917,0.3422332764607905,4,True
2022-05-24,0.6585487403403917,0.6327597899164332,-3.9160275989031046,8,True
2022-05-25,0.6327597899164332,0.6278943810532904,-0.7689187809777454,1,True
2022-05-26,0.6278943810532904,0.6208601200419359,-1.1202936709760913,13,True
2022-05-27,0.6208601200419359,0.6083719904314037,-2.0114240240923786,4,True
2022-05-28,0.6083719904314037,0.6092465069726695,0.14374700923454053,0,True
2022-05-29,0.6092465069726695,0.6105352745195163,0.21153466324339565,3,True
2022-05-30,0.6105352745195163,0.6111776558348415,0.10521608531641746,0,True
2022-05-31,0.6111776558348415,0.6039245539934943,-1.1867419844463711,5,True
2022-06-01,0.6039245539934943,0.5988295002439836,-0.843657327031877,2,True
2022-06-02,0.5988295002439836,0.5933216365369488,-0.9197716052383398,6,True
2022-06-03,0.5933216365369488,0.5946948957520984,0.2314527451189763,0,True
2022-06-04,0.5946948957520984,0.5946948957520984,0.0,0,False
2022-06-05,0.5946948957520984,0.5946948957520984,0.0,0,False
2022-06-06,0.5946948957520984,0.5962230686804035,0.2569675541560512,1,True
2022-06-07,0.5962230686804035,0.591157314485205,-0.8496407571767284,4,True
2022-06-08,0.591157314485205,0.6050263015883721,2.346073839117513,4,True
2022-06-09,0.6050263015883721,0.6050494846531895,0.0038317449599478692,3,True
2022-06-10,0.6050494846531895,0.6037073378696042,-0.22182429993385933,4,True
2022-06-11,0.6037073378696042,0.5986459421858927,-0.838385649174378,7,True
2022-06-12,0.5986459421858927,0.5926521394253222,-1.0012266580618157,13,True
2022-06-13,0.5926521394253222,0.5568024535568229,-6.049026652170997,7,True
2022-06-14,0.5568024535568229,0.5630257996618183,1.1176937287616262,6,True
2022-06-15,0.5630257996618183,0.5563259416516401,-1.1899735348189222,7,True
2022-06-16,0.5563259416516401,0.5693845644292056,2.347297114852598,6,True
2022-06-17,0.5693845644292056,0.574464220261782,0.8921309339793293,1,True
2022-06-18,0.574464220261782,0.569121265551809,-0.9300761512245681,5,True
2022-06-19,0.569121265551809,0.5809947934584536,2.0862913802970118,3,True
2022-06-20,0.5809947934584536,0.5841687479353411,0.5462965438974177,1,True
2022-06-21,0.5841687479353411,0.5829052758254846,-0.2162854679101045,0,True
2022-06-22,0.5829052758254846,0.5812538659795082,-0.2833067248598331,5,True
2022-06-23,0.5812538659795082,0.5899723309477891,1.499940985956072,1,True
2022-06-24,0.5899723309477891,0.5857005611202444,-0.7240627404817679,2,True
2022-06-25,0.5857005611202444,0.5853474017186042,-0.06029692048863389,4,True
2022-06-26,0.5853474017186042,0.5894745874692797,0.7050831247491507,0,True
2022-06-27,0.5894745874692797,0.5864043504433488,-0.520842983089731,5,True
2022-06-28,0.5864043504433488,0.5814130757608261,-0.8511660390563391,3,True
2022-06-29,0.5814130757608261,0.5779556906755395,-0.5946521035431362,4,True
2022-06-30,0.5779556906755395,0.5734514360626746,-0.7793425491840367,2,True
2022-07-01,0.5734514360626746,0.573561110399887,0.01912530518111133,1,True
2022-07-02,0.573561110399887,0.573058465628751,-0.0876357831836927,1,True
2022-07-03,0.573058465628751,0.5739103160635556,0.1486498299732908,1,True
2022-07-04,0.5739103160635556,0.5766093184100972,0.4702829468294034,0,True
2022-07-05,0.5766093184100972,0.5768336257055641,0.0389010874963569,1,True
2022-07-06,0.5768336257055641,0.5777351196576747,0.15628318321558865,0,True
2022-07-07,0.5777351196576747,0.5777351196576747,0.0,0,False
2022-07-08,0.5777351196576747,0.5777351196576747,0.0,0,False
2022-07-09,0.5777351196576747,0.5777351196576747,0.0,0,False
2022-07-10,0.5777351196576747,0.5777351196576747,0.0,0,False
2022-07-11,0.5777351196576747,0.5748537433139903,-0.49873657419193806,1,True
2022-07-12,0.5748537433139903,0.5769720441968584,0.36849388344524225,2,True
2022-07-13,0.5769720441968584,0.5796076392247911,0.45679770006905596,5,True
2022-07-14,0.5796076392247911,0.5885580813815114,1.544224325388699,0,True
2022-07-15,0.5885580813815114,0.5885580813815114,0.0,0,False
2022-07-16,0.5885580813815114,0.5885580813815114,0.0,0,False
2022-07-17,0.5885580813815114,0.5885580813815114,0.0,0,False
2022-07-18,0.5885580813815114,0.5894265313727354,0.14755552913068293,1,True
2022-07-19,0.5894265313727354,0.5916256829796399,0.3731002067014044,0,True
2022-07-20,0.5916256829796399,0.5923920242506193,0.12953144074474565,2,True
2022-07-21,0.5923920242506193,0.582959090322126,-1.5923465445751184,6,True
2022-07-22,0.582959090322126,0.5880844004824737,0.8791886507019786,0,True
2022-07-23,0.5880844004824737,0.5920384918487156,0.6723680075509497,2,True
2022-07-24,0.5920384918487156,0.5961136542685607,0.6883272753296588,3,True
2022-07-25,0.5961136542685607,0.5968078865570646,0.11645971930567267,1,True
2022-07-26,0.5968078865570646,0.5941777699894503,-0.44069735451843783,1,True
2022-07-27,0.5941777699894503,0.5948184524232005,0.10782672562146267,1,True
2022-07-28,0.5948184524232005,0.5950435181566194,0.037837718803435116,0,True
2022-07-29,0.5950435181566194,0.5972265487134197,0.36686905918463797,2,True
2022-07-30,0.5972265487134197,0.6006762342210695,0.5776175749522938,1,True
2022-07-31,0.6006762342210695,0.6002091374559598,-0.07776181884662225,1,True
2022-08-01,0.6002091374559598,0.5988270374623842,-0.23026973555148045,1,True
2022-08-02,0.5988270374623842,0.5925343393078355,-1.0508373471603605,5,True
2022-08-03,0.5925343393078355,0.593581149903725,0.17666665481570476,1,True
2022-08-04,0.593581149903725,0.5916306354667561,-0.32860114194752654,0,True
2022-08-05,0.5916306354667561,0.598494312573857,1.1601287519004133,2,True
2022-08-06,0.598494312573857,0.598379479214366,-0.019187042730139936,0,True
2022-08-07,0.598379479214366,0.5989969082947914,0.10318353183436102,2,True
2022-08-08,0.5989969082947914,0.5995142583756855,0.08636940754285227,0,True
2022-08-09,0.5995142583756855,0.5992391574741747,-0.045887299203895004,5,True
2022-08-10,0.5992391574741747,0.6143769799402293,2.52617377840616,2,True
2022-08-11,0.6143769799402293,0.6166953377648848,0.37735102393989806,1,True
2022-08-12,0.6166953377648848,0.6134351836144151,-0.5286490671853716,3,True
2022-08-13,0.6134351836144151,0.6125073629606622,-0.1512499899803732,0,True
2022-08-14,0.6125073629606622,0.6125073629606622,0.0,0,False
2022-08-15,0.6125073629606622,0.6125073629606622,0.0,0,False
2022-08-16,0.6125073629606622,0.6088453861245778,-0.597866582106632,2,True
2022-08-17,0.6088453861245778,0.606250001680169,-0.42627972611060105,1,True
2022-08-18,0.606250001680169,0.6033686815525557,-0.4752692980829476,1,True
2022-08-19,0.6033686815525557,0.5847240059109644,-3.0900966874210067,12,True
2022-08-20,0.5847240059109644,0.5868043870978115,0.3557885713287856,1,True
2022-08-21,0.5868043870978115,0.5906858472423296,0.6614572470589275,0,True
2022-08-22,0.5906858472423296,0.5906858472423296,0.0,0,False
2022-08-23,0.5906858472423296,0.5906858472423296,0.0,0,False
2022-08-24,0.5906858472423296,0.5906858472423296,0.0,0,False
2022-08-25,0.5906858472423296,0.5892442105054189,-0.24406149963490664,1,True
2022-08-26,0.5892442105054189,0.588240438466638,-0.17034907104473973,1,True
2022-08-27,0.588240438466638,0.5869103650034441,-0.22611051131762316,6,True
2022-08-28,0.5869103650034441,0.5863450865802171,-0.09631426823134559,0,True
2022-08-29,0.5863450865802171,0.5897196256013006,0.575520985562461,2,True
2022-08-30,0.5897196256013006,0.5900650133142301,0.058568122534041756,1,True
2022-08-31,0.5900650133142301,0.58825898063585,-0.30607350675413425,2,True
2022-09-01,0.58825898063585,0.5830101149256922,-0.8922712415685208,1,True
2022-09-02,0.5830101149256922,0.5830853628666508,0.012906798532674735,0,True
2022-09-03,0.5830853628666508,0.5830853628666508,0.0,0,False
2022-09-04,0.5830853628666508,0.5830853628666508,0.0,0,False
2022-09-05,0.5830853628666508,0.5830853628666508,0.0,0,False
2022-09-06,0.5830853628666508,0.5814512282388874,-0.28025649961944676,1,True
2022-09-07,0.5814512282388874,0.5741143247633047,-1.2618261204477732,5,True
2022-09-08,0.5741143247633047,0.5739198122158721,-0.03388045534533646,0,True
2022-09-09,0.5739198122158721,0.5739198122158721,0.0,0,False
2022-09-10,0.5739198122158721,0.5749461350565921,0.17882687073607073,1,True
2022-09-11,0.5749461350565921,0.5790910285553149,0.7209185775837623,0,True
2022-09-12,0.5790910285553149,0.5790910285553149,0.0,0,False
2022-09-13,0.5790910285553149,0.5740502611729434,-0.8704620057656376,4,True
2022-09-14,0.5740502611729434,0.5816532423584908,1.324445209729963,2,True
2022-09-15,0.5816532423584908,0.579674532997518,-0.34018711095797904,3,True
2022-09-16,0.579674532997518,0.5681788539917879,-1.983126453095252,2,True
2022-09-17,0.5681788539917879,0.5675353817803507,-0.11325170004418128,1,True
2022-09-18,0.5675353817803507,0.5685528643928808,0.17928091273151647,0,True
2022-09-19,0.5685528643928808,0.5739249345540584,0.94486731096044,8,True
2022-09-20,0.5739249345540584,0.5749649131470653,0.18120463677275822,0,True
2022-09-21,0.5749649131470653,0.5749649131470653,0.0,0,False
2022-09-22,0.5749649131470653,0.5744921149835647,-0.08223078533832195,2,True
2022-09-23,0.5744921149835647,0.5738515707328509,-0.11149748343057819,2,True
2022-09-24,0.5738515707328509,0.575547010418257,0.2954491669755033,0,True
2022-09-25,0.575547010418257,0.575547010418257,0.0,0,False
2022-09-26,0.575547010418257,0.575547010418257,0.0,0,False
2022-09-27,0.575547010418257,0.575547010418257,0.0,0,False
2022-09-28,0.575547010418257,0.575547010418257,0.0,0,False
2022-09-29,0.575547010418257,0.575547010418257,0.0,0,False
2022-09-30,0.575547010418257,0.5741458823544769,-0.24344285321920012,1,True
2022-10-01,0.5741458823544769,0.5739302158832863,-0.037563009301089245,0,True
2022-10-02,0.5739302158832863,0.5739302158832863,0.0,0,False
2022-10-03,0.5739302158832863,0.5739302158832863,0.0,0,False
2022-10-04,0.5739302158832863,0.5739302158832863,0.0,0,False
2022-10-05,0.5739302158832863,0.5739302158832863,0.0,0,False
2022-10-06,0.5739302158832863,0.5739302158832863,0.0,0,False
2022-10-07,0.5739302158832863,0.5739302158832863,0.0,0,False
2022-10-08,0.5739302158832863,0.5723380975517671,-0.2774062573215219,1,True
2022-10-09,0.5723380975517671,0.571430860097166,-0.15851425206218073,0,True
2022-10-10,0.571430860097166,0.571430860097166,0.0,0,False
2022-10-11,0.571430860097166,0.5835434154492153,2.1196886968949613,6,True
2022-10-12,0.5835434154492153,0.5833499156510168,-0.0331594519063394,2,True
2022-10-13,0.5833499156510168,0.5830402115908807,-0.053090615396844676,1,True
2022-10-14,0.5830402115908807,0.5853280400731659,0.39239634536401,0,True
2022-10-15,0.5853280400731659,0.5853280400731659,0.0,0,False
2022-10-16,0.5853280400731659,0.5853280400731659,0.0,0,False
2022-10-17,0.5853280400731659,0.5853280400731659,0.0,0,False
2022-10-18,0.5853280400731659,0.5853280400731659,0.0,0,False
2022-10-19,0.5853280400731659,0.5853280400731659,0.0,0,False
2022-10-20,0.5853280400731659,0.5884798557712475,0.5384699659506609,2,True
2022-10-21,0.5884798557712475,0.5829383555059856,-0.94166354394567,0,True
2022-10-22,0.5829383555059856,0.5829383555059856,0.0,0,False
2022-10-23,0.5829383555059856,0.5829383555059856,0.0,0,False
2022-10-24,0.5829383555059856,0.5829383555059856,0.0,0,False
2022-10-25,0.5829383555059856,0.5810579849340142,-0.3225676530307031,1,True
2022-10-26,0.5810579849340142,0.5800245958982322,-0.1778461121912489,0,True
2022-10-27,0.5800245958982322,0.5800245958982322,0.0,0,False
2022-10-28,0.5800245958982322,0.5771316863687396,-0.49875635446331446,1,True
2022-10-29,0.5771316863687396,0.5771316863687396,0.0,0,False
2022-10-30,0.5771316863687396,0.574242049389151,-0.5006893656749112,2,True
2022-10-31,0.574242049389151,0.575164653306612,0.160664639317587,1,True
2022-11-01,0.575164653306612,0.57820729078086,0.5290028614859832,0,True
2022-11-02,0.57820729078086,0.5845725390074171,1.100859212266414,3,True
2022-11-03,0.5845725390074171,0.5930743954988361,1.454371514928643,3,True
2022-11-04,0.5930743954988361,0.6007803055115436,1.2993159157083545,4,True
2022-11-05,0.6007803055115436,0.6006395147924739,-0.02343464287661856,2,True
2022-11-06,0.6006395147924739,0.5989168482204771,-0.28680540150476386,2,True
2022-11-07,0.5989168482204771,0.5928582364620538,-1.011594810936578,7,True
2022-11-08,0.5928582364620538,0.579072572820607,-2.3252883731048946,11,True
2022-11-09,0.579072572820607,0.5489502308461389,-5.201825019573114,13,True
2022-11-10,0.5489502308461389,0.5600906890505291,2.029411334287712,10,True
2022-11-11,0.5600906890505291,0.5580179466703334,-0.37007263657772294,8,True
2022-11-12,0.5580179466703334,0.5516571389846647,-1.1398930309720945,4,True
2022-11-13,0.5516571389846647,0.5483457450425108,-0.6002630453126434,1,True
2022-11-14,0.5483457450425108,0.5463176149943889,-0.36986336931722485,6,True
2022-11-15,0.5463176149943889,0.5484058544823922,0.3822390914531848,1,True
2022-11-16,0.5484058544823922,0.5452437898865878,-0.5765920567694982,2,True
2022-11-17,0.5452437898865878,0.5462298414871172,0.18084600298418074,1,True
2022-11-18,0.5462298414871172,0.5478005099441063,0.2875471711162758,0,True
2022-11-19,0.5478005099441063,0.5474559125463846,-0.06290563653489345,3,True
2022-11-20,0.5474559125463846,0.5374120284764448,-1.8346471085174065,3,True
2022-11-21,0.5374120284764448,0.5275149386707363,-1.8416204478650333,6,True
2022-11-22,0.5275149386707363,0.5192698811492343,-1.5629998161338032,3,True
2022-11-23,0.5192698811492343,0.5246148931019242,1.0293321732545824,1,True
2022-11-24,0.5246148931019242,0.5213530221273319,-0.6217648445520862,2,True
2022-11-25,0.5213530221273319,0.5188440843133525,-0.48123588192544586,2,True
2022-11-26,0.5188440843133525,0.5198142631079733,0.18698850463039207,0,True
2022-11-27,0.5198142631079733,0.5198142631079733,0.0,0,False
2022-11-28,0.5198142631079733,0.5150011283473511,-0.9259335693954207,5,True
2022-11-29,0.5150011283473511,0.5174740848997578,0.48018468626318533,0,True
2022-11-30,0.5174740848997578,0.5174740848997578,0.0,0,False
2022-12-01,0.5174740848997578,0.5176907444147154,0.041868669616484944,1,True
2022-12-02,0.5176907444147154,0.5179278713120289,0.045804739580890264,1,True
2022-12-03,0.5179278713120289,0.5178033516341228,-0.024041895561754956,0,True
2022-12-04,0.5178033516341228,0.5178033516341228,0.0,0,False
2022-12-05,0.5178033516341228,0.5178033516341228,0.0,0,False
2022-12-06,0.5178033516341228,0.5184384708643032,0.12265645407198988,2,True
2022-12-07,0.5184384708643032,0.5158871442525426,-0.4921175327724514,1,True
2022-12-08,0.5158871442525426,0.514348689081838,-0.2982154503837542,2,True
2022-12-09,0.514348689081838,0.516087321353052,0.33802599445089676,0,True
2022-12-10,0.516087321353052,0.516087321353052,0.0,0,False
2022-12-11,0.516087321353052,0.516087321353052,0.0,0,False
2022-12-12,0.516087321353052,0.5156425292300126,-0.08618543890465125,1,True
2022-12-13,0.5156425292300126,0.516217099277126,0.11142797859815534,1,True
2022-12-14,0.516217099277126,0.5160820078587356,-0.0261694970158044,0,True
2022-12-15,0.5160820078587356,0.5160820078587356,0.0,0,False
2022-12-16,0.5160820078587356,0.5165924626840567,0.09890963404033393,5,True
2022-12-17,0.5165924626840567,0.5137730960809674,-0.5457622413692742,5,True
2022-12-18,0.5137730960809674,0.5148407207302896,0.2078008088523875,0,True
2022-12-19,0.5148407207302896,0.5122735159327424,-0.49864058808435363,1,True
2022-12-20,0.5122735159327424,0.5122735159327424,0.0,0,False
2022-12-21,0.5122735159327424,0.5122735159327424,0.0,0,False
2022-12-22,0.5122735159327424,0.5122735159327424,0.0,0,False
2022-12-23,0.5122735159327424,0.5122735159327424,0.0,0,False
2022-12-24,0.5122735159327424,0.5122735159327424,0.0,0,False
2022-12-25,0.5122735159327424,0.5122735159327424,0.0,0,False
2022-12-26,0.5122735159327424,0.5122735159327424,0.0,0,False
2022-12-27,0.5122735159327424,0.5122735159327424,0.0,0,False
2022-12-28,0.5122735159327424,0.5138541166863578,0.30854625594638474,4,True
2022-12-29,0.5138541166863578,0.5093297649286026,-0.8804739732223954,0,True
2022-12-30,0.5093297649286026,0.5138970164486462,0.8967179683056159,1,True
2022-12-31,0.5138970164486462,0.5138970164486462,0.0,0,False
2023-01-01,0.5138970164486462,0.5138970164486462,0.0,0,False
2023-01-02,0.5138970164486462,0.5133644737322353,-0.10362829504072524,1,True
2023-01-03,0.5133644737322353,0.5154871064845488,0.41347480414481996,0,True
2023-01-04,0.5154871064845488,0.5154871064845488,0.0,0,False
2023-01-05,0.5154871064845488,0.5154871064845488,0.0,0,False
2023-01-06,0.5154871064845488,0.5148544648020289,-0.12272696534240124,1,True
2023-01-07,0.5148544648020289,0.5159914256457028,0.22083150121094963,0,True
2023-01-08,0.5159914256457028,0.5159914256457028,0.0,0,False
2023-01-09,0.5159914256457028,0.5160189644920247,0.005337074407285591,1,True
2023-01-10,0.5160189644920247,0.51659309830099,0.11126215284171792,1,True
2023-01-11,0.51659309830099,0.5098097219852349,-1.3130985175885623,3,True
2023-01-12,0.5098097219852349,0.5074603585109629,-0.46083143827139184,0,True
2023-01-13,0.5074603585109629,0.5073748069087298,-0.016858775429107187,1,True
2023-01-14,0.5073748069087298,0.5099307695331708,0.5037622265901653,4,True
2023-01-15,0.5099307695331708,0.5088030662585289,-0.2211483091468125,2,True
2023-01-16,0.5088030662585289,0.5083664945187369,-0.08580367704980052,1,True
2023-01-17,0.5083664945187369,0.5080492203916681,-0.06241051101709694,0,True
2023-01-18,0.5080492203916681,0.5080492203916681,0.0,0,False
2023-01-19,0.5080492203916681,0.5002346094786364,-1.5381602016842466,7,True
2023-01-20,0.5002346094786364,0.5010743649369344,0.16787232278334674,0,True
2023-01-21,0.5010743649369344,0.4991249001175734,-0.3890569855048098,2,True
2023-01-22,0.4991249001175734,0.5035537858221385,0.8873301459257688,1,True
2023-01-23,0.5035537858221385,0.5023094459983586,-0.24711160134528454,1,True
2023-01-24,0.5023094459983586,0.5089558199410849,1.3231632404436144,4,True
2023-01-25,0.5089558199410849,0.5074029928817388,-0.3051005605016477,8,True
2023-01-26,0.5074029928817388,0.5189890032624812,2.283394174508291,0,True
2023-01-27,0.5189890032624812,0.517704628075075,-0.24747637798341326,2,True
2023-01-28,0.517704628075075,0.5227247499218526,0.9696884235791625,0,True
2023-01-29,0.5227247499218526,0.5217697702319676,-0.18269264847853295,1,True
2023-01-30,0.5217697702319676,0.5210575679767425,-0.136497416266268,5,True
2023-01-31,0.5210575679767425,0.5288543380336679,1.496335632778556,5,True
2023-02-01,0.5288543380336679,0.5292811328278694,0.0807017667262322,2,True
2023-02-02,0.5292811328278694,0.5345283033266031,0.9913768266589962,0,True
2023-02-03,0.5345283033266031,0.5393127704840188,0.8950820990469399,2,True
2023-02-04,0.5393127704840188,0.5409645211598576,0.3062695278579053,0,True
2023-02-05,0.5409645211598576,0.5424964416752937,0.2831831766252568,5,True
2023-02-06,0.5424964416752937,0.5345543103509423,-1.463996943431578,1,True
2023-02-07,0.5345543103509423,0.5330950619661307,-0.2729841208938266,0,True
2023-02-08,0.5330950619661307,0.5285014969751559,-0.8616783982265841,3,True
2023-02-09,0.5285014969751559,0.5245696700539387,-0.7439575750912253,9,True
2023-02-10,0.5245696700539387,0.5068674144036153,-3.374624317967756,8,True
2023-02-11,0.5068674144036153,0.5103429755761689,0.6856943401349014,2,True
2023-02-12,0.5103429755761689,0.5134181195682647,0.602564185119614,1,True
2023-02-13,0.5134181195682647,0.5163034110199612,0.5619769427153809,2,True
2023-02-14,0.5163034110199612,0.5157323176588153,-0.11061196748975988,1,True
2023-02-15,0.5157323176588153,0.5164741936713027,0.14384904476321125,0,True
2023-02-16,0.5164741936713027,0.5164741936713027,0.0,0,False
2023-02-17,0.5164741936713027,0.5209968970158647,0.8756881563457997,1,True
2023-02-18,0.5209968970158647,0.5214477136389172,0.08652961766848488,1,True
2023-02-19,0.5214477136389172,0.5223132284479945,0.1659830480485569,1,True
2023-02-20,0.5223132284479945,0.5257382311023068,0.6557372985726007,3,True
2023-02-21,0.5257382311023068,0.5245069769295563,-0.23419528957765445,5,True
2023-02-22,0.5245069769295563,0.5208229686240254,-0.7023754625909651,1,True
2023-02-23,0.5208229686240254,0.5248114156881504,0.7657970758590205,1,True
2023-02-24,0.5248114156881504,0.5248114156881504,0.0,0,False
2023-02-25,0.5248114156881504,0.5226527303446353,-0.41132591231547444,2,True
2023-02-26,0.5226527303446353,0.5223429236018216,-0.059275829786542555,0,True
2023-02-27,0.5223429236018216,0.519737367946791,-0.4988208966369978,1,True
2023-02-28,0.519737367946791,0.5186465490252256,-0.20987887129892968,1,True
2023-03-01,0.5186465490252256,0.5180710437609114,-0.11096290246137563,1,True
2023-03-02,0.5180710437609114,0.5152144984938806,-0.5513809932888525,1,True
2023-03-03,0.5152144984938806,0.5113519290743096,-0.7497012275202608,9,True
2023-03-04,0.5113519290743096,0.5130108165944899,0.3244120977862197,0,True
2023-03-05,0.5130108165944899,0.5218323356151816,1.7195580941648414,4,True
2023-03-06,0.5218323356151816,0.5235543554468021,0.3299948497040406,0,True
2023-03-07,0.5235543554468021,0.5235543554468021,0.0,0,False
2023-03-08,0.5235543554468021,0.5235543554468021,0.0,0,False
2023-03-09,0.5235543554468021,0.5235543554468021,0.0,0,False
2023-03-10,0.5235543554468021,0.5107112628308562,-2.453058117525453,10,True
2023-03-11,0.5107112628308562,0.5048061004781248,-1.156262409409048,4,True
2023-03-12,0.5048061004781248,0.5063253612257974,0.300959268565415,0,True
2023-03-13,0.5063253612257974,0.5063253612257974,0.0,0,False
2023-03-14,0.5063253612257974,0.5108619207780556,0.8959771521764859,1,True
2023-03-15,0.5108619207780556,0.5042568704948344,-1.29292280645259,4,True
2023-03-16,0.5042568704948344,0.5030537489811564,-0.2385929838689793,5,True
2023-03-17,0.5030537489811564,0.5011185039049634,-0.38469946404584565,2,True
2023-03-18,0.5011185039049634,0.5062762241315625,1.0292416237691393,2,True
2023-03-19,0.5062762241315625,0.5038362383564748,-0.4819475335372636,2,True
2023-03-20,0.5038362383564748,0.5062501915422867,0.47911464123466807,4,True
2023-03-21,0.5062501915422867,0.4966818968407787,-1.8900328061819183,0,True
2023-03-22,0.4966818968407787,0.4966818968407787,0.0,0,False
2023-03-23,0.4966818968407787,0.5018068863453604,1.0318454401458954,6,True
2023-03-24,0.5018068863453604,0.49701807227790296,-0.954314139117185,1,True
2023-03-25,0.49701807227790296,0.494539351445673,-0.49871845119627833,1,True
2023-03-26,0.494539351445673,0.494539351445673,0.0,0,False
2023-03-27,0.494539351445673,0.4920736910203878,-0.4985771947323192,1,True
2023-03-28,0.4920736910203878,0.500045448527365,1.620033269904475,4,True
2023-03-29,0.500045448527365,0.5001297242385241,0.01685361028829213,0,True
2023-03-30,0.5001297242385241,0.4988735844099304,-0.2511628019122858,1,True
2023-03-31,0.4988735844099304,0.49762934725790803,-0.24940930746896184,0,True
2023-04-01,0.49762934725790803,0.4972063761573877,-0.08499721787933456,1,True
2023-04-02,0.4972063761573877,0.49615126448044744,-0.2122079940113819,0,True
2023-04-03,0.49615126448044744,0.49615126448044744,0.0,0,False
2023-04-04,0.49615126448044744,0.49632831723681087,0.03568523735373308,1,True
2023-04-05,0.49632831723681087,0.49555732225609156,-0.15533971243302247,1,True
2023-04-06,0.49555732225609156,0.49106996801470215,-0.9055166859325392,2,True
2023-04-07,0.49106996801470215,0.4888032992625478,-0.46157755509220744,1,True
2023-04-08,0.4888032992625478,0.48975628116605596,0.1949622486071556,1,True
2023-04-09,0.48975628116605596,0.4898661027950423,0.022423730579790302,0,True
2023-04-10,0.4898661027950423,0.4898661027950423,0.0,0,False
2023-04-11,0.4898661027950423,0.4898661027950423,0.0,0,False
2023-04-12,0.4898661027950423,0.494064458499745,0.8570414814881078,1,True
2023-04-13,0.494064458499745,0.494064458499745,0.0,0,False
2023-04-14,0.494064458499745,0.4982412038188371,0.8453846957085398,1,True
2023-04-15,0.4982412038188371,0.4972284262491955,-0.20327053681610252,1,True
2023-04-16,0.4972284262491955,0.49890921106576847,0.33803071744145097,0,True
2023-04-17,0.49890921106576847,0.49641735294089406,-0.49946123855907354,1,True
2023-04-18,0.49641735294089406,0.49641735294089406,0.0,0,False
2023-04-19,0.49641735294089406,0.48800640563373193,-1.6943298330192702,9,True
2023-04-20,0.48800640563373193,0.48142398996031227,-1.3488379655327787,0,True
2023-04-21,0.48142398996031227,0.48142398996031227,0.0,0,False
2023-04-22,0.48142398996031227,0.48090309707827844,-0.10819836420631335,1,True
2023-04-23,0.48090309707827844,0.4809477471293268,0.009284625389116563,0,True
2023-04-24,0.4809477471293268,0.4809477471293268,0.0,0,False
2023-04-25,0.4809477471293268,0.4809477471293268,0.0,0,False
2023-04-26,0.4809477471293268,0.4809477471293268,0.0,0,False
2023-04-27,0.4809477471293268,0.4840982264600268,0.655056469128823,9,True
2023-04-28,0.4840982264600268,0.48488518817040344,0.16256240311625092,0,True
2023-04-29,0.48488518817040344,0.4824664178164113,-0.4988336235055457,1,True
2023-04-30,0.4824664178164113,0.4824664178164113,0.0,0,False
2023-05-01,0.4824664178164113,0.4824664178164113,0.0,0,False
2023-05-02,0.4824664178164113,0.4824664178164113,0.0,0,False
2023-05-03,0.4824664178164113,0.4824664178164113,0.0,0,False
2023-05-04,0.4824664178164113,0.4824664178164113,0.0,0,False
2023-05-05,0.4824664178164113,0.4824664178164113,0.0,0,False
2023-05-06,0.4824664178164113,0.48006227663395046,-0.498302284611174,1,True
2023-05-07,0.48006227663395046,0.48006227663395046,0.0,0,False
2023-05-08,0.48006227663395046,0.4853609031060661,1.10373731284783,6,True
2023-05-09,0.4853609031060661,0.4766365617882626,-1.7974956907266582,6,True
2023-05-10,0.4766365617882626,0.47367173289015224,-0.622031362215858,2,True
2023-05-11,0.47367173289015224,0.4699907360615372,-0.7771198011236824,4,True
2023-05-12,0.4699907360615372,0.4669378284932673,-0.6495676050666144,0,True
2023-05-13,0.4669378284932673,0.4669378284932673,0.0,0,False
2023-05-14,0.4669378284932673,0.4669378284932673,0.0,0,False
2023-05-15,0.4669378284932673,0.4669378284932673,0.0,0,False
2023-05-16,0.4669378284932673,0.4669378284932673,0.0,0,False
2023-05-17,0.4669378284932673,0.4669378284932673,0.0,0,False
2023-05-18,0.4669378284932673,0.46545623243458584,-0.31730049875426936,1,True
2023-05-19,0.46545623243458584,0.4646049308980134,-0.18289615161444228,0,True
2023-05-20,0.4646049308980134,0.4646049308980134,0.0,0,False
2023-05-21,0.4646049308980134,0.4646049308980134,0.0,0,False
2023-05-22,0.4646049308980134,0.46228410330255637,-0.49952711241596504,1,True
2023-05-23,0.46228410330255637,0.46228410330255637,0.0,0,False
2023-05-24,0.46228410330255637,0.4609150738557344,-0.2961446082704655,1,True
2023-05-25,0.4609150738557344,0.4631224600476473,0.4789138644234914,0,True
2023-05-26,0.4631224600476473,0.464217252104399,0.23639364340892755,1,True
2023-05-27,0.464217252104399,0.46717106826527777,0.6363003846773241,0,True
2023-05-28,0.46717106826527777,0.46717106826527777,0.0,0,False
2023-05-29,0.46717106826527777,0.46717106826527777,0.0,0,False
2023-05-30,0.46717106826527777,0.4692733194056092,0.4499960042768869,2,True
2023-05-31,0.4692733194056092,0.4645433785626144,-1.0079287799668268,1,True
2023-06-01,0.4645433785626144,0.4645433785626144,0.0,0,False
2023-06-02,0.4645433785626144,0.46876609747809206,0.909004220131937,1,True
2023-06-03,0.46876609747809206,0.46876609747809206,0.0,0,False
2023-06-04,0.46876609747809206,0.4653844220012273,-0.7213993279500786,3,True
2023-06-05,0.4653844220012273,0.4675686184295817,0.46933165896743123,1,True
2023-06-06,0.4675686184295817,0.4541215674478857,-2.8759524167512596,11,True
2023-06-07,0.4541215674478857,0.4523560800429435,-0.3887697769705212,1,True
2023-06-08,0.4523560800429435,0.4512451126793306,-0.2455957624151739,1,True
2023-06-09,0.4512451126793306,0.449765213689689,-0.3279590067700622,1,True
2023-06-10,0.449765213689689,0.4557336930400173,1.3270211142754507,7,True
2023-06-11,0.4557336930400173,0.4553892490188917,-0.07558010881923982,0,True
2023-06-12,0.4553892490188917,0.4553892490188917,0.0,0,False
2023-06-13,0.4553892490188917,0.4557780414623024,0.0853758502749713,1,True
2023-06-14,0.4557780414623024,0.4557534938210089,-0.005385876251240429,0,True
2023-06-15,0.4557534938210089,0.4580176993040405,0.49680485475791514,5,True
2023-06-16,0.4580176993040405,0.46243552512553515,0.9645535157718932,0,True
2023-06-17,0.46243552512553515,0.4631224123847647,0.14853687096014756,1,True
2023-06-18,0.4631224123847647,0.46370095981290294,0.12492321957797703,0,True
2023-06-19,0.46370095981290294,0.4660317609595226,0.502651783934227,1,True
2023-06-20,0.4660317609595226,0.4655908861321375,-0.09460188431735794,1,True
2023-06-21,0.4655908861321375,0.4655908861321375,0.0,0,False
2023-06-22,0.4655908861321375,0.4632666135049636,-0.49920921916719596,1,True
2023-06-23,0.4632666135049636,0.4632666135049636,0.0,0,False
2023-06-24,0.4632666135049636,0.46327270912147145,0.0013157901584293086,1,True
2023-06-25,0.46327270912147145,0.46224546107398484,-0.22173722458951328,4,True
2023-06-26,0.46224546107398484,0.46058670443305694,-0.35884757788079424,0,True
2023-06-27,0.46058670443305694,0.46058670443305694,0.0,0,False
2023-06-28,0.46058670443305694,0.46058670443305694,0.0,0,False
2023-06-29,0.46058670443305694,0.459241460622913,-0.2920717852244237,2,True
2023-06-30,0.459241460622913,0.4561320747166598,-0.6770699453040763,9,True
2023-07-01,0.4561320747166598,0.4621683739771404,1.3233665411997775,1,True
2023-07-02,0.4621683739771404,0.4621625327919035,-0.0012638651984420157,0,True
2023-07-03,0.4621625327919035,0.4621625327919035,0.0,0,False
2023-07-04,0.4621625327919035,0.461566275377671,-0.12901465868091488,1,True
2023-07-05,0.461566275377671,0.46179397380912585,0.04933168725738124,1,True
2023-07-06,0.46179397380912585,0.45962120946711404,-0.4705051311279962,2,True
2023-07-07,0.45962120946711404,0.45916232651834143,-0.09983937627783268,0,True
2023-07-08,0.45916232651834143,0.45916232651834143,0.0,0,False
2023-07-09,0.45916232651834143,0.45916232651834143,0.0,0,False
2023-07-10,0.45916232651834143,0.45916232651834143,0.0,0,False
2023-07-11,0.45916232651834143,0.45916232651834143,0.0,0,False
2023-07-12,0.45916232651834143,0.45821468267002674,-0.20638536604261626,1,True
2023-07-13,0.45821468267002674,0.4578504503221282,-0.07948945367184379,0,True
2023-07-14,0.4578504503221282,0.4578504503221282,0.0,0,False
2023-07-15,0.4578504503221282,0.4594744259960923,0.35469565942798376,6,True
2023-07-16,0.4594744259960923,0.4590808404929322,-0.0856599368521671,2,True
2023-07-17,0.4590808404929322,0.4598018902640655,0.15706379084761135,0,True
2023-07-18,0.4598018902640655,0.4597280440423391,-0.016060443266985303,2,True
2023-07-19,0.4597280440423391,0.4596057915628532,-0.02659234759988527,1,True
2023-07-20,0.4596057915628532,0.4583888652635302,-0.2647761019688111,2,True
2023-07-21,0.4583888652635302,0.4574632430120547,-0.2019294798845772,0,True
2023-07-22,0.4574632430120547,0.4574632430120547,0.0,0,False
2023-07-23,0.4574632430120547,0.4574632430120547,0.0,0,False
2023-07-24,0.4574632430120547,0.45357976098937874,-0.8489167341852677,4,True
2023-07-25,0.45357976098937874,0.4525494880558487,-0.22714261572931438,0,True
2023-07-26,0.4525494880558487,0.4525494880558487,0.0,0,False
2023-07-27,0.4525494880558487,0.4525494880558487,0.0,0,False
2023-07-28,0.4525494880558487,0.4525494880558487,0.0,0,False
2023-07-29,0.4525494880558487,0.4525494880558487,0.0,0,False
2023-07-30,0.4525494880558487,0.4525494880558487,0.0,0,False
2023-07-31,0.4525494880558487,0.4502937722323896,-0.4984462214618013,1,True
2023-08-01,0.4502937722323896,0.44812059977355617,-0.4826121507432002,2,True
2023-08-02,0.44812059977355617,0.45176983385060393,0.8143419603766855,0,True
2023-08-03,0.45176983385060393,0.45176983385060393,0.0,0,False
2023-08-04,0.45176983385060393,0.45176983385060393,0.0,0,False
2023-08-05,0.45176983385060393,0.45176983385060393,0.0,0,False
2023-08-06,0.45176983385060393,0.45176983385060393,0.0,0,False
2023-08-07,0.45176983385060393,0.45041918460570346,-0.29896844448165094,2,True
2023-08-08,0.45041918460570346,0.4499203253125441,-0.11075445056720756,5,True
2023-08-09,0.4499203253125441,0.4476045090611336,-0.5147169667877982,0,True
2023-08-10,0.4476045090611336,0.4453719627628144,-0.4987765433824731,1,True
2023-08-11,0.4453719627628144,0.4453719627628144,0.0,0,False
2023-08-12,0.4453719627628144,0.4453719627628144,0.0,0,False
2023-08-13,0.4453719627628144,0.4468956746356664,0.3421211931258217,1,True
2023-08-14,0.4468956746356664,0.444195841326595,-0.6041305526781837,1,True
2023-08-15,0.444195841326595,0.444195841326595,0.0,0,False
2023-08-16,0.444195841326595,0.44389712149164984,-0.06724957938666343,6,True
2023-08-17,0.44389712149164984,0.4483844216226178,1.0108874137072732,6,True
2023-08-18,0.4483844216226178,0.4590435710300132,2.3772345544080142,7,True
2023-08-19,0.4590435710300132,0.45907196747902956,0.006186002987185191,0,True
2023-08-20,0.45907196747902956,0.458343305977656,-0.15872489565742498,1,True
2023-08-21,0.458343305977656,0.4571720792590972,-0.2555348149048564,1,True
2023-08-22,0.4571720792590972,0.46292393854931124,1.2581387952509404,1,True
2023-08-23,0.46292393854931124,0.4634534502917014,0.1143841781113153,0,True
2023-08-24,0.4634534502917014,0.4634534502917014,0.0,0,False
2023-08-25,0.4634534502917014,0.4541878217818305,-1.9992576393678907,6,True
2023-08-26,0.4541878217818305,0.45365191530258775,-0.11799226080970726,0,True
2023-08-27,0.45365191530258775,0.45365191530258775,0.0,0,False
2023-08-28,0.45365191530258775,0.45061349425004676,-0.6697692548072509,2,True
2023-08-29,0.45061349425004676,0.4536320491605283,0.6698767234002423,1,True
2023-08-30,0.4536320491605283,0.45166236468994253,-0.4342031111405742,2,True
2023-08-31,0.45166236468994253,0.4543326053554817,0.5912028263351576,2,True
2023-09-01,0.4543326053554817,0.45146965691102836,-0.6301437340631266,1,True
2023-09-02,0.45146965691102836,0.4457367368332933,-1.2698350797171853,3,True
2023-09-03,0.4457367368332933,0.4449957916503105,-0.1662293281560756,0,True
2023-09-04,0.4449957916503105,0.44410424780558583,-0.2003488260907571,3,True
2023-09-05,0.44410424780558583,0.4441771471241077,0.016414911337170324,0,True
2023-09-06,0.4441771471241077,0.4448220980947447,0.14520129520683156,4,True
2023-09-07,0.4448220980947447,0.44742230010910927,0.5845487500512503,3,True
2023-09-08,0.44742230010910927,0.44241090871418415,-1.1200584757851906,4,True
2023-09-09,0.44241090871418415,0.4438188135790049,0.3182346630901778,4,True
2023-09-10,0.4438188135790049,0.4375496318225157,-1.4125543047474154,5,True
2023-09-11,0.4375496318225157,0.4330775227349407,-1.022080413814408,1,True
2023-09-12,0.4330775227349407,0.4318021046673899,-0.29450109982536166,2,True
2023-09-13,0.4318021046673899,0.4360340063113516,0.9800558168241214,2,True
2023-09-14,0.4360340063113516,0.4371274587690826,0.2507722888361652,4,True
2023-09-15,0.4371274587690826,0.441501717625723,1.000682699951616,0,True
2023-09-16,0.441501717625723,0.44136665455812174,-0.030591742276242506,5,True
2023-09-17,0.44136665455812174,0.44169339635072347,0.07402956005564398,2,True
2023-09-18,0.44169339635072347,0.43717788770327654,-1.0223174457110074,1,True
2023-09-19,0.43717788770327654,0.43717788770327654,0.0,0,False
2023-09-20,0.43717788770327654,0.4377218575424392,0.12442757386939007,3,True
2023-09-21,0.4377218575424392,0.4329820778519293,-1.0828291091336095,1,True
2023-09-22,0.4329820778519293,0.4364514927772329,0.8012837257642902,0,True
2023-09-23,0.4364514927772329,0.4364514927772329,0.0,0,False
2023-09-24,0.4364514927772329,0.43427389170586866,-0.49893312484915464,1,True
2023-09-25,0.43427389170586866,0.43407641416136555,-0.045473040925259056,1,True
2023-09-26,0.43407641416136555,0.4344976374093827,0.09703896232899911,1,True
2023-09-27,0.4344976374093827,0.4333258619715113,-0.2696851114905696,0,True
2023-09-28,0.4333258619715113,0.4333258619715113,0.0,0,False
2023-09-29,0.4333258619715113,0.42901744053972896,-0.9942682424215921,2,True
2023-09-30,0.42901744053972896,0.42901744053972896,0.0,0,False
2023-10-01,0.42901744053972896,0.42866197696870717,-0.08285527287062999,1,True
2023-10-02,0.42866197696870717,0.4314524192550947,0.6509656643960415,1,True
2023-10-03,0.4314524192550947,0.4343524033594276,0.6721445922912572,2,True
2023-10-04,0.4343524033594276,0.42923111142567194,-1.179063795698121,5,True
2023-10-05,0.42923111142567194,0.42572599896611807,-0.8166026101677049,1,True
2023-10-06,0.42572599896611807,0.4257161367243981,-0.002316570222138381,0,True
2023-10-07,0.4257161367243981,0.4235937528926132,-0.49854436999152707,1,True
2023-10-08,0.4235937528926132,0.4227911779312351,-0.18946808254312053,1,True
2023-10-09,0.4227911779312351,0.42176477789718114,-0.24276760907743222,1,True
2023-10-10,0.42176477789718114,0.41929838104611894,-0.5847801856188828,1,True
2023-10-11,0.41929838104611894,0.41921316016006643,-0.02032463989960487,0,True
2023-10-12,0.41921316016006643,0.41921316016006643,0.0,0,False
2023-10-13,0.41921316016006643,0.41921316016006643,0.0,0,False
2023-10-14,0.41921316016006643,0.41921316016006643,0.0,0,False
2023-10-15,0.41921316016006643,0.4191780470497764,-0.008375956107065097,1,True
2023-10-16,0.4191780470497764,0.42028386202964174,0.2638055565285846,2,True
2023-10-17,0.42028386202964174,0.42190185548210346,0.3849763454271349,2,True
2023-10-18,0.42190185548210346,0.4168186334443096,-1.2048351937171131,3,True
2023-10-19,0.4168186334443096,0.41035397131442936,-1.5509532470898924,4,True
2023-10-20,0.41035397131442936,0.4093461136685396,-0.24560689461866625,0,True
2023-10-21,0.4093461136685396,0.40948509264263416,0.033951458058067985,2,True
2023-10-22,0.40948509264263416,0.4128006185396047,0.8096817091859387,1,True
2023-10-23,0.4128006185396047,0.4128006185396047,0.0,0,False
2023-10-24,0.4128006185396047,0.41152770822143814,-0.30835959564931015,4,True
2023-10-25,0.41152770822143814,0.42294474166508206,2.774304916912307,7,True
2023-10-26,0.42294474166508206,0.4256110704179523,0.6304201211660088,3,True
2023-10-27,0.4256110704179523,0.4254090276580732,-0.04747121819005384,4,True
2023-10-28,0.4254090276580732,0.42522716967119994,-0.042748972177297784,1,True
2023-10-29,0.42522716967119994,0.4260095698086801,0.18399580113499514,0,True
2023-10-30,0.4260095698086801,0.4248121285904455,-0.28108317350062917,2,True
2023-10-31,0.4248121285904455,0.4160761361068794,-2.0564366918036647,5,True
2023-11-01,0.4160761361068794,0.41271093274817744,-0.8087950898095997,4,True
2023-11-02,0.41271093274817744,0.41189451912404135,-0.19781730004090337,3,True
2023-11-03,0.41189451912404135,0.4095052954494782,-0.5800571660055542,1,True
2023-11-04,0.4095052954494782,0.4102488495447892,0.18157374363005907,1,True
2023-11-05,0.4102488495447892,0.4108571899942749,0.14828571735441276,4,True
2023-11-06,0.4108571899942749,0.40760673221433996,-0.7911405371730851,3,True
2023-11-07,0.40760673221433996,0.4033732255980668,-1.0386252928832773,5,True
2023-11-08,0.4033732255980668,0.40400828719729437,0.1574377174602848,0,True
2023-11-09,0.40400828719729437,0.4073051969387941,0.81605002817422,3,True
2023-11-10,0.4073051969387941,0.40232358712152244,-1.2230656163270681,6,True
2023-11-11,0.40232358712152244,0.40355740501207477,0.3066730189447364,3,True
2023-11-12,0.40355740501207477,0.4065938156317893,0.7524110775823045,4,True
2023-11-13,0.4065938156317893,0.40434157172075885,-0.5539297019387268,3,True
2023-11-14,0.40434157172075885,0.40664492387394546,0.5696550427363167,4,True
2023-11-15,0.40664492387394546,0.4039846823428016,-0.6541927305524387,1,True
2023-11-16,0.4039846823428016,0.4008151584023179,-0.7845653756233695,4,True
2023-11-17,0.4008151584023179,0.4023191172933846,0.3752250531296353,3,True
2023-11-18,0.4023191172933846,0.3979561686741316,-1.0844497394518315,3,True
2023-11-19,0.3979561686741316,0.39320304769858155,-1.194383037555613,3,True
2023-11-20,0.39320304769858155,0.39413259368604353,0.23640355610228259,1,True
2023-11-21,0.39413259368604353,0.3854909667132695,-2.1925684683814173,4,True
2023-11-22,0.3854909667132695,0.38513785159407593,-0.0916013991726583,4,True
2023-11-23,0.38513785159407593,0.3884884073614376,0.8699627298365487,3,True
2023-11-24,0.3884884073614376,0.3906667396750033,0.560720029810069,1,True
2023-11-25,0.3906667396750033,0.3888463498125975,-0.46597001421727624,4,True
2023-11-26,0.3888463498125975,0.38973417017357087,0.22832163948593998,1,True
2023-11-27,0.38973417017357087,0.3933223260966354,0.9206675210096549,3,True
2023-11-28,0.3933223260966354,0.39197803116220803,-0.34177946311064744,2,True
2023-11-29,0.39197803116220803,0.39487694374196275,0.7395599623681637,3,True
2023-11-30,0.39487694374196275,0.39259165640962096,-0.5787340508376593,0,True
2023-12-01,0.39259165640962096,0.39259165640962096,0.0,0,False
2023-12-02,0.39259165640962096,0.39259165640962096,0.0,0,False
2023-12-03,0.39259165640962096,0.39296692463981725,0.09558741864976739,1,True
2023-12-04,0.39296692463981725,0.3983450541005158,1.3685959615120202,4,True
2023-12-05,0.3983450541005158,0.39934527556606414,0.2510942348228573,4,True
2023-12-06,0.39934527556606414,0.3922243929712413,-1.7831393108955984,3,True
2023-12-07,0.3922243929712413,0.3963016742737057,1.039527723295719,4,True
2023-12-08,0.3963016742737057,0.3947636182264606,-0.3881023339262657,1,True
2023-12-09,0.3947636182264606,0.3966967724192507,0.4896991778206683,0,True
2023-12-10,0.3966967724192507,0.39576128259856336,-0.23581987193449505,3,True
2023-12-11,0.39576128259856336,0.39658106927199743,0.2071417062455838,6,True
2023-12-12,0.39658106927199743,0.40067397932971777,1.032048772583538,0,True
2023-12-13,0.40067397932971777,0.39861457681387025,-0.5139845914857388,5,True
2023-12-14,0.39861457681387025,0.403604845050091,1.2519030980020718,1,True
2023-12-15,0.403604845050091,0.4001893981521757,-0.8462353561418223,2,True
2023-12-16,0.4001893981521757,0.40942901917184105,2.3088120430796444,4,True
2023-12-17,0.40942901917184105,0.4067068301032232,-0.6648744815704655,2,True
2023-12-18,0.4067068301032232,0.40466976739596744,-0.5008675922011818,7,True
2023-12-19,0.40466976739596744,0.4064465256813434,0.439063757297542,4,True
2023-12-20,0.4064465256813434,0.407579693829318,0.27879882749031193,2,True
2023-12-21,0.407579693829318,0.40429777938699285,-0.805220302191878,1,True
2023-12-22,0.40429777938699285,0.40095325233335793,-0.8272434883777935,1,True
2023-12-23,0.40095325233335793,0.40076449581516904,-0.047076939042245414,1,True
2023-12-24,0.40076449581516904,0.4041682799787295,0.8493227816094517,2,True
2023-12-25,0.4041682799787295,0.40762971072264653,0.8564330540979492,2,True
2023-12-26,0.40762971072264653,0.4062963388031558,-0.3271037131044596,1,True
2023-12-27,0.4062963388031558,0.40196807482661917,-1.0652973121260678,11,True
2023-12-28,0.40196807482661917,0.40388791422306336,0.47760991896490523,1,True
2023-12-29,0.40388791422306336,0.4102780299752632,1.582150771827906,2,True
2023-12-30,0.4102780299752632,0.41201489865859847,0.42333943239416527,3,True
2023-12-31,0.41201489865859847,0.41076430411632037,-0.30353138839145366,2,True
