day,start_equity,end_equity,return_pct,entries,active
2021-09-02,1.0,1.0,0.0,0,False
2021-09-03,1.0,1.0,0.0,0,False
2021-09-04,1.0,1.0,0.0,0,False
2021-09-05,1.0,1.0,0.0,0,False
2021-09-06,1.0,1.0,0.0,0,False
2021-09-07,1.0,1.0,0.0,0,False
2021-09-08,1.0,1.0,0.0,0,False
2021-09-09,1.0,1.0,0.0,0,False
2021-09-10,1.0,1.0,0.0,0,False
2021-09-11,1.0,1.0,0.0,0,False
2021-09-12,1.0,1.0,0.0,0,False
2021-09-13,1.0,1.0,0.0,0,False
2021-09-14,1.0,1.0,0.0,0,False
2021-09-15,1.0,1.0,0.0,0,False
2021-09-16,1.0,1.0,0.0,0,False
2021-09-17,1.0,1.0,0.0,0,False
2021-09-18,1.0,1.0,0.0,0,False
2021-09-19,1.0,1.0,0.0,0,False
2021-09-20,1.0,1.0,0.0,0,False
2021-09-21,1.0,1.0,0.0,0,False
2021-09-22,1.0,1.0,0.0,0,False
2021-09-23,1.0,1.0,0.0,0,False
2021-09-24,1.0,1.0,0.0,0,False
2021-09-25,1.0,1.0,0.0,0,False
2021-09-26,1.0,1.0,0.0,0,False
2021-09-27,1.0,1.0,0.0,0,False
2021-09-28,1.0,1.0,0.0,0,False
2021-09-29,1.0,1.0,0.0,0,False
2021-09-30,1.0,1.0,0.0,0,False
2021-10-01,1.0,1.0,0.0,0,False
2021-10-02,1.0,1.0,0.0,0,False
2021-10-03,1.0,1.0,0.0,0,False
2021-10-04,1.0,1.0,0.0,0,False
2021-10-05,1.0,1.0,0.0,0,False
2021-10-06,1.0,1.0013367622167146,0.13367622167146376,1,True
2021-10-07,1.0013367622167146,1.0004939772081831,-0.08416599093653554,0,True
2021-10-08,1.0004939772081831,1.0004939772081831,0.0,0,False
2021-10-09,1.0004939772081831,0.9981469044963843,-0.2345913883807782,3,True
2021-10-10,0.9981469044963843,1.000300551514583,0.21576453410787622,1,True
2021-10-11,1.000300551514583,0.9966563313634399,-0.3643125204345177,0,True
2021-10-12,0.9966563313634399,0.9966563313634399,0.0,0,False
2021-10-13,0.9966563313634399,1.0093296859517973,1.2715872251591431,4,True
2021-10-14,1.0093296859517973,1.0240572460201907,1.4591426640251148,0,True
2021-10-15,1.0240572460201907,1.0270188852363211,0.2892064118134252,1,True
2021-10-16,1.0270188852363211,1.0427005520389352,1.5269112406833374,0,True
2021-10-17,1.0427005520389352,1.0427005520389352,0.0,0,False
2021-10-18,1.0427005520389352,1.0415976715602953,-0.10577154452285908,1,True
2021-10-19,1.0415976715602953,1.0436552001066575,0.19753582429578032,0,True
2021-10-20,1.0436552001066575,1.0436552001066575,0.0,0,False
2021-10-21,1.0436552001066575,1.0436552001066575,0.0,0,False
2021-10-22,1.0436552001066575,1.0436552001066575,0.0,0,False
2021-10-23,1.0436552001066575,1.0436552001066575,0.0,0,False
2021-10-24,1.0436552001066575,1.0436552001066575,0.0,0,False
2021-10-25,1.0436552001066575,1.0468051728790095,0.3018212118360619,1,True
2021-10-26,1.0468051728790095,1.0501172550684676,0.3163991041760905,0,True
2021-10-27,1.0501172550684676,1.0471578313374177,-0.28181840806501546,6,True
2021-10-28,1.0471578313374177,1.0503922822407508,0.30887902535208234,0,True
2021-10-29,1.0503922822407508,1.0503922822407508,0.0,0,False
2021-10-30,1.0503922822407508,1.0503922822407508,0.0,0,False
2021-10-31,1.0503922822407508,1.0503922822407508,0.0,0,False
2021-11-01,1.0503922822407508,1.0516036962761168,0.11532967785918835,1,True
2021-11-02,1.0516036962761168,1.0511472370281638,-0.04340601403070021,0,True
2021-11-03,1.0511472370281638,1.0511361919146263,-0.0010507674993998073,1,True
2021-11-04,1.0511361919146263,1.0702077995943375,1.8143802702647482,1,True
2021-11-05,1.0702077995943375,1.0632450167485876,-0.6506010186422828,0,True
2021-11-06,1.0632450167485876,1.0600808583504642,-0.2975944724198598,1,True
2021-11-07,1.0600808583504642,1.060256225199405,0.016542780445427674,0,True
2021-11-08,1.060256225199405,1.060256225199405,0.0,0,False
2021-11-09,1.060256225199405,1.060256225199405,0.0,0,False
2021-11-10,1.060256225199405,1.060256225199405,0.0,0,False
2021-11-11,1.060256225199405,1.0466563626119514,-1.2826958488167173,10,True
2021-11-12,1.0466563626119514,1.0493461481417083,0.25698840859711414,0,True
2021-11-13,1.0493461481417083,1.048152764880836,-0.11372636788973267,1,True
2021-11-14,1.048152764880836,1.0484864524560606,0.03183577684524597,0,True
2021-11-15,1.0484864524560606,1.0484864524560606,0.0,0,False
2021-11-16,1.0484864524560606,1.0680051430031239,1.8616063661424542,5,True
2021-11-17,1.0680051430031239,1.0567198855680666,-1.0566669560526876,0,True
2021-11-18,1.0567198855680666,1.0537376176257014,-0.2822193452678312,2,True
2021-11-19,1.0537376176257014,1.0573924646538109,0.3468460238085225,1,True
2021-11-20,1.0573924646538109,1.0579221357786295,0.05009219779072982,0,True
2021-11-21,1.0579221357786295,1.0579221357786295,0.0,0,False
2021-11-22,1.0579221357786295,1.0526409047408978,-0.49920791513117235,1,True
2021-11-23,1.0526409047408978,1.0526409047408978,0.0,0,False
2021-11-24,1.0526409047408978,1.0526409047408978,0.0,0,False
2021-11-25,1.0526409047408978,1.0549429382067947,0.21869124176432386,2,True
2021-11-26,1.0549429382067947,1.0351923887016325,-1.8721912617126413,8,True
2021-11-27,1.0351923887016325,1.0479614051895887,1.2334921148301037,0,True
2021-11-28,1.0479614051895887,1.042730446276438,-0.49915568333400717,1,True
2021-11-29,1.042730446276438,1.042730446276438,0.0,0,False
2021-11-30,1.042730446276438,1.042730446276438,0.0,0,False
2021-12-01,1.042730446276438,1.042730446276438,0.0,0,False
2021-12-02,1.042730446276438,1.0404750203006694,-0.2163000019633654,2,True
2021-12-03,1.0404750203006694,1.0345638680972398,-0.5681205303440628,1,True
2021-12-04,1.0345638680972398,0.961968280109075,-7.017023330003003,15,True
2021-12-05,0.961968280109075,0.9591118372763436,-0.29693732026252473,1,True
2021-12-06,0.9591118372763436,0.9465012591904588,-1.3148183137532743,7,True
2021-12-07,0.9465012591904588,0.9636032223401166,1.8068611091215159,0,True
2021-12-08,0.9636032223401166,0.9668562641141252,0.33759141715077323,1,True
2021-12-09,0.9668562641141252,0.9645888249468858,-0.23451667547677024,0,True
2021-12-10,0.9645888249468858,0.9597698432963975,-0.49958920587263034,1,True
2021-12-11,0.9597698432963975,0.9593822800458514,-0.04038085310276163,1,True
2021-12-12,0.9593822800458514,0.9608769201781525,0.1557919260536833,0,True
2021-12-13,0.9608769201781525,0.9575001584620373,-0.3514249999353902,1,True
2021-12-14,0.9575001584620373,0.9560779141718684,-0.14853723809856723,0,True
2021-12-15,0.9560779141718684,0.9560779141718684,0.0,0,False
2021-12-16,0.9560779141718684,0.9560779141718684,0.0,0,False
2021-12-17,0.9560779141718684,0.956319852664787,0.025305311348833293,2,True
2021-12-18,0.956319852664787,0.961822902854605,0.5754403377158601,0,True
2021-12-19,0.961822902854605,0.9588213895061107,-0.3120650734751762,1,True
2021-12-20,0.9588213895061107,0.957017159751352,-0.18817162137861887,0,True
2021-12-21,0.957017159751352,0.9544414256828658,-0.26914188969772157,1,True
2021-12-22,0.9544414256828658,0.9548726480586218,0.04518060136036173,0,True
2021-12-23,0.9548726480586218,0.9548726480586218,0.0,0,False
2021-12-24,0.9548726480586218,0.9548726480586218,0.0,0,False
2021-12-25,0.9548726480586218,0.9564192444638064,0.16196886656341114,1,True
2021-12-26,0.9564192444638064,0.9561001009394935,-0.03336858037521484,0,True
2021-12-27,0.9561001009394935,0.9561001009394935,0.0,0,False
2021-12-28,0.9561001009394935,0.9561001009394935,0.0,0,False
2021-12-29,0.9561001009394935,0.9561001009394935,0.0,0,False
2021-12-30,0.9561001009394935,0.9561001009394935,0.0,0,False
2021-12-31,0.9561001009394935,0.9561001009394935,0.0,0,False
2022-01-01,0.9561001009394935,0.9561001009394935,0.0,0,False
2022-01-02,0.9561001009394935,0.9561001009394935,0.0,0,False
2022-01-03,0.9561001009394935,0.9561001009394935,0.0,0,False
2022-01-04,0.9561001009394935,0.9561001009394935,0.0,0,False
2022-01-05,0.9561001009394935,0.9573273334168663,0.12835815791325533,1,True
2022-01-06,0.9573273334168663,0.9408815933108707,-1.7178805547416909,9,True
2022-01-07,0.9408815933108707,0.9512715579609166,1.1042797227528434,4,True
2022-01-08,0.9512715579609166,0.9521244231191786,0.08965527783570959,0,True
2022-01-09,0.9521244231191786,0.9526186373728162,0.05190647793893444,1,True
2022-01-10,0.9526186373728162,0.9540277543958928,0.14792037104824907,0,True
2022-01-11,0.9540277543958928,0.9540277543958928,0.0,0,False
2022-01-12,0.9540277543958928,0.9540277543958928,0.0,0,False
2022-01-13,0.9540277543958928,0.9540277543958928,0.0,0,False
2022-01-14,0.9540277543958928,0.9540277543958928,0.0,0,False
2022-01-15,0.9540277543958928,0.9543618359378874,0.03501801079215383,1,True
2022-01-16,0.9543618359378874,0.9533933114515867,-0.10148399169261912,0,True
2022-01-17,0.9533933114515867,0.9553559416719731,0.2058573515056672,1,True
2022-01-18,0.9553559416719731,0.9611645438816055,0.6080039863955555,0,True
2022-01-19,0.9611645438816055,0.9611645438816055,0.0,0,False
2022-01-20,0.9611645438816055,0.9611645438816055,0.0,0,False
2022-01-21,0.9611645438816055,0.9301069666478156,-3.2312445804925205,7,True
2022-01-22,0.9301069666478156,0.907819488046603,-2.3962274663460015,8,True
2022-01-23,0.907819488046603,0.9165798531253764,0.964989757779211,0,True
2022-01-24,0.9165798531253764,0.911023268103611,-0.6062303249213197,2,True
2022-01-25,0.911023268103611,0.9257330384861177,1.6146426658373514,0,True
2022-01-26,0.9257330384861177,0.9257330384861177,0.0,0,False
2022-01-27,0.9257330384861177,0.9382063156817613,1.3473946242689605,4,True
2022-01-28,0.9382063156817613,0.9261173032366872,-1.2885238825417034,0,True
2022-01-29,0.9261173032366872,0.9261173032366872,0.0,0,False
2022-01-30,0.9261173032366872,0.9324765210895003,0.6866536053897532,1,True
2022-01-31,0.9324765210895003,0.93127524418445,-0.12882650424771436,0,True
2022-02-01,0.93127524418445,0.93127524418445,0.0,0,False
2022-02-02,0.93127524418445,0.93127524418445,0.0,0,False
2022-02-03,0.93127524418445,0.9285541108126438,-0.29219432050823224,3,True
2022-02-04,0.9285541108126438,0.9343150147553221,0.6204166106848152,0,True
2022-02-05,0.9343150147553221,0.9343150147553221,0.0,0,False
2022-02-06,0.9343150147553221,0.9343150147553221,0.0,0,False
2022-02-07,0.9343150147553221,0.9343150147553221,0.0,0,False
2022-02-08,0.9343150147553221,0.9343150147553221,0.0,0,False
2022-02-09,0.9343150147553221,0.9365247961655504,0.23651352866325137,2,True
2022-02-10,0.9365247961655504,0.9379631614488654,0.15358539242145142,5,True
2022-02-11,0.9379631614488654,0.9354973139481212,-0.2628938536280212,0,True
2022-02-12,0.9354973139481212,0.9168551882357452,-1.9927503194744456,4,True
2022-02-13,0.9168551882357452,0.9168551882357452,0.0,0,False
2022-02-14,0.9168551882357452,0.9168551882357452,0.0,0,False
2022-02-15,0.9168551882357452,0.9168551882357452,0.0,0,False
2022-02-16,0.9168551882357452,0.9168551882357452,0.0,0,False
2022-02-17,0.9168551882357452,0.9168551882357452,0.0,0,False
2022-02-18,0.9168551882357452,0.9168551882357452,0.0,0,False
2022-02-19,0.9168551882357452,0.9168551882357452,0.0,0,False
2022-02-20,0.9168551882357452,0.9168551882357452,0.0,0,False
2022-02-21,0.9168551882357452,0.9168551882357452,0.0,0,False
2022-02-22,0.9168551882357452,0.9152499899451142,-0.17507653457464745,2,True
2022-02-23,0.9152499899451142,0.9144945985241248,-0.0825338901161432,0,True
2022-02-24,0.9144945985241248,0.8962813533470702,-1.991618671826878,4,True
2022-02-25,0.8962813533470702,0.8962813533470702,0.0,0,False
2022-02-26,0.8962813533470702,0.8962813533470702,0.0,0,False
2022-02-27,0.8962813533470702,0.8962813533470702,0.0,0,False
2022-02-28,0.8962813533470702,0.8983506779777176,0.2308789112837939,1,True
2022-03-01,0.8983506779777176,0.9009928453507238,0.2941131384187168,0,True
2022-03-02,0.9009928453507238,0.9009928453507238,0.0,0,False
2022-03-03,0.9009928453507238,0.9009928453507238,0.0,0,False
2022-03-04,0.9009928453507238,0.8992579876455257,-0.1925495539892741,1,True
2022-03-05,0.8992579876455257,0.8986602224086848,-0.06647316399223113,0,True
2022-03-06,0.8986602224086848,0.8926595974406139,-0.6677301185076923,3,True
2022-03-07,0.8926595974406139,0.8877857245989875,-0.5459945600316707,0,True
2022-03-08,0.8877857245989875,0.888696847425828,0.10262868635919631,1,True
2022-03-09,0.888696847425828,0.8966130858107392,0.8907692660147459,1,True
2022-03-10,0.8966130858107392,0.8941078467864261,-0.2794113831216083,3,True
2022-03-11,0.8941078467864261,0.8901607190363402,-0.4414599160797561,0,True
2022-03-12,0.8901607190363402,0.8901607190363402,0.0,0,False
2022-03-13,0.8901607190363402,0.8901607190363402,0.0,0,False
2022-03-14,0.8901607190363402,0.8857180708342297,-0.49908382914491956,1,True
2022-03-15,0.8857180708342297,0.88645201922592,0.08286478687276055,1,True
2022-03-16,0.88645201922592,0.8894412977118231,0.33721830635722316,1,True
2022-03-17,0.8894412977118231,0.8905765110680738,0.127632184290416,1,True
2022-03-18,0.8905765110680738,0.8897306465039857,-0.09497943787823981,0,True
2022-03-19,0.8897306465039857,0.8897306465039857,0.0,0,False
2022-03-20,0.8897306465039857,0.8852862495545343,-0.499521621168697,1,True
2022-03-21,0.8852862495545343,0.8849789332204158,-0.03471378147724691,3,True
2022-03-22,0.8849789332204158,0.8814727546578801,-0.3961877996097374,0,True
2022-03-23,0.8814727546578801,0.8814727546578801,0.0,0,False
2022-03-24,0.8814727546578801,0.8814727546578801,0.0,0,False
2022-03-25,0.8814727546578801,0.8814727546578801,0.0,0,False
2022-03-26,0.8814727546578801,0.8814727546578801,0.0,0,False
2022-03-27,0.8814727546578801,0.8814727546578801,0.0,0,False
2022-03-28,0.8814727546578801,0.8814727546578801,0.0,0,False
2022-03-29,0.8814727546578801,0.8814727546578801,0.0,0,False
2022-03-30,0.8814727546578801,0.8886952641392604,0.8193684312095995,4,True
2022-03-31,0.8886952641392604,0.8936090894213521,0.5529257868669868,5,True
2022-04-01,0.8936090894213521,0.8737075892613517,-2.227092404900155,0,True
2022-04-02,0.8737075892613517,0.8737075892613517,0.0,0,False
2022-04-03,0.8737075892613517,0.8693461578179208,-0.49918662685740633,1,True
2022-04-04,0.8693461578179208,0.8693461578179208,0.0,0,False
2022-04-05,0.8693461578179208,0.8690014751132001,-0.03964849923370206,3,True
2022-04-06,0.8690014751132001,0.8442963366245494,-2.842934010604825,7,True
2022-04-07,0.8442963366245494,0.8390243993164577,-0.6244178826084523,0,True
2022-04-08,0.8390243993164577,0.8390243993164577,0.0,0,False
2022-04-09,0.8390243993164577,0.8390243993164577,0.0,0,False
2022-04-10,0.8390243993164577,0.8390243993164577,0.0,0,False
2022-04-11,0.8390243993164577,0.8313893495759317,-0.909991383652986,6,True
2022-04-12,0.8313893495759317,0.8358916853149271,0.5415435910132826,0,True
2022-04-13,0.8358916853149271,0.8358916853149271,0.0,0,False
2022-04-14,0.8358916853149271,0.8358916853149271,0.0,0,False
2022-04-15,0.8358916853149271,0.8358916853149271,0.0,0,False
2022-04-16,0.8358916853149271,0.8358916853149271,0.0,0,False
2022-04-17,0.8358916853149271,0.8394130856031061,0.42127471178905473,1,True
2022-04-18,0.8394130856031061,0.8408098855586288,0.16640197531816447,6,True
2022-04-19,0.8408098855586288,0.85665476049056,1.8844777165534898,0,True
2022-04-20,0.85665476049056,0.85665476049056,0.0,0,False
2022-04-21,0.85665476049056,0.8587452361834476,0.24402779150967113,2,True
2022-04-22,0.8587452361834476,0.8544329021074594,-0.5021668702528848,0,True
2022-04-23,0.8544329021074594,0.8544329021074594,0.0,0,False
2022-04-24,0.8544329021074594,0.8544329021074594,0.0,0,False
2022-04-25,0.8544329021074594,0.849199274510559,-0.6125264586595014,3,True
2022-04-26,0.849199274510559,0.8521497580161134,0.34744300826856644,2,True
2022-04-27,0.8521497580161134,0.850966833252499,-0.13881653459226762,0,True
2022-04-28,0.850966833252499,0.850966833252499,0.0,0,False
2022-04-29,0.850966833252499,0.850966833252499,0.0,0,False
2022-04-30,0.850966833252499,0.8484588560602997,-0.2947209096990866,1,True
2022-05-01,0.8484588560602997,0.8531172544685678,0.5490423460129401,6,True
2022-05-02,0.8531172544685678,0.8609542328298149,0.9186285144506812,0,True
2022-05-03,0.8609542328298149,0.8617176526184003,0.08867135551169358,3,True
2022-05-04,0.8617176526184003,0.8549511164683548,-0.7852381960013033,1,True
2022-05-05,0.8549511164683548,0.8549511164683548,0.0,0,False
2022-05-06,0.8549511164683548,0.8438035284505387,-1.3038860120874074,4,True
2022-05-07,0.8438035284505387,0.8399379558739486,-0.458112871806593,2,True
2022-05-08,0.8399379558739486,0.8292338896248812,-1.2743877299758233,3,True
2022-05-09,0.8292338896248812,0.8202333497185537,-1.0854042531232122,3,True
2022-05-10,0.8202333497185537,0.802936864539752,-2.108727374318131,7,True
2022-05-11,0.802936864539752,0.7824429489284398,-2.5523694970786326,8,True
2022-05-12,0.7824429489284398,0.7742466228511488,-1.0475301858769326,0,True
2022-05-13,0.7742466228511488,0.7742466228511488,0.0,0,False
2022-05-14,0.7742466228511488,0.7645821727369922,-1.2482392339752568,4,True
2022-05-15,0.7645821727369922,0.7867498369762915,2.8993174350305795,1,True
2022-05-16,0.7867498369762915,0.7840349649756737,-0.34507436455937235,6,True
2022-05-17,0.7840349649756737,0.7912953809319704,0.926032164461188,4,True
2022-05-18,0.7912953809319704,0.777475474620271,-1.7464914676264875,0,True
2022-05-19,0.777475474620271,0.7912329874416518,1.7695108425253014,6,True
2022-05-20,0.7912329874416518,0.7995746977423934,1.054267255427943,0,True
2022-05-21,0.7995746977423934,0.7995746977423934,0.0,0,False
2022-05-22,0.7995746977423934,0.7995746977423934,0.0,0,False
2022-05-23,0.7995746977423934,0.7996486356112222,0.009247149645630337,1,True
2022-05-24,0.7996486356112222,0.7872450447541025,-1.5511301219990004,6,True
2022-05-25,0.7872450447541025,0.7857116260888964,-0.19478289198823218,1,True
2022-05-26,0.7857116260888964,0.7692343403306652,-2.09711619519386,8,True
2022-05-27,0.7692343403306652,0.7613098075520845,-1.030184478656293,2,True
2022-05-28,0.7613098075520845,0.7622339550100485,0.12138914391968125,0,True
2022-05-29,0.7622339550100485,0.7584326124805232,-0.49871073107405905,1,True
2022-05-30,0.7584326124805232,0.7584326124805232,0.0,0,False
2022-05-31,0.7584326124805232,0.756523960646522,-0.2516574053637699,1,True
2022-06-01,0.756523960646522,0.7603040660349989,0.4996676358071106,1,True
2022-06-02,0.7603040660349989,0.761187569313195,0.11620393966897957,1,True
2022-06-03,0.761187569313195,0.7624158848210888,0.16136830886532838,0,True
2022-06-04,0.7624158848210888,0.7624158848210888,0.0,0,False
2022-06-05,0.7624158848210888,0.7624158848210888,0.0,0,False
2022-06-06,0.7624158848210888,0.7639157550985342,0.19672600050788525,1,True
2022-06-07,0.7639157550985342,0.7607803719117173,-0.4104357274857362,4,True
2022-06-08,0.7607803719117173,0.7713982629260414,1.3956578542691611,3,True
2022-06-09,0.7713982629260414,0.7698770689112687,-0.1971995644639568,2,True
2022-06-10,0.7698770689112687,0.7666991267309753,-0.4127856652215378,4,True
2022-06-11,0.7666991267309753,0.7437021512789419,-2.999478498180519,3,True
2022-06-12,0.7437021512789419,0.7332466307781957,-1.4058747151350581,7,True
2022-06-13,0.7332466307781957,0.7065229829167482,-3.644564698931607,4,True
2022-06-14,0.7065229829167482,0.7148843290231892,1.183449980908291,4,True
2022-06-15,0.7148843290231892,0.7145733355061163,-0.04350263454477865,4,True
2022-06-16,0.7145733355061163,0.7225120925117103,1.1109786233446828,1,True
2022-06-17,0.7225120925117103,0.7240249247347875,0.20938503850060908,0,True
2022-06-18,0.7240249247347875,0.7191537058798951,-0.6727971218223883,4,True
2022-06-19,0.7191537058798951,0.7254183582929014,0.8711145283387456,1,True
2022-06-20,0.7254183582929014,0.7254183582929014,0.0,0,False
2022-06-21,0.7254183582929014,0.7254183582929014,0.0,0,False
2022-06-22,0.7254183582929014,0.7254183582929014,0.0,0,False
2022-06-23,0.7254183582929014,0.7254183582929014,0.0,0,False
2022-06-24,0.7254183582929014,0.7217985138537908,-0.49900094169508247,1,True
2022-06-25,0.7217985138537908,0.7205307995906434,-0.17563270619371796,3,True
2022-06-26,0.7205307995906434,0.7240726031220835,0.49155477232234457,0,True
2022-06-27,0.7240726031220835,0.7208171668524577,-0.44960080737608266,4,True
2022-06-28,0.7208171668524577,0.7177332243845198,-0.42783976433362625,1,True
2022-06-29,0.7177332243845198,0.7152320494480062,-0.3484825352286558,2,True
2022-06-30,0.7152320494480062,0.7153928888795954,0.02248772712483138,1,True
2022-07-01,0.7153928888795954,0.7151024297695683,-0.04060134152046313,1,True
2022-07-02,0.7151024297695683,0.713795174828001,-0.18280667036587595,1,True
2022-07-03,0.713795174828001,0.7146164311224612,0.11505489577707806,1,True
2022-07-04,0.7146164311224612,0.7172221491919959,0.3646317039536662,0,True
2022-07-05,0.7172221491919959,0.7172221491919959,0.0,0,False
2022-07-06,0.7172221491919959,0.7172221491919959,0.0,0,False
2022-07-07,0.7172221491919959,0.7172221491919959,0.0,0,False
2022-07-08,0.7172221491919959,0.7172221491919959,0.0,0,False
2022-07-09,0.7172221491919959,0.7172221491919959,0.0,0,False
2022-07-10,0.7172221491919959,0.7172221491919959,0.0,0,False
2022-07-11,0.7172221491919959,0.7136406043057744,-0.4993633967183553,1,True
2022-07-12,0.7136406043057744,0.714525850214557,0.12404646028287836,2,True
2022-07-13,0.714525850214557,0.7168869199472723,0.33043867230364565,4,True
2022-07-14,0.7168869199472723,0.7225259200587819,0.7865954803477848,0,True
2022-07-15,0.7225259200587819,0.7225259200587819,0.0,0,False
2022-07-16,0.7225259200587819,0.7225259200587819,0.0,0,False
2022-07-17,0.7225259200587819,0.7225259200587819,0.0,0,False
2022-07-18,0.7225259200587819,0.7225259200587819,0.0,0,False
2022-07-19,0.7225259200587819,0.7225259200587819,0.0,0,False
2022-07-20,0.7225259200587819,0.7225186323458522,-0.0010086438046563728,1,True
2022-07-21,0.7225186323458522,0.7170857833896553,-0.7519320212625802,5,True
2022-07-22,0.7170857833896553,0.7208526515088606,0.5253023008487734,0,True
2022-07-23,0.7208526515088606,0.7195834100692805,-0.17607501851083507,1,True
2022-07-24,0.7195834100692805,0.7230103092224668,0.4762337632070013,1,True
2022-07-25,0.7230103092224668,0.7235604533119767,0.07609076696313277,1,True
2022-07-26,0.7235604533119767,0.7211104193959429,-0.33860804647617426,1,True
2022-07-27,0.7211104193959429,0.7224219583805076,0.18187769158339862,0,True
2022-07-28,0.7224219583805076,0.7224219583805076,0.0,0,False
2022-07-29,0.7224219583805076,0.7224219583805076,0.0,0,False
2022-07-30,0.7224219583805076,0.7224219583805076,0.0,0,False
2022-07-31,0.7224219583805076,0.721647854444781,-0.10715398760331452,1,True
2022-08-01,0.721647854444781,0.721499613273658,-0.02054203725680992,1,True
2022-08-02,0.721499613273658,0.7203407861445742,-0.1606136867940644,1,True
2022-08-03,0.7203407861445742,0.72251449547181,0.3017612453780405,1,True
2022-08-04,0.72251449547181,0.7206432643762762,-0.2589887271828184,0,True
2022-08-05,0.7206432643762762,0.7220909841677173,0.20089271113830076,1,True
2022-08-06,0.7220909841677173,0.7219838692890705,-0.014833986435969226,0,True
2022-08-07,0.7219838692890705,0.7225546806902584,0.07906151722611998,2,True
2022-08-08,0.7225546806902584,0.7230361931924696,0.06664028551461865,0,True
2022-08-09,0.7230361931924696,0.7219454630535512,-0.15085415490784237,5,True
2022-08-10,0.7219454630535512,0.7448477476393406,3.172301199722405,1,True
2022-08-11,0.7448477476393406,0.7468505011893513,0.26888092987567,1,True
2022-08-12,0.7468505011893513,0.7455283544913246,-0.17702963255982196,1,True
2022-08-13,0.7455283544913246,0.7456170134324174,0.01189209512404421,0,True
2022-08-14,0.7456170134324174,0.7456170134324174,0.0,0,False
2022-08-15,0.7456170134324174,0.7456170134324174,0.0,0,False
2022-08-16,0.7456170134324174,0.7450454282430499,-0.07665935447693784,1,True
2022-08-17,0.7450454282430499,0.7426018595801377,-0.32797579453303083,1,True
2022-08-18,0.7426018595801377,0.7390222810736703,-0.4820319879741852,1,True
2022-08-19,0.7390222810736703,0.7226728480067351,-2.2123058378134774,10,True
2022-08-20,0.7226728480067351,0.7263218393220654,0.5049299036756105,1,True
2022-08-21,0.7263218393220654,0.7299917993970242,0.5052801494147996,0,True
2022-08-22,0.7299917993970242,0.7299917993970242,0.0,0,False
2022-08-23,0.7299917993970242,0.7299917993970242,0.0,0,False
2022-08-24,0.7299917993970242,0.7299917993970242,0.0,0,False
2022-08-25,0.7299917993970242,0.7286267434360096,-0.1869960679204974,1,True
2022-08-26,0.7286267434360096,0.7275111467462743,-0.15310948984311734,0,True
2022-08-27,0.7275111467462743,0.7207663904237371,-0.9271000661230322,3,True
2022-08-28,0.7207663904237371,0.7194516581347407,-0.1824075465316266,0,True
2022-08-29,0.7194516581347407,0.7193829774111903,-0.00954625967899414,1,True
2022-08-30,0.7193829774111903,0.7171529608229765,-0.3099901802290139,1,True
2022-08-31,0.7171529608229765,0.7171529608229765,0.0,0,False
2022-09-01,0.7171529608229765,0.7171529608229765,0.0,0,False
2022-09-02,0.7171529608229765,0.7171529608229765,0.0,0,False
2022-09-03,0.7171529608229765,0.7171529608229765,0.0,0,False
2022-09-04,0.7171529608229765,0.7171529608229765,0.0,0,False
2022-09-05,0.7171529608229765,0.7171529608229765,0.0,0,False
2022-09-06,0.7171529608229765,0.7156117624921509,-0.21490510602606427,1,True
2022-09-07,0.7156117624921509,0.7078327180382312,-1.0870481539918764,5,True
2022-09-08,0.7078327180382312,0.7083372328418918,0.07127599372049875,0,True
2022-09-09,0.7083372328418918,0.7083372328418918,0.0,0,False
2022-09-10,0.7083372328418918,0.7083372328418918,0.0,0,False
2022-09-11,0.7083372328418918,0.7083372328418918,0.0,0,False
2022-09-12,0.7083372328418918,0.7083372328418918,0.0,0,False
2022-09-13,0.7083372328418918,0.7035878896921585,-0.6704918123079051,4,True
2022-09-14,0.7035878896921585,0.7023917690078666,-0.17000302333447515,0,True
2022-09-15,0.7023917690078666,0.7034431554239818,0.1496866083155135,1,True
2022-09-16,0.7034431554239818,0.6968601050529086,-0.9358326000208805,1,True
2022-09-17,0.6968601050529086,0.6962556728026029,-0.08673652658875985,1,True
2022-09-18,0.6962556728026029,0.6972114239511488,0.1372701416849864,0,True
2022-09-19,0.6972114239511488,0.6989287220744781,0.24630952166522224,8,True
2022-09-20,0.6989287220744781,0.7008143616352738,0.26978996587792015,0,True
2022-09-21,0.7008143616352738,0.7008143616352738,0.0,0,False
2022-09-22,0.7008143616352738,0.7015075480610077,0.09891156113246424,1,True
2022-09-23,0.7015075480610077,0.7018134257219861,0.04360290374978426,0,True
2022-09-24,0.7018134257219861,0.7018134257219861,0.0,0,False
2022-09-25,0.7018134257219861,0.7018134257219861,0.0,0,False
2022-09-26,0.7018134257219861,0.7018134257219861,0.0,0,False
2022-09-27,0.7018134257219861,0.7018134257219861,0.0,0,False
2022-09-28,0.7018134257219861,0.7018134257219861,0.0,0,False
2022-09-29,0.7018134257219861,0.7018134257219861,0.0,0,False
2022-09-30,0.7018134257219861,0.7018134257219861,0.0,0,False
2022-10-01,0.7018134257219861,0.7018134257219861,0.0,0,False
2022-10-02,0.7018134257219861,0.7018134257219861,0.0,0,False
2022-10-03,0.7018134257219861,0.7018134257219861,0.0,0,False
2022-10-04,0.7018134257219861,0.7018134257219861,0.0,0,False
2022-10-05,0.7018134257219861,0.7018134257219861,0.0,0,False
2022-10-06,0.7018134257219861,0.7018134257219861,0.0,0,False
2022-10-07,0.7018134257219861,0.7018134257219861,0.0,0,False
2022-10-08,0.7018134257219861,0.7003196170275132,-0.21284983155404058,1,True
2022-10-09,0.7003196170275132,0.6994683993944988,-0.12154702114834937,0,True
2022-10-10,0.6994683993944988,0.6994683993944988,0.0,0,False
2022-10-11,0.6994683993944988,0.7161018776029464,2.3780171088281454,5,True
2022-10-12,0.7161018776029464,0.7122399970475046,-0.5392920583268013,2,True
2022-10-13,0.7122399970475046,0.7118638051504725,-0.052818136947030414,1,True
2022-10-14,0.7118638051504725,0.7180735576679815,0.8723231146997801,0,True
2022-10-15,0.7180735576679815,0.7180735576679815,0.0,0,False
2022-10-16,0.7180735576679815,0.7180735576679815,0.0,0,False
2022-10-17,0.7180735576679815,0.7180735576679815,0.0,0,False
2022-10-18,0.7180735576679815,0.7180735576679815,0.0,0,False
2022-10-19,0.7180735576679815,0.7180735576679815,0.0,0,False
2022-10-20,0.7180735576679815,0.7210529349071234,0.41491254027201663,2,True
2022-10-21,0.7210529349071234,0.7163431040476085,-0.6531879466133206,0,True
2022-10-22,0.7163431040476085,0.7163431040476085,0.0,0,False
2022-10-23,0.7163431040476085,0.7163431040476085,0.0,0,False
2022-10-24,0.7163431040476085,0.7163431040476085,0.0,0,False
2022-10-25,0.7163431040476085,0.7158320957528859,-0.07133568981612104,1,True
2022-10-26,0.7158320957528859,0.71691152812096,0.1507940723080914,0,True
2022-10-27,0.71691152812096,0.71691152812096,0.0,0,False
2022-10-28,0.71691152812096,0.71691152812096,0.0,0,False
2022-10-29,0.71691152812096,0.71691152812096,0.0,0,False
2022-10-30,0.71691152812096,0.71691152812096,0.0,0,False
2022-10-31,0.71691152812096,0.71691152812096,0.0,0,False
2022-11-01,0.71691152812096,0.71691152812096,0.0,0,False
2022-11-02,0.71691152812096,0.7198099705475287,0.40429569240789665,2,True
2022-11-03,0.7198099705475287,0.720056197207758,0.03420717554689645,0,True
2022-11-04,0.720056197207758,0.7201552754137949,0.013759787975020643,2,True
2022-11-05,0.7201552754137949,0.7188548617095261,-0.18057407182383578,0,True
2022-11-06,0.7188548617095261,0.7190348188702004,0.025033865702228653,1,True
2022-11-07,0.7190348188702004,0.7207505727800617,0.23861902995980788,3,True
2022-11-08,0.7207505727800617,0.6985338541624321,-3.082442034272115,6,True
2022-11-09,0.6985338541624321,0.6743480380817425,-3.4623684931762266,6,True
2022-11-10,0.6743480380817425,0.6743480380817425,0.0,0,False
2022-11-11,0.6743480380817425,0.6685211897491568,-0.8640713702023683,7,True
2022-11-12,0.6685211897491568,0.6659614110595551,-0.38290165350811645,5,True
2022-11-13,0.6659614110595551,0.6688883312985997,0.4395029787668703,1,True
2022-11-14,0.6688883312985997,0.6665666339586174,-0.347097898310611,2,True
2022-11-15,0.6665666339586174,0.6672050626040139,0.09577866830883242,0,True
2022-11-16,0.6672050626040139,0.6668113021912954,-0.05901640062228042,1,True
2022-11-17,0.6668113021912954,0.6677387577798555,0.1390881626499585,1,True
2022-11-18,0.6677387577798555,0.6692163233458371,0.22127898804231716,0,True
2022-11-19,0.6692163233458371,0.6688968221702959,-0.04774258552807664,3,True
2022-11-20,0.6688968221702959,0.6596616908436538,-1.380651099025687,2,True
2022-11-21,0.6596616908436538,0.6465107920950139,-1.9935823060788782,4,True
2022-11-22,0.6465107920950139,0.6439525443283756,-0.3957007056832551,0,True
2022-11-23,0.6439525443283756,0.6499052533734145,0.9244018208278915,1,True
2022-11-24,0.6499052533734145,0.6473946356114144,-0.3863051958679309,1,True
2022-11-25,0.6473946356114144,0.646203678018529,-0.18396160971594355,1,True
2022-11-26,0.646203678018529,0.6470706550317853,0.13416466707754093,0,True
2022-11-27,0.6470706550317853,0.6470706550317853,0.0,0,False
2022-11-28,0.6470706550317853,0.6473811929353004,0.047991343928255326,4,True
2022-11-29,0.6473811929353004,0.6498394502652322,0.3797233155300228,0,True
2022-11-30,0.6498394502652322,0.6498394502652322,0.0,0,False
2022-12-01,0.6498394502652322,0.6498394502652322,0.0,0,False
2022-12-02,0.6498394502652322,0.6498394502652322,0.0,0,False
2022-12-03,0.6498394502652322,0.6498394502652322,0.0,0,False
2022-12-04,0.6498394502652322,0.6498394502652322,0.0,0,False
2022-12-05,0.6498394502652322,0.6498394502652322,0.0,0,False
2022-12-06,0.6498394502652322,0.6504534365326908,0.09448276296677438,2,True
2022-12-07,0.6504534365326908,0.6472395660071028,-0.49409693993162085,1,True
2022-12-08,0.6472395660071028,0.6453941565524922,-0.28512000061972076,1,True
2022-12-09,0.6453941565524922,0.6453941565524922,0.0,0,False
2022-12-10,0.6453941565524922,0.6453941565524922,0.0,0,False
2022-12-11,0.6453941565524922,0.6453941565524922,0.0,0,False
2022-12-12,0.6453941565524922,0.6449657138565411,-0.06638465681805261,1,True
2022-12-13,0.6449657138565411,0.6449349116366391,-0.004775791835176513,0,True
2022-12-14,0.6449349116366391,0.6449349116366391,0.0,0,False
2022-12-15,0.6449349116366391,0.6449349116366391,0.0,0,False
2022-12-16,0.6449349116366391,0.6454298527830696,0.07674280574678782,5,True
2022-12-17,0.6454298527830696,0.6346712270116194,-1.6668931139549037,5,True
2022-12-18,0.6346712270116194,0.6351333837951584,0.07281829770588999,0,True
2022-12-19,0.6351333837951584,0.6351333837951584,0.0,0,False
2022-12-20,0.6351333837951584,0.6351333837951584,0.0,0,False
2022-12-21,0.6351333837951584,0.6351333837951584,0.0,0,False
2022-12-22,0.6351333837951584,0.6351333837951584,0.0,0,False
2022-12-23,0.6351333837951584,0.6351333837951584,0.0,0,False
2022-12-24,0.6351333837951584,0.6351333837951584,0.0,0,False
2022-12-25,0.6351333837951584,0.6351333837951584,0.0,0,False
2022-12-26,0.6351333837951584,0.6351333837951584,0.0,0,False
2022-12-27,0.6351333837951584,0.6351333837951584,0.0,0,False
2022-12-28,0.6351333837951584,0.6359244730866543,0.12455482764406334,4,True
2022-12-29,0.6359244730866543,0.6315929882093626,-0.6811319678054817,0,True
2022-12-30,0.6315929882093626,0.6315929882093626,0.0,0,False
2022-12-31,0.6315929882093626,0.6315929882093626,0.0,0,False
2023-01-01,0.6315929882093626,0.6315929882093626,0.0,0,False
2023-01-02,0.6315929882093626,0.6315929882093626,0.0,0,False
2023-01-03,0.6315929882093626,0.6315929882093626,0.0,0,False
2023-01-04,0.6315929882093626,0.6315929882093626,0.0,0,False
2023-01-05,0.6315929882093626,0.6315929882093626,0.0,0,False
2023-01-06,0.6315929882093626,0.6309982904554792,-0.09415838443195268,1,True
2023-01-07,0.6309982904554792,0.632067059837372,0.16937754001224992,0,True
2023-01-08,0.632067059837372,0.632067059837372,0.0,0,False
2023-01-09,0.632067059837372,0.632067059837372,0.0,0,False
2023-01-10,0.632067059837372,0.6319524926756982,-0.01812579217516097,1,True
2023-01-11,0.6319524926756982,0.6289899052385952,-0.46879907452526126,1,True
2023-01-12,0.6289899052385952,0.6295455901467575,0.08834560038788464,0,True
2023-01-13,0.6295455901467575,0.6295455901467575,0.0,0,False
2023-01-14,0.6295455901467575,0.6309521034779197,0.22341723191712237,4,True
2023-01-15,0.6309521034779197,0.6326108665481458,0.2628984135376822,1,True
2023-01-16,0.6326108665481458,0.6326096826637011,-0.00018714260334729005,0,True
2023-01-17,0.6326096826637011,0.6326096826637011,0.0,0,False
2023-01-18,0.6326096826637011,0.6326096826637011,0.0,0,False
2023-01-19,0.6326096826637011,0.6260536428899424,-1.0363483129365858,5,True
2023-01-20,0.6260536428899424,0.6260466777411139,-0.001112548246873235,0,True
2023-01-21,0.6260466777411139,0.6265762154465847,0.08458438073364327,1,True
2023-01-22,0.6265762154465847,0.6265013231745222,-0.011952619683963661,0,True
2023-01-23,0.6265013231745222,0.6265013231745222,0.0,0,False
2023-01-24,0.6265013231745222,0.6265013231745222,0.0,0,False
2023-01-25,0.6265013231745222,0.6251534019391572,-0.2151505807737153,6,True
2023-01-26,0.6251534019391572,0.6389595566787167,2.2084427112984306,0,True
2023-01-27,0.6389595566787167,0.6389595566787167,0.0,0,False
2023-01-28,0.6389595566787167,0.6389595566787167,0.0,0,False
2023-01-29,0.6389595566787167,0.6389595566787167,0.0,0,False
2023-01-30,0.6389595566787167,0.6410486692215034,0.32695536375506595,4,True
2023-01-31,0.6410486692215034,0.6444937821435379,0.5374183096297891,2,True
2023-02-01,0.6444937821435379,0.652421579873443,1.2300813366325603,0,True
2023-02-02,0.652421579873443,0.652421579873443,0.0,0,False
2023-02-03,0.652421579873443,0.6526985664596334,0.042455153957998704,1,True
2023-02-04,0.6526985664596334,0.6539810219768074,0.19648511320169426,0,True
2023-02-05,0.6539810219768074,0.6554148642597235,0.21924830151522912,5,True
2023-02-06,0.6554148642597235,0.6488798729859171,-0.9970770622035774,0,True
2023-02-07,0.6488798729859171,0.6488798729859171,0.0,0,False
2023-02-08,0.6488798729859171,0.647307037232462,-0.24239243948459555,1,True
2023-02-09,0.647307037232462,0.6510828213887484,0.5833065205701482,4,True
2023-02-10,0.6510828213887484,0.6233414609188912,-4.260803627207577,3,True
2023-02-11,0.6233414609188912,0.6233414609188912,0.0,0,False
2023-02-12,0.6233414609188912,0.6233414609188912,0.0,0,False
2023-02-13,0.6233414609188912,0.6234436316704514,0.01639081594373426,2,True
2023-02-14,0.6234436316704514,0.6231636189317538,-0.044913882261865545,0,True
2023-02-15,0.6231636189317538,0.6231636189317538,0.0,0,False
2023-02-16,0.6231636189317538,0.6231636189317538,0.0,0,False
2023-02-17,0.6231636189317538,0.6269934845435001,0.6145842753644049,1,True
2023-02-18,0.6269934845435001,0.626305495663325,-0.10972823436530277,0,True
2023-02-19,0.626305495663325,0.626305495663325,0.0,0,False
2023-02-20,0.626305495663325,0.6305008338202439,0.669854916804713,1,True
2023-02-21,0.6305008338202439,0.6271996980248586,-0.5235735812407216,1,True
2023-02-22,0.6271996980248586,0.6271996980248586,0.0,0,False
2023-02-23,0.6271996980248586,0.6312334604977504,0.6431384590258382,1,True
2023-02-24,0.6312334604977504,0.6306866548924247,-0.08662493982726227,0,True
2023-02-25,0.6306866548924247,0.6302984999534115,-0.06154481563898084,1,True
2023-02-26,0.6302984999534115,0.6308264621804527,0.08376384000283732,0,True
2023-02-27,0.6308264621804527,0.6308264621804527,0.0,0,False
2023-02-28,0.6308264621804527,0.6308264621804527,0.0,0,False
2023-03-01,0.6308264621804527,0.6308264621804527,0.0,0,False
2023-03-02,0.6308264621804527,0.62859590109281,-0.3535934557869824,1,True
2023-03-03,0.62859590109281,0.6212379412926176,-1.1705389404227273,9,True
2023-03-04,0.6212379412926176,0.6228005076674762,0.25152462059985226,0,True
2023-03-05,0.6228005076674762,0.6271856660815678,0.7041032176603235,3,True
2023-03-06,0.6271856660815678,0.626112642398907,-0.1710854920146221,0,True
2023-03-07,0.626112642398907,0.626112642398907,0.0,0,False
2023-03-08,0.626112642398907,0.626112642398907,0.0,0,False
2023-03-09,0.626112642398907,0.626112642398907,0.0,0,False
2023-03-10,0.626112642398907,0.6116316244865552,-2.3128454740777626,7,True
2023-03-11,0.6116316244865552,0.6083998344286051,-0.5283883188124894,5,True
2023-03-12,0.6083998344286051,0.6135305413891151,0.843311695725335,0,True
2023-03-13,0.6135305413891151,0.6135305413891151,0.0,0,False
2023-03-14,0.6135305413891151,0.6135305413891151,0.0,0,False
2023-03-15,0.6135305413891151,0.6104645092606632,-0.4997358601757651,1,True
2023-03-16,0.6104645092606632,0.6108808049946305,0.0681932737533586,1,True
2023-03-17,0.6108808049946305,0.6108610933068729,-0.0032267649591299907,1,True
2023-03-18,0.6108610933068729,0.6199933267804116,1.4949771025851044,1,True
2023-03-19,0.6199933267804116,0.6175352968717129,-0.3964607040954915,1,True
2023-03-20,0.6175352968717129,0.6175229622500784,-0.0019973954034746555,0,True
2023-03-21,0.6175229622500784,0.6175229622500784,0.0,0,False
2023-03-22,0.6175229622500784,0.6175229622500784,0.0,0,False
2023-03-23,0.6175229622500784,0.6276153616761877,1.6343358940589692,6,True
2023-03-24,0.6276153616761877,0.6257005010292488,-0.30510098443493616,1,True
2023-03-25,0.6257005010292488,0.6231470900983136,-0.40808836284051964,1,True
2023-03-26,0.6231470900983136,0.6225754041799162,-0.09174172959826032,0,True
2023-03-27,0.6225754041799162,0.6194688413335752,-0.4989857976212764,1,True
2023-03-28,0.6194688413335752,0.6284503014005512,1.4498647014498767,4,True
2023-03-29,0.6284503014005512,0.6286632145680474,0.03387907795122658,0,True
2023-03-30,0.6286632145680474,0.6286632145680474,0.0,0,False
2023-03-31,0.6286632145680474,0.6286632145680474,0.0,0,False
2023-04-01,0.6286632145680474,0.6286632145680474,0.0,0,False
2023-04-02,0.6286632145680474,0.6286632145680474,0.0,0,False
2023-04-03,0.6286632145680474,0.6286632145680474,0.0,0,False
2023-04-04,0.6286632145680474,0.6286632145680474,0.0,0,False
2023-04-05,0.6286632145680474,0.6286632145680474,0.0,0,False
2023-04-06,0.6286632145680474,0.6286632145680474,0.0,0,False
2023-04-07,0.6286632145680474,0.626986483197214,-0.2667137716950041,1,True
2023-04-08,0.626986483197214,0.6266118438780669,-0.05975237571895775,0,True
2023-04-09,0.6266118438780669,0.6266118438780669,0.0,0,False
2023-04-10,0.6266118438780669,0.6266118438780669,0.0,0,False
2023-04-11,0.6266118438780669,0.6266118438780669,0.0,0,False
2023-04-12,0.6266118438780669,0.6289052330005995,0.3659983680389667,1,True
2023-04-13,0.6289052330005995,0.6291268757652927,0.035242633239929155,0,True
2023-04-14,0.6291268757652927,0.6324815774606382,0.5332313440376657,1,True
2023-04-15,0.6324815774606382,0.6321149738830097,-0.05796272819522663,0,True
2023-04-16,0.6321149738830097,0.6321149738830097,0.0,0,False
2023-04-17,0.6321149738830097,0.6321149738830097,0.0,0,False
2023-04-18,0.6321149738830097,0.6321149738830097,0.0,0,False
2023-04-19,0.6321149738830097,0.6271752738046248,-0.7814559506541863,7,True
2023-04-20,0.6271752738046248,0.6213276024897627,-0.9323823114690821,0,True
2023-04-21,0.6213276024897627,0.6213276024897627,0.0,0,False
2023-04-22,0.6213276024897627,0.6213276024897627,0.0,0,False
2023-04-23,0.6213276024897627,0.6213276024897627,0.0,0,False
2023-04-24,0.6213276024897627,0.6213276024897627,0.0,0,False
2023-04-25,0.6213276024897627,0.6213276024897627,0.0,0,False
2023-04-26,0.6213276024897627,0.6213276024897627,0.0,0,False
2023-04-27,0.6213276024897627,0.6174894421978909,-0.6177353583667666,8,True
2023-04-28,0.6174894421978909,0.6239490534668255,1.046108779761834,0,True
2023-04-29,0.6239490534668255,0.6239490534668255,0.0,0,False
2023-04-30,0.6239490534668255,0.6239490534668255,0.0,0,False
2023-05-01,0.6239490534668255,0.6239490534668255,0.0,0,False
2023-05-02,0.6239490534668255,0.6239490534668255,0.0,0,False
2023-05-03,0.6239490534668255,0.6239490534668255,0.0,0,False
2023-05-04,0.6239490534668255,0.6239490534668255,0.0,0,False
2023-05-05,0.6239490534668255,0.6239490534668255,0.0,0,False
2023-05-06,0.6239490534668255,0.620837458352694,-0.49869377905819023,1,True
2023-05-07,0.620837458352694,0.620837458352694,0.0,0,False
2023-05-08,0.620837458352694,0.6314415196859533,1.7080253761420527,5,True
2023-05-09,0.6314415196859533,0.6195110251629696,-1.8894060892475473,4,True
2023-05-10,0.6195110251629696,0.6150301922992325,-0.7232854108703557,1,True
2023-05-11,0.6150301922992325,0.6112515935145176,-0.6143761447855001,5,True
2023-05-12,0.6112515935145176,0.6090510730514096,-0.3600024092298426,0,True
2023-05-13,0.6090510730514096,0.6090510730514096,0.0,0,False
2023-05-14,0.6090510730514096,0.6090510730514096,0.0,0,False
2023-05-15,0.6090510730514096,0.6090510730514096,0.0,0,False
2023-05-16,0.6090510730514096,0.6090510730514096,0.0,0,False
2023-05-17,0.6090510730514096,0.6090510730514096,0.0,0,False
2023-05-18,0.6090510730514096,0.607569446093796,-0.2432680974011725,1,True
2023-05-19,0.607569446093796,0.6060068763497654,-0.2571837267454469,0,True
2023-05-20,0.6060068763497654,0.6060068763497654,0.0,0,False
2023-05-21,0.6060068763497654,0.6060068763497654,0.0,0,False
2023-05-22,0.6060068763497654,0.6060068763497654,0.0,0,False
2023-05-23,0.6060068763497654,0.6060068763497654,0.0,0,False
2023-05-24,0.6060068763497654,0.6060068763497654,0.0,0,False
2023-05-25,0.6060068763497654,0.6060068763497654,0.0,0,False
2023-05-26,0.6060068763497654,0.6071061281093546,0.18139262151783964,1,True
2023-05-27,0.6071061281093546,0.6111485092733225,0.6658442365845785,0,True
2023-05-28,0.6111485092733225,0.6111485092733225,0.0,0,False
2023-05-29,0.6111485092733225,0.6111485092733225,0.0,0,False
2023-05-30,0.6111485092733225,0.6132734075520317,0.34768934988254063,2,True
2023-05-31,0.6132734075520317,0.6080624351060945,-0.8496980925257525,1,True
2023-06-01,0.6080624351060945,0.6077871049633228,-0.04527991319240865,0,True
2023-06-02,0.6077871049633228,0.6077871049633228,0.0,0,False
2023-06-03,0.6077871049633228,0.6077871049633228,0.0,0,False
2023-06-04,0.6077871049633228,0.6047492272844028,-0.49982595124378193,1,True
2023-06-05,0.6047492272844028,0.6047492272844028,0.0,0,False
2023-06-06,0.6047492272844028,0.6028465431002166,-0.3146236652058487,8,True
2023-06-07,0.6028465431002166,0.602598130166357,-0.04120666141371743,0,True
2023-06-08,0.602598130166357,0.602598130166357,0.0,0,False
2023-06-09,0.602598130166357,0.602598130166357,0.0,0,False
2023-06-10,0.602598130166357,0.6072812376009941,0.7771526661299433,6,True
2023-06-11,0.6072812376009941,0.608150758915937,0.14318264110675383,1,True
2023-06-12,0.608150758915937,0.6081467397654857,-0.0006608806109809073,0,True
2023-06-13,0.6081467397654857,0.6081467397654857,0.0,0,False
2023-06-14,0.6081467397654857,0.6081467397654857,0.0,0,False
2023-06-15,0.6081467397654857,0.6104811097754718,0.3838497943582153,4,True
2023-06-16,0.6104811097754718,0.615007631567443,0.7414679536335012,0,True
2023-06-17,0.615007631567443,0.615007631567443,0.0,0,False
2023-06-18,0.615007631567443,0.615007631567443,0.0,0,False
2023-06-19,0.615007631567443,0.615007631567443,0.0,0,False
2023-06-20,0.615007631567443,0.6119378008540874,-0.49915327156698774,1,True
2023-06-21,0.6119378008540874,0.6119378008540874,0.0,0,False
2023-06-22,0.6119378008540874,0.6119378008540874,0.0,0,False
2023-06-23,0.6119378008540874,0.6119378008540874,0.0,0,False
2023-06-24,0.6119378008540874,0.6119378008540874,0.0,0,False
2023-06-25,0.6119378008540874,0.6110239745865292,-0.1493331946944232,3,True
2023-06-26,0.6110239745865292,0.6091015514044639,-0.31462320007430433,0,True
2023-06-27,0.6091015514044639,0.6091015514044639,0.0,0,False
2023-06-28,0.6091015514044639,0.6091015514044639,0.0,0,False
2023-06-29,0.6091015514044639,0.6070277604814056,-0.3404671878238563,2,True
2023-06-30,0.6070277604814056,0.6028667128029206,-0.6854789763132252,6,True
2023-07-01,0.6028667128029206,0.6112962145852725,1.3982363934410103,0,True
2023-07-02,0.6112962145852725,0.6112962145852725,0.0,0,False
2023-07-03,0.6112962145852725,0.6112962145852725,0.0,0,False
2023-07-04,0.6112962145852725,0.6112962145852725,0.0,0,False
2023-07-05,0.6112962145852725,0.611629022338817,0.05444295999286197,1,True
2023-07-06,0.611629022338817,0.6117628257168836,0.021876558040845318,1,True
2023-07-07,0.6117628257168836,0.6112939931571304,-0.0766363270281678,0,True
2023-07-08,0.6112939931571304,0.6112939931571304,0.0,0,False
2023-07-09,0.6112939931571304,0.6112939931571304,0.0,0,False
2023-07-10,0.6112939931571304,0.6112939931571304,0.0,0,False
2023-07-11,0.6112939931571304,0.6112939931571304,0.0,0,False
2023-07-12,0.6112939931571304,0.6103234072420962,-0.15877563429363972,1,True
2023-07-13,0.6103234072420962,0.6099503569792799,-0.0611233746550921,0,True
2023-07-14,0.6099503569792799,0.6099503569792799,0.0,0,False
2023-07-15,0.6099503569792799,0.6152970912107402,0.8765851466895569,5,True
2023-07-16,0.6152970912107402,0.6159801754967087,0.11101698605862076,1,True
2023-07-17,0.6159801754967087,0.6167255322063516,0.12100336005811396,0,True
2023-07-18,0.6167255322063516,0.6167255322063516,0.0,0,False
2023-07-19,0.6167255322063516,0.6167255322063516,0.0,0,False
2023-07-20,0.6167255322063516,0.6167255322063516,0.0,0,False
2023-07-21,0.6167255322063516,0.6167255322063516,0.0,0,False
2023-07-22,0.6167255322063516,0.6167255322063516,0.0,0,False
2023-07-23,0.6167255322063516,0.6167255322063516,0.0,0,False
2023-07-24,0.6167255322063516,0.6164130688840523,-0.05066489158984666,2,True
2023-07-25,0.6164130688840523,0.6163635927576598,-0.008026456428333884,0,True
2023-07-26,0.6163635927576598,0.6163635927576598,0.0,0,False
2023-07-27,0.6163635927576598,0.6163635927576598,0.0,0,False
2023-07-28,0.6163635927576598,0.6163635927576598,0.0,0,False
2023-07-29,0.6163635927576598,0.6163635927576598,0.0,0,False
2023-07-30,0.6163635927576598,0.6163635927576598,0.0,0,False
2023-07-31,0.6163635927576598,0.6132890040191166,-0.498827116765177,1,True
2023-08-01,0.6132890040191166,0.6103030913088741,-0.48686878301660297,2,True
2023-08-02,0.6103030913088741,0.6132427722768484,0.4816755821553942,0,True
2023-08-03,0.6132427722768484,0.6132427722768484,0.0,0,False
2023-08-04,0.6132427722768484,0.6132427722768484,0.0,0,False
2023-08-05,0.6132427722768484,0.6132427722768484,0.0,0,False
2023-08-06,0.6132427722768484,0.6132427722768484,0.0,0,False
2023-08-07,0.6132427722768484,0.6134265406630602,0.02996666157670802,1,True
2023-08-08,0.6134265406630602,0.6122059171173854,-0.19898446916813972,1,True
2023-08-09,0.6122059171173854,0.6122859893428789,0.013079296239171256,0,True
2023-08-10,0.6122859893428789,0.6096334369897799,-0.43322114163445447,1,True
2023-08-11,0.6096334369897799,0.6092259542516033,-0.06684061494209859,0,True
2023-08-12,0.6092259542516033,0.6092259542516033,0.0,0,False
2023-08-13,0.6092259542516033,0.6108281604559792,0.26299047064468617,1,True
2023-08-14,0.6108281604559792,0.6103344076162934,-0.08083334588195878,0,True
2023-08-15,0.6103344076162934,0.6103344076162934,0.0,0,False
2023-08-16,0.6103344076162934,0.6089681675249997,-0.22385106824136525,6,True
2023-08-17,0.6089681675249997,0.6115656815794602,0.4265434866681961,4,True
2023-08-18,0.6115656815794602,0.6243722530304694,2.094063129561863,5,True
2023-08-19,0.6243722530304694,0.6247559156821573,0.06144774208427517,0,True
2023-08-20,0.6247559156821573,0.6247559156821573,0.0,0,False
2023-08-21,0.6247559156821573,0.6247559156821573,0.0,0,False
2023-08-22,0.6247559156821573,0.6251438459134052,0.06209308651754508,1,True
2023-08-23,0.6251438459134052,0.6257030126285583,0.08944608809771104,0,True
2023-08-24,0.6257030126285583,0.6257030126285583,0.0,0,False
2023-08-25,0.6257030126285583,0.6139908127459233,-1.8718464904671772,4,True
2023-08-26,0.6139908127459233,0.615610378904685,0.263776936908644,0,True
2023-08-27,0.615610378904685,0.615610378904685,0.0,0,False
2023-08-28,0.615610378904685,0.6139682392498044,-0.266749832548685,1,True
2023-08-29,0.6139682392498044,0.6179951889434863,0.6558889265350754,1,True
2023-08-30,0.6179951889434863,0.6153951921374449,-0.4207147325024141,1,True
2023-08-31,0.6153951921374449,0.618444308248711,0.49547285227817817,1,True
2023-09-01,0.618444308248711,0.6173886187221168,-0.1707008234231533,0,True
2023-09-02,0.6173886187221168,0.6156255960358448,-0.2855612547444042,1,True
2023-09-03,0.6156255960358448,0.6170952560580882,0.23872626994507762,0,True
2023-09-04,0.6170952560580882,0.6156165084138813,-0.23963036981566876,2,True
2023-09-05,0.6156165084138813,0.6177340016059898,0.3439630294457485,0,True
2023-09-06,0.6177340016059898,0.61751779551791,-0.0349998684737618,2,True
2023-09-07,0.61751779551791,0.6173283402171021,-0.030680136213556697,1,True
2023-09-08,0.6173283402171021,0.6166934789915517,-0.10284012318747537,1,True
2023-09-09,0.6166934789915517,0.6158921309316674,-0.12994268419940225,2,True
2023-09-10,0.6158921309316674,0.6093642104513061,-1.0599129543165997,3,True
2023-09-11,0.6093642104513061,0.6072988779043684,-0.33893236778839153,0,True
2023-09-12,0.6072988779043684,0.6072988779043684,0.0,0,False
2023-09-13,0.6072988779043684,0.6072988779043684,0.0,0,False
2023-09-14,0.6072988779043684,0.60787631621468,0.09508305240151227,2,True
2023-09-15,0.60787631621468,0.6154483698689212,1.24565696215857,0,True
2023-09-16,0.6154483698689212,0.6129791920282507,-0.4011998343900647,2,True
2023-09-17,0.6129791920282507,0.6130588661332826,0.012997848225215769,1,True
2023-09-18,0.6130588661332826,0.6130588661332826,0.0,0,False
2023-09-19,0.6130588661332826,0.6130588661332826,0.0,0,False
2023-09-20,0.6130588661332826,0.6141194156169644,0.1729930912460098,1,True
2023-09-21,0.6141194156169644,0.609994796587133,-0.6716314327381512,0,True
2023-09-22,0.609994796587133,0.6163160272816436,1.036276166596406,1,True
2023-09-23,0.6163160272816436,0.6156929182419857,-0.10110219628819417,0,True
2023-09-24,0.6156929182419857,0.6126195121690992,-0.4991784023864021,1,True
2023-09-25,0.6126195121690992,0.6124036200226421,-0.03524082112444926,1,True
2023-09-26,0.6124036200226421,0.6124970934117581,0.015263363255835216,0,True
2023-09-27,0.6124970934117581,0.6124970934117581,0.0,0,False
2023-09-28,0.6124970934117581,0.6124970934117581,0.0,0,False
2023-09-29,0.6124970934117581,0.6094432025913437,-0.4985967857257023,1,True
2023-09-30,0.6094432025913437,0.6094432025913437,0.0,0,False
2023-10-01,0.6094432025913437,0.6090556979833187,-0.06358338338622316,1,True
2023-10-02,0.6090556979833187,0.6106504084769165,0.26183327713347193,0,True
2023-10-03,0.6106504084769165,0.6081897489222963,-0.40295716181663055,2,True
2023-10-04,0.6081897489222963,0.6030155056812501,-0.8507613372660261,3,True
2023-10-05,0.6030155056812501,0.5985079607331643,-0.7475006704833365,0,True
2023-10-06,0.5985079607331643,0.5985079607331643,0.0,0,False
2023-10-07,0.5985079607331643,0.59691497312017,-0.26615980362949543,1,True
2023-10-08,0.59691497312017,0.5954001426834119,-0.2537765854389251,1,True
2023-10-09,0.5954001426834119,0.5942875728566696,-0.18686085994674695,1,True
2023-10-10,0.5942875728566696,0.592363823852021,-0.3237067528437998,1,True
2023-10-11,0.592363823852021,0.5922713269363284,-0.01561488260560795,0,True
2023-10-12,0.5922713269363284,0.5922713269363284,0.0,0,False
2023-10-13,0.5922713269363284,0.5922713269363284,0.0,0,False
2023-10-14,0.5922713269363284,0.5922713269363284,0.0,0,False
2023-10-15,0.5922713269363284,0.5922713269363284,0.0,0,False
2023-10-16,0.5922713269363284,0.5922713269363284,0.0,0,False
2023-10-17,0.5922713269363284,0.5922713269363284,0.0,0,False
2023-10-18,0.5922713269363284,0.5896174054025932,-0.4480921856310882,3,True
2023-10-19,0.5896174054025932,0.5829123432779153,-1.137188635077635,3,True
2023-10-20,0.5829123432779153,0.5820969105051637,-0.13988943314635627,0,True
2023-10-21,0.5820969105051637,0.5822487899541996,0.026091780645964846,2,True
2023-10-22,0.5822487899541996,0.5818746904788298,-0.06425079481904294,0,True
2023-10-23,0.5818746904788298,0.5818746904788298,0.0,0,False
2023-10-24,0.5818746904788298,0.5807583288981422,-0.19185601280732323,1,True
2023-10-25,0.5807583288981422,0.5844104765786106,0.6288584250522034,3,True
2023-10-26,0.5844104765786106,0.5815110710658821,-0.4961248350137115,1,True
2023-10-27,0.5815110710658821,0.5773279706398103,-0.7193500922354379,5,True
2023-10-28,0.5773279706398103,0.5770648543360858,-0.045574840836648534,1,True
2023-10-29,0.5770648543360858,0.5778773948309106,0.14080574977306526,0,True
2023-10-30,0.5778773948309106,0.5778773948309106,0.0,0,False
2023-10-31,0.5778773948309106,0.5765308157524841,-0.233021587359461,1,True
2023-11-01,0.5765308157524841,0.5751855711008828,-0.23333438817932928,1,True
2023-11-02,0.5751855711008828,0.5746057095691266,-0.10081294818407027,2,True
2023-11-03,0.5746057095691266,0.573149888953696,-0.25335992858863676,0,True
2023-11-04,0.573149888953696,0.5728313129831195,-0.05558336077811088,1,True
2023-11-05,0.5728313129831195,0.5748439450979405,0.35134813150137223,1,True
2023-11-06,0.5748439450979405,0.5681561870637603,-1.1634041014454422,2,True
2023-11-07,0.5681561870637603,0.5636412692320099,-0.7946613861733232,2,True
2023-11-08,0.5636412692320099,0.5643873807367168,0.13237346969350305,0,True
2023-11-09,0.5643873807367168,0.5643873807367168,0.0,0,False
2023-11-10,0.5643873807367168,0.5643359829742327,-0.009106823475923953,6,True
2023-11-11,0.5643359829742327,0.5663656730629327,0.3596598746021584,0,True
2023-11-12,0.5663656730629327,0.5669958289382103,0.11126307706286198,1,True
2023-11-13,0.5669958289382103,0.5677594062308948,0.13467070721038255,1,True
2023-11-14,0.5677594062308948,0.566902698728654,-0.1508927008234351,2,True
2023-11-15,0.566902698728654,0.5638975416846951,-0.5301010298060516,1,True
2023-11-16,0.5638975416846951,0.5632640020522779,-0.11235013199817345,0,True
2023-11-17,0.5632640020522779,0.5632727130869005,0.0015465278432325036,2,True
2023-11-18,0.5632727130869005,0.5618391617235352,-0.254503960525454,3,True
2023-11-19,0.5618391617235352,0.559543810405951,-0.40854242173913313,2,True
2023-11-20,0.559543810405951,0.560545897002873,0.17908992616593178,0,True
2023-11-21,0.560545897002873,0.56391173785727,0.6004576739199186,2,True
2023-11-22,0.56391173785727,0.5632419559784915,-0.11877423962188827,4,True
2023-11-23,0.5632419559784915,0.5630206520901926,-0.039291087240544975,2,True
2023-11-24,0.5630206520901926,0.5698446455435742,1.21203252989881,1,True
2023-11-25,0.5698446455435742,0.5711433505782758,0.22790510446277779,2,True
2023-11-26,0.5711433505782758,0.5700241809749556,-0.19595248761753448,0,True
2023-11-27,0.5700241809749556,0.5700241809749556,0.0,0,False
2023-11-28,0.5700241809749556,0.570050665552567,0.004646220019322023,1,True
2023-11-29,0.570050665552567,0.571534468422383,0.2602931562894817,1,True
2023-11-30,0.571534468422383,0.571529391586139,-0.000888281726552087,0,True
2023-12-01,0.571529391586139,0.571529391586139,0.0,0,False
2023-12-02,0.571529391586139,0.571529391586139,0.0,0,False
2023-12-03,0.571529391586139,0.5719483355391926,0.07330225868014129,1,True
2023-12-04,0.5719483355391926,0.5761267284968549,0.7305542647874308,3,True
2023-12-05,0.5761267284968549,0.5773631652285405,0.21461193701453052,0,True
2023-12-06,0.5773631652285405,0.5748288196815533,-0.4389517204451354,1,True
2023-12-07,0.5748288196815533,0.5744174233675571,-0.07156849133349574,2,True
2023-12-08,0.5744174233675571,0.5750967084317588,0.11825634748670044,0,True
2023-12-09,0.5750967084317588,0.5750967084317588,0.0,0,False
2023-12-10,0.5750967084317588,0.5736254360878238,-0.2558304233642672,1,True
2023-12-11,0.5736254360878238,0.5738214205805591,0.034165934842755874,5,True
2023-12-12,0.5738214205805591,0.5784903086533799,0.8136482719828031,0,True
2023-12-13,0.5784903086533799,0.5793355410575267,0.14611003702280634,3,True
2023-12-14,0.5793355410575267,0.583380496039435,0.6982059092256909,0,True
2023-12-15,0.583380496039435,0.583380496039435,0.0,0,False
2023-12-16,0.583380496039435,0.5891093880484408,0.9820163766014245,3,True
2023-12-17,0.5891093880484408,0.5823496785776061,-1.1474455522136218,2,True
2023-12-18,0.5823496785776061,0.5820750699053722,-0.04715528870981034,2,True
2023-12-19,0.5820750699053722,0.6026785414349252,3.5396588163280285,1,True
2023-12-20,0.6026785414349252,0.604260636198773,0.26251055165844583,0,True
2023-12-21,0.604260636198773,0.6034643927536286,-0.13177152332035647,1,True
2023-12-22,0.6034643927536286,0.6020795262965241,-0.22948602663785955,0,True
2023-12-23,0.6020795262965241,0.601861934291381,-0.03614007712261502,1,True
2023-12-24,0.601861934291381,0.6015740796159061,-0.04782736024231404,1,True
2023-12-25,0.6015740796159061,0.6066221963828878,0.8391513095452607,1,True
2023-12-26,0.6066221963828878,0.6061116233146424,-0.08416656549823376,0,True
2023-12-27,0.6061116233146424,0.6023716429247196,-0.6170448224487091,7,True
2023-12-28,0.6023716429247196,0.6043927588619868,0.335526408157949,1,True
2023-12-29,0.6043927588619868,0.6109809991731392,1.0900594380973905,0,True
2023-12-30,0.6109809991731392,0.6103906432409796,-0.09662427030604492,1,True
2023-12-31,0.6103906432409796,0.6107870828881552,0.06494851314735595,0,True
