day,start_equity,end_equity,return_pct,entries,active
2021-09-02,1.0,1.0,0.0,0,False
2021-09-03,1.0,1.0,0.0,0,False
2021-09-04,1.0,1.0,0.0,0,False
2021-09-05,1.0,1.0,0.0,0,False
2021-09-06,1.0,1.0,0.0,0,False
2021-09-07,1.0,1.0,0.0,0,False
2021-09-08,1.0,1.0,0.0,0,False
2021-09-09,1.0,1.0,0.0,0,False
2021-09-10,1.0,1.0,0.0,0,False
2021-09-11,1.0,1.0,0.0,0,False
2021-09-12,1.0,1.0,0.0,0,False
2021-09-13,1.0,1.0,0.0,0,False
2021-09-14,1.0,1.0,0.0,0,False
2021-09-15,1.0,1.0,0.0,0,False
2021-09-16,1.0,1.0,0.0,0,False
2021-09-17,1.0,1.0,0.0,0,False
2021-09-18,1.0,1.0,0.0,0,False
2021-09-19,1.0,1.0,0.0,0,False
2021-09-20,1.0,1.0,0.0,0,False
2021-09-21,1.0,1.0,0.0,0,False
2021-09-22,1.0,1.0,0.0,0,False
2021-09-23,1.0,1.0,0.0,0,False
2021-09-24,1.0,1.0,0.0,0,False
2021-09-25,1.0,1.0,0.0,0,False
2021-09-26,1.0,1.0,0.0,0,False
2021-09-27,1.0,1.0,0.0,0,False
2021-09-28,1.0,1.0,0.0,0,False
2021-09-29,1.0,1.0,0.0,0,False
2021-09-30,1.0,1.0,0.0,0,False
2021-10-01,1.0,1.0,0.0,0,False
2021-10-02,1.0,1.0,0.0,0,False
2021-10-03,1.0,1.0,0.0,0,False
2021-10-04,1.0,1.0,0.0,0,False
2021-10-05,1.0,0.9991229226558256,-0.08770773441744151,1,True
2021-10-06,0.9991229226558256,1.0054133362515478,0.6295935618213289,5,True
2021-10-07,1.0054133362515478,0.9839725881771647,-2.132530701683355,2,True
2021-10-08,0.9839725881771647,0.9831411202186615,-0.08450113026456929,1,True
2021-10-09,0.9831411202186615,0.984523369859594,0.14059524238239085,3,True
2021-10-10,0.984523369859594,0.9724930420925044,-1.2219443575834266,1,True
2021-10-11,0.9724930420925044,0.9700772513745141,-0.2484121339102141,0,True
2021-10-12,0.9700772513745141,0.9700772513745141,0.0,0,False
2021-10-13,0.9700772513745141,0.9929308947374978,2.355858085590823,4,True
2021-10-14,0.9929308947374978,1.016998473826025,2.423892661219873,1,True
2021-10-15,1.016998473826025,1.0116661038583503,-0.5243242841470375,6,True
2021-10-16,1.0116661038583503,1.0477038238091305,3.562214826941168,3,True
2021-10-17,1.0477038238091305,1.0502386173281701,0.2419379848995762,0,True
2021-10-18,1.0502386173281701,1.0397517681082469,-0.9985206263508073,2,True
2021-10-19,1.0397517681082469,1.0397517681082469,0.0,0,False
2021-10-20,1.0397517681082469,1.0397517681082469,0.0,0,False
2021-10-21,1.0397517681082469,1.0397517681082469,0.0,0,False
2021-10-22,1.0397517681082469,1.0397517681082469,0.0,0,False
2021-10-23,1.0397517681082469,1.0397517681082469,0.0,0,False
2021-10-24,1.0397517681082469,1.0438936312241738,0.3983511490884606,1,True
2021-10-25,1.0438936312241738,1.0357641276019973,-0.7787674317586313,2,True
2021-10-26,1.0357641276019973,1.0357641276019973,0.0,0,False
2021-10-27,1.0357641276019973,1.0318236124280264,-0.38044522579614437,7,True
2021-10-28,1.0318236124280264,1.0253217790225766,-0.6301303175404338,6,True
2021-10-29,1.0253217790225766,1.0234111781432267,-0.18634158743523477,2,True
2021-10-30,1.0234111781432267,1.0795306680789887,5.483572110046664,3,True
2021-10-31,1.0795306680789887,1.1271811740662505,4.414002065550893,12,True
2021-11-01,1.1271811740662505,1.0845563369364066,-3.7815426757064174,7,True
2021-11-02,1.0845563369364066,1.1058332243216906,1.9618056398421624,3,True
2021-11-03,1.1058332243216906,1.096435151021659,-0.8498635321611325,2,True
2021-11-04,1.096435151021659,1.1141215860924731,1.6130853753032248,5,True
2021-11-05,1.1141215860924731,1.094704394758114,-1.742825161700745,5,True
2021-11-06,1.094704394758114,1.0880111680791222,-0.6114186360301255,3,True
2021-11-07,1.0880111680791222,1.0842726941542147,-0.34360620870351744,0,True
2021-11-08,1.0842726941542147,1.0842726941542147,0.0,0,False
2021-11-09,1.0842726941542147,1.0909770519541975,0.6183276436019236,1,True
2021-11-10,1.0909770519541975,1.1150701654071233,2.2083978219128886,0,True
2021-11-11,1.1150701654071233,1.1023579544480286,-1.1400368652544235,15,True
2021-11-12,1.1023579544480286,1.0725624742702624,-2.702886123109205,6,True
2021-11-13,1.0725624742702624,1.0702684027374205,-0.21388698447637466,1,True
2021-11-14,1.0702684027374205,1.0686761258451292,-0.14877360559452102,2,True
2021-11-15,1.0686761258451292,1.0666928123612935,-0.18558601954985487,0,True
2021-11-16,1.0666928123612935,1.0824125847501131,1.4736925389064348,9,True
2021-11-17,1.0824125847501131,1.0554762569917688,-2.4885453234602672,1,True
2021-11-18,1.0554762569917688,1.0432082315661995,-1.1623213070215965,4,True
2021-11-19,1.0432082315661995,1.0534342103720684,0.9802433010441591,7,True
2021-11-20,1.0534342103720684,1.0625718351065145,0.8674129475269909,0,True
2021-11-21,1.0625718351065145,1.0519654986130151,-0.9981759484935182,3,True
2021-11-22,1.0519654986130151,1.0424265570105435,-0.9067732368645554,9,True
2021-11-23,1.0424265570105435,1.0390255955904382,-0.32625429554083984,0,True
2021-11-24,1.0390255955904382,1.0238912388052164,-1.456591334174162,4,True
2021-11-25,1.0238912388052164,1.03860549052347,1.4370912808497005,7,True
2021-11-26,1.03860549052347,0.9978387718035533,-3.9251399200065706,13,True
2021-11-27,0.9978387718035533,1.0119171736706127,1.4108894407473649,6,True
2021-11-28,1.0119171736706127,0.9682498846654058,-4.315302688935385,9,True
2021-11-29,0.9682498846654058,0.9537326160968073,-1.49933078211677,2,True
2021-11-30,0.9537326160968073,0.943279728406048,-1.095997716166841,3,True
2021-12-01,0.943279728406048,0.9353943595518751,-0.8359523285311754,1,True
2021-12-02,0.9353943595518751,0.9264046290539246,-0.9610631501196232,8,True
2021-12-03,0.9264046290539246,0.9039732439758221,-2.4213377583195084,3,True
2021-12-04,0.9039732439758221,0.8417920866484471,-6.87865019697842,25,True
2021-12-05,0.8417920866484471,0.8261714087040158,-1.8556456151333278,4,True
2021-12-06,0.8261714087040158,0.8066529059377782,-2.3625245996899857,15,True
2021-12-07,0.8066529059377782,0.8349328346718161,3.5058360945419142,1,True
2021-12-08,0.8349328346718161,0.8273606208404811,-0.9069249066377183,4,True
2021-12-09,0.8273606208404811,0.8101891362838951,-2.0754534508957145,4,True
2021-12-10,0.8101891362838951,0.7950476929632223,-1.8688776043236377,4,True
2021-12-11,0.7950476929632223,0.7878176037669735,-0.9093906265297824,2,True
2021-12-12,0.7878176037669735,0.7878176037669735,0.0,0,False
2021-12-13,0.7878176037669735,0.7799643716323416,-0.9968337971989372,2,True
2021-12-14,0.7799643716323416,0.776077434539136,-0.49834803159929386,1,True
2021-12-15,0.776077434539136,0.7744721066058975,-0.20685151529908907,1,True
2021-12-16,0.7744721066058975,0.7751844330844362,0.09197574353716487,1,True
2021-12-17,0.7751844330844362,0.7685265757382485,-0.8588739739904594,5,True
2021-12-18,0.7685265757382485,0.7695775257555852,0.13674868905180215,2,True
2021-12-19,0.7695775257555852,0.7653967304256271,-0.5432585009357394,1,True
2021-12-20,0.7653967304256271,0.7653967304256271,0.0,0,False
2021-12-21,0.7653967304256271,0.7615857885291768,-0.49790412539795215,1,True
2021-12-22,0.7615857885291768,0.7560651444588941,-0.7248880104426036,2,True
2021-12-23,0.7560651444588941,0.7562817143070998,0.028644337038019607,0,True
2021-12-24,0.7562817143070998,0.7562817143070998,0.0,0,False
2021-12-25,0.7562817143070998,0.7585835856825891,0.30436692200053184,1,True
2021-12-26,0.7585835856825891,0.7581085895292126,-0.06261619185302658,0,True
2021-12-27,0.7581085895292126,0.7581085895292126,0.0,0,False
2021-12-28,0.7581085895292126,0.7543311280168173,-0.4982744641821024,1,True
2021-12-29,0.7543311280168173,0.7543311280168173,0.0,0,False
2021-12-30,0.7543311280168173,0.7543311280168173,0.0,0,False
2021-12-31,0.7543311280168173,0.7543311280168173,0.0,0,False
2022-01-01,0.7543311280168173,0.7543311280168173,0.0,0,False
2022-01-02,0.7543311280168173,0.7543311280168173,0.0,0,False
2022-01-03,0.7543311280168173,0.7543311280168173,0.0,0,False
2022-01-04,0.7543311280168173,0.7543311280168173,0.0,0,False
2022-01-05,0.7543311280168173,0.7561348388350035,0.23911393169313566,1,True
2022-01-06,0.7561348388350035,0.7145154255144165,-5.5042316770790745,15,True
2022-01-07,0.7145154255144165,0.7143431373286417,-0.024112591502234437,5,True
2022-01-08,0.7143431373286417,0.7219977251739872,1.0715561535273643,0,True
2022-01-09,0.7219977251739872,0.7226935048519142,0.0963686800757424,1,True
2022-01-10,0.7226935048519142,0.7246773306547143,0.2745044461422985,0,True
2022-01-11,0.7246773306547143,0.7246773306547143,0.0,0,False
2022-01-12,0.7246773306547143,0.7246773306547143,0.0,0,False
2022-01-13,0.7246773306547143,0.7246773306547143,0.0,0,False
2022-01-14,0.7246773306547143,0.7246773306547143,0.0,0,False
2022-01-15,0.7246773306547143,0.7251549745609388,0.06591125263888387,1,True
2022-01-16,0.7251549745609388,0.7237702532855613,-0.19095521977434693,0,True
2022-01-17,0.7237702532855613,0.7265702833237251,0.3868672448823274,1,True
2022-01-18,0.7265702833237251,0.7348572548060618,1.1405602007871218,0,True
2022-01-19,0.7348572548060618,0.7311962881119604,-0.4981874602391412,1,True
2022-01-20,0.7311962881119604,0.7311962881119604,0.0,0,False
2022-01-21,0.7311962881119604,0.6990081499056343,-4.402120022988598,9,True
2022-01-22,0.6990081499056343,0.6540698978115721,-6.428859534774933,27,True
2022-01-23,0.6540698978115721,0.6711897750170424,2.617438482148615,0,True
2022-01-24,0.6711897750170424,0.6631538680316308,-1.197263022251427,6,True
2022-01-25,0.6631538680316308,0.6870551850013311,3.6041887293282393,0,True
2022-01-26,0.6870551850013311,0.6879994742472416,0.13744008727751833,1,True
2022-01-27,0.6879994742472416,0.6817615701401708,-0.9066728014430314,10,True
2022-01-28,0.6817615701401708,0.6727391444239854,-1.3233989874686491,0,True
2022-01-29,0.6727391444239854,0.6727391444239854,0.0,0,False
2022-01-30,0.6727391444239854,0.6813992413057817,1.287288981706447,1,True
2022-01-31,0.6813992413057817,0.6784274758200454,-0.4361269143830282,2,True
2022-02-01,0.6784274758200454,0.675044301511756,-0.49867884613605806,1,True
2022-02-02,0.675044301511756,0.6743348264017183,-0.10510052576532258,1,True
2022-02-03,0.6743348264017183,0.6761098713863866,0.26322902439133156,4,True
2022-02-04,0.6761098713863866,0.6864448901307175,1.5286004807382403,0,True
2022-02-05,0.6864448901307175,0.6864448901307175,0.0,0,False
2022-02-06,0.6864448901307175,0.6864448901307175,0.0,0,False
2022-02-07,0.6864448901307175,0.6864448901307175,0.0,0,False
2022-02-08,0.6864448901307175,0.6795573836733819,-1.003358981377811,3,True
2022-02-09,0.6795573836733819,0.6879134695348389,1.2296365343405835,2,True
2022-02-10,0.6879134695348389,0.689930500559501,0.29320999137085746,5,True
2022-02-11,0.689930500559501,0.6704945558213189,-2.8170873330604307,0,True
2022-02-12,0.6704945558213189,0.6539084011489755,-2.473719514698558,5,True
2022-02-13,0.6539084011489755,0.6539084011489755,0.0,0,False
2022-02-14,0.6539084011489755,0.6539084011489755,0.0,0,False
2022-02-15,0.6539084011489755,0.6539084011489755,0.0,0,False
2022-02-16,0.6539084011489755,0.6539084011489755,0.0,0,False
2022-02-17,0.6539084011489755,0.6539084011489755,0.0,0,False
2022-02-18,0.6539084011489755,0.6539084011489755,0.0,0,False
2022-02-19,0.6539084011489755,0.6539084011489755,0.0,0,False
2022-02-20,0.6539084011489755,0.6539084011489755,0.0,0,False
2022-02-21,0.6539084011489755,0.6539084011489755,0.0,0,False
2022-02-22,0.6539084011489755,0.647413306491469,-0.9932728568854743,2,True
2022-02-23,0.647413306491469,0.647413306491469,0.0,0,False
2022-02-24,0.647413306491469,0.6350590103739778,-1.9082548958474277,11,True
2022-02-25,0.6350590103739778,0.6662169476779585,4.906305838512881,0,True
2022-02-26,0.6662169476779585,0.6662169476779585,0.0,0,False
2022-02-27,0.6662169476779585,0.6662169476779585,0.0,0,False
2022-02-28,0.6662169476779585,0.659582217696906,-0.9958812972526876,2,True
2022-03-01,0.659582217696906,0.659582217696906,0.0,0,False
2022-03-02,0.659582217696906,0.659582217696906,0.0,0,False
2022-03-03,0.659582217696906,0.659582217696906,0.0,0,False
2022-03-04,0.659582217696906,0.6687785086657959,1.3942599909683828,3,True
2022-03-05,0.6687785086657959,0.661073209655936,-1.1521451287709428,2,True
2022-03-06,0.661073209655936,0.6570190519490757,-0.6132690975285904,4,True
2022-03-07,0.6570190519490757,0.6475847981236774,-1.4359178470413014,0,True
2022-03-08,0.6475847981236774,0.6443633237830527,-0.49745984617900474,1,True
2022-03-09,0.6443633237830527,0.6560064020137493,1.8069120014994278,2,True
2022-03-10,0.6560064020137493,0.6496277594466713,-0.9723445605862135,4,True
2022-03-11,0.6496277594466713,0.6408508918732319,-1.3510610416210156,2,True
2022-03-12,0.6408508918732319,0.6385532410038782,-0.3585312743558,0,True
2022-03-13,0.6385532410038782,0.6385532410038782,0.0,0,False
2022-03-14,0.6385532410038782,0.6353722390465197,-0.498157671607391,1,True
2022-03-15,0.6353722390465197,0.6363190175598009,0.14901162737326334,1,True
2022-03-16,0.6363190175598009,0.6402329760772069,0.6150937516240518,1,True
2022-03-17,0.6402329760772069,0.6417740969288847,0.24071250767501162,1,True
2022-03-18,0.6417740969288847,0.6403142352857678,-0.22747282106005962,0,True
2022-03-19,0.6403142352857678,0.6403142352857678,0.0,0,False
2022-03-20,0.6403142352857678,0.6297297795223329,-1.6530095975003767,4,True
2022-03-21,0.6297297795223329,0.6320485109641713,0.368210543194758,3,True
2022-03-22,0.6320485109641713,0.6273722275104155,-0.7398614778195034,0,True
2022-03-23,0.6273722275104155,0.6265226454511073,-0.13541913748392753,2,True
2022-03-24,0.6265226454511073,0.6211034093891067,-0.8649705004834418,0,True
2022-03-25,0.6211034093891067,0.6211034093891067,0.0,0,False
2022-03-26,0.6211034093891067,0.6226294476688633,0.2456979396164627,1,True
2022-03-27,0.6226294476688633,0.6380854366153587,2.48237358582426,2,True
2022-03-28,0.6380854366153587,0.6381529181388971,0.01057562509125809,2,True
2022-03-29,0.6381529181388971,0.6425609757328232,0.6907525561086203,1,True
2022-03-30,0.6425609757328232,0.6433595889618353,0.1242859836144472,6,True
2022-03-31,0.6433595889618353,0.6438361895399269,0.07407996807209383,7,True
2022-04-01,0.6438361895399269,0.627127922058175,-2.5951115754601073,9,True
2022-04-02,0.627127922058175,0.6282886291333687,0.18508298456625383,0,True
2022-04-03,0.6282886291333687,0.621432828417939,-1.091186502115471,3,True
2022-04-04,0.621432828417939,0.6131168834387148,-1.3381888756014315,3,True
2022-04-05,0.6131168834387148,0.605924627889642,-1.17306434439296,7,True
2022-04-06,0.605924627889642,0.580593784810302,-4.180527067791262,13,True
2022-04-07,0.580593784810302,0.5754065150153639,-0.8934421846477303,3,True
2022-04-08,0.5754065150153639,0.5782185451654375,0.48870321706360187,0,True
2022-04-09,0.5782185451654375,0.5777903735471105,-0.07405013587111764,1,True
2022-04-10,0.5777903735471105,0.5753287797192744,-0.42603579784898926,0,True
2022-04-11,0.5753287797192744,0.5658994667131437,-1.6389433900267703,7,True
2022-04-12,0.5658994667131437,0.5575195210802788,-1.4808187895170355,1,True
2022-04-13,0.5575195210802788,0.5532402810661837,-0.7675498080862542,1,True
2022-04-14,0.5532402810661837,0.5526490444409744,-0.10686796414568489,0,True
2022-04-15,0.5526490444409744,0.5538608661671234,0.21927509661665567,1,True
2022-04-16,0.5538608661671234,0.5535452360120011,-0.05698726420346745,0,True
2022-04-17,0.5535452360120011,0.5577710741696307,0.7634133369251783,1,True
2022-04-18,0.5577710741696307,0.5741461042861273,2.935797655135608,6,True
2022-04-19,0.5741461042861273,0.5865533124501975,2.160984472671257,2,True
2022-04-20,0.5865533124501975,0.5925669227368392,1.0252453031969422,1,True
2022-04-21,0.5925669227368392,0.5896665417162686,-0.4894604996132479,5,True
2022-04-22,0.5896665417162686,0.5829924699099485,-1.1318383076127758,2,True
2022-04-23,0.5829924699099485,0.576559047491067,-1.1035172409474159,2,True
2022-04-24,0.576559047491067,0.576559047491067,0.0,0,False
2022-04-25,0.576559047491067,0.5679593156121038,-1.4915613442171294,3,True
2022-04-26,0.5679593156121038,0.5632863460446819,-0.822764842299617,2,True
2022-04-27,0.5632863460446819,0.559502909305554,-0.671672012945923,1,True
2022-04-28,0.559502909305554,0.561291459749373,0.31966776473761893,1,True
2022-04-29,0.561291459749373,0.5484818196189112,-2.282172640962965,4,True
2022-04-30,0.5484818196189112,0.5415788950709645,-1.2585512046220493,5,True
2022-05-01,0.5415788950709645,0.5416856580807217,0.01971328844769804,8,True
2022-05-02,0.5416856580807217,0.5419971295816334,0.05750041491134894,1,True
2022-05-03,0.5419971295816334,0.5468893037135855,0.9026199337491603,3,True
2022-05-04,0.5468893037135855,0.5413979328766774,-1.0041101187424184,2,True
2022-05-05,0.5413979328766774,0.5413979328766774,0.0,0,False
2022-05-06,0.5413979328766774,0.5134682563625768,-5.158807379573538,13,True
2022-05-07,0.5134682563625768,0.5096284090138625,-0.747825654484624,2,True
2022-05-08,0.5096284090138625,0.5051420535959708,-0.8803189419076762,3,True
2022-05-09,0.5051420535959708,0.49531096659075824,-1.9462024464658279,5,True
2022-05-10,0.49531096659075824,0.4847523858961386,-2.131707433674379,18,True
2022-05-11,0.4847523858961386,0.45786263318736675,-5.547110956259049,28,True
2022-05-12,0.45786263318736675,0.4276797333077467,-6.592129973460525,19,True
2022-05-13,0.4276797333077467,0.4417352125123413,3.2864496748272742,6,True
2022-05-14,0.4417352125123413,0.4218198059744262,-4.508448947197918,14,True
2022-05-15,0.4218198059744262,0.4474619903173149,6.078942709589907,3,True
2022-05-16,0.4474619903173149,0.4474927881345238,0.006882778398020761,8,True
2022-05-17,0.4474927881345238,0.45788767070718867,2.3229162230744116,4,True
2022-05-18,0.45788767070718867,0.4452588249629478,-2.758066345122623,2,True
2022-05-19,0.4452588249629478,0.4512848703707861,1.3533803419482515,8,True
2022-05-20,0.4512848703707861,0.4600865365203693,1.950357020024085,2,True
2022-05-21,0.4600865365203693,0.46071257157871964,0.13606898021512048,0,True
2022-05-22,0.46071257157871964,0.4595349032824465,-0.25561887582915555,1,True
2022-05-23,0.4595349032824465,0.4586147140562622,-0.20024359838859418,4,True
2022-05-24,0.4586147140562622,0.42855873403457495,-6.553644944326842,14,True
2022-05-25,0.42855873403457495,0.427841413871584,-0.16737966258157932,1,True
2022-05-26,0.427841413871584,0.4215632066534716,-1.4674145640320768,13,True
2022-05-27,0.4215632066534716,0.407766676204202,-3.272707444938494,5,True
2022-05-28,0.407766676204202,0.4093524934068423,0.38890308972825416,1,True
2022-05-29,0.4093524934068423,0.4182825700957308,2.181512714034728,3,True
2022-05-30,0.4182825700957308,0.4260524954612289,1.8575780873967274,0,True
2022-05-31,0.4260524954612289,0.4154947771000973,-2.4780322785581177,10,True
2022-06-01,0.4154947771000973,0.4089199564292188,-1.582407537530739,5,True
2022-06-02,0.4089199564292188,0.4027506672514006,-1.5086789188989091,11,True
2022-06-03,0.4027506672514006,0.4044182272808289,0.4140427726187834,0,True
2022-06-04,0.4044182272808289,0.4044182272808289,0.0,0,False
2022-06-05,0.4044182272808289,0.4044182272808289,0.0,0,False
2022-06-06,0.4044182272808289,0.4059161438018478,0.3703879845105895,1,True
2022-06-07,0.4059161438018478,0.40093216382207814,-1.2278348757182367,4,True
2022-06-08,0.40093216382207814,0.40635176405796625,1.3517499280235379,6,True
2022-06-09,0.40635176405796625,0.40459154842195133,-0.43317534011340086,5,True
2022-06-10,0.40459154842195133,0.3974193071851471,-1.772711581539077,8,True
2022-06-11,0.3974193071851471,0.39436811403177136,-0.7677516160417119,6,True
2022-06-12,0.39436811403177136,0.3890201366009314,-1.35608768573241,15,True
2022-06-13,0.3890201366009314,0.3579345673836808,-7.990735258298232,15,True
2022-06-14,0.3579345673836808,0.3694088392232378,3.205689778282128,6,True
2022-06-15,0.3694088392232378,0.3641647053345355,-1.419601626135758,8,True
2022-06-16,0.3641647053345355,0.3659603906830765,0.4930970306118665,7,True
2022-06-17,0.3659603906830765,0.3637883832095463,-0.5935088957239487,2,True
2022-06-18,0.3637883832095463,0.35842959501578664,-1.4730509387027246,9,True
2022-06-19,0.35842959501578664,0.357609716426581,-0.2287418786301676,3,True
2022-06-20,0.357609716426581,0.36221248931579497,1.2870939121026215,2,True
2022-06-21,0.36221248931579497,0.36519955550557776,0.8246723340283646,0,True
2022-06-22,0.36519955550557776,0.3649909599487116,-0.05711823952725403,8,True
2022-06-23,0.3649909599487116,0.3594993340139943,-1.5045923152422702,1,True
2022-06-24,0.3594993340139943,0.3559281708477978,-0.9933712884312218,2,True
2022-06-25,0.3559281708477978,0.3546887641737109,-0.34821820119905755,4,True
2022-06-26,0.3546887641737109,0.3577769606664174,0.8706778462240772,0,True
2022-06-27,0.3577769606664174,0.3558703133911635,-0.5329150517972114,5,True
2022-06-28,0.3558703133911635,0.35463455155791146,-0.347250609773031,4,True
2022-06-29,0.35463455155791146,0.35586147028340626,0.34596705823077833,5,True
2022-06-30,0.35586147028340626,0.35021884733226405,-1.5856234580968964,4,True
2022-07-01,0.35021884733226405,0.358468761197819,2.355645313893695,1,True
2022-07-02,0.358468761197819,0.3574058427952267,-0.2965163265665316,2,True
2022-07-03,0.3574058427952267,0.3552800269470125,-0.594790457701655,3,True
2022-07-04,0.3552800269470125,0.357632460965923,0.6621351723949731,0,True
2022-07-05,0.357632460965923,0.3578335736840418,0.0562344697613959,1,True
2022-07-06,0.3578335736840418,0.35864184832664403,0.2258800464921995,0,True
2022-07-07,0.35864184832664403,0.35864184832664403,0.0,0,False
2022-07-08,0.35864184832664403,0.35864184832664403,0.0,0,False
2022-07-09,0.35864184832664403,0.35864184832664403,0.0,0,False
2022-07-10,0.35864184832664403,0.35864184832664403,0.0,0,False
2022-07-11,0.35864184832664403,0.35685680812747295,-0.4977222283176763,1,True
2022-07-12,0.35685680812747295,0.3592262274162627,0.6639691985204754,2,True
2022-07-13,0.3592262274162627,0.36363174877072274,1.2263918996524348,5,True
2022-07-14,0.36363174877072274,0.37231755849099085,2.3886279868660987,0,True
2022-07-15,0.37231755849099085,0.37231755849099085,0.0,0,False
2022-07-16,0.37231755849099085,0.37231755849099085,0.0,0,False
2022-07-17,0.37231755849099085,0.37231755849099085,0.0,0,False
2022-07-18,0.37231755849099085,0.37311227768840594,0.21345197917501668,1,True
2022-07-19,0.37311227768840594,0.37444712500258565,0.3577602223249432,4,True
2022-07-20,0.37444712500258565,0.3700945651628679,-1.162396383651687,2,True
2022-07-21,0.3700945651628679,0.3599774905681487,-2.7336458157030563,8,True
2022-07-22,0.3599774905681487,0.36193556702600826,0.5439441379429422,0,True
2022-07-23,0.36193556702600826,0.3635308027102698,0.4407512910017175,3,True
2022-07-24,0.3635308027102698,0.36370935969247503,0.04911742852986567,3,True
2022-07-25,0.36370935969247503,0.3640272821175638,0.0874111200650951,1,True
2022-07-26,0.3640272821175638,0.36357066053769616,-0.12543608743044166,1,True
2022-07-27,0.36357066053769616,0.36153902262778154,-0.558801391429653,1,True
2022-07-28,0.36153902262778154,0.3604011962760068,-0.31471743866116064,0,True
2022-07-29,0.3604011962760068,0.36032115013907645,-0.022210286135970758,5,True
2022-07-30,0.36032115013907645,0.3618618174563156,0.42758170499970216,2,True
2022-07-31,0.3618618174563156,0.35792023621501273,-1.0892503854123103,6,True
2022-08-01,0.35792023621501273,0.35394716360488704,-1.1100441405997974,2,True
2022-08-02,0.35394716360488704,0.34798156628284277,-1.6854485458467128,6,True
2022-08-03,0.34798156628284277,0.3477281022291319,-0.07283835647341474,2,True
2022-08-04,0.3477281022291319,0.34610905176447365,-0.465608173247789,0,True
2022-08-05,0.34610905176447365,0.34984817249503775,1.0803302345032462,2,True
2022-08-06,0.34984817249503775,0.3493515918222317,-0.14194176555634153,0,True
2022-08-07,0.3493515918222317,0.34987028708251305,0.14847370741202237,2,True
2022-08-08,0.34987028708251305,0.35029954836619026,0.12269155156234834,0,True
2022-08-09,0.35029954836619026,0.3470834082651833,-0.91811140379916,7,True
2022-08-10,0.3470834082651833,0.35541876452989374,2.40154270305597,2,True
2022-08-11,0.35541876452989374,0.3554167570476332,-0.0005648216866660505,3,True
2022-08-12,0.3554167570476332,0.34911786544718887,-1.7722550992721353,4,True
2022-08-13,0.34911786544718887,0.3476620785896977,-0.41699007744172567,0,True
2022-08-14,0.3476620785896977,0.3476620785896977,0.0,0,False
2022-08-15,0.3476620785896977,0.3459259868366177,-0.4993618401300859,1,True
2022-08-16,0.3459259868366177,0.34234324979662856,-1.035694679301813,3,True
2022-08-17,0.34234324979662856,0.3406409475108558,-0.49725013908819005,1,True
2022-08-18,0.3406409475108558,0.3389456739981028,-0.4976716760391575,1,True
2022-08-19,0.3389456739981028,0.32895384130981165,-2.9479156852573074,12,True
2022-08-20,0.32895384130981165,0.32703128285408173,-0.5844462700525965,2,True
2022-08-21,0.32703128285408173,0.33013972306914235,0.950502406966236,1,True
2022-08-22,0.33013972306914235,0.32858585906989723,-0.4706685959507184,0,True
2022-08-23,0.32858585906989723,0.32858585906989723,0.0,0,False
2022-08-24,0.32858585906989723,0.32858585906989723,0.0,0,False
2022-08-25,0.32858585906989723,0.3274316910029173,-0.35125311547092863,1,True
2022-08-26,0.3274316910029173,0.32735668011646196,-0.022908865731841033,1,True
2022-08-27,0.32735668011646196,0.3184433797622494,-2.7228099793294325,6,True
2022-08-28,0.3184433797622494,0.31752508385882794,-0.28837022898923204,1,True
2022-08-29,0.31752508385882794,0.3176654839722407,0.044217014828085155,2,True
2022-08-30,0.3176654839722407,0.31910907586090925,0.45443775339302217,1,True
2022-08-31,0.31910907586090925,0.3184082897438896,-0.21960707796511159,2,True
2022-09-01,0.3184082897438896,0.31343422921945796,-1.5621642666503899,2,True
2022-09-02,0.31343422921945796,0.3134931388093038,0.018794880824768434,0,True
2022-09-03,0.3134931388093038,0.3134931388093038,0.0,0,False
2022-09-04,0.3134931388093038,0.3134931388093038,0.0,0,False
2022-09-05,0.3134931388093038,0.3134931388093038,0.0,0,False
2022-09-06,0.3134931388093038,0.31193322231268833,-0.49759190983901247,1,True
2022-09-07,0.31193322231268833,0.3085007266933566,-1.1003943709115172,5,True
2022-09-08,0.3085007266933566,0.3071850482525176,-0.42647498919727855,2,True
2022-09-09,0.3071850482525176,0.3068467968481161,-0.11011323836419562,0,True
2022-09-10,0.3068467968481161,0.306105616046238,-0.24154751149153553,2,True
2022-09-11,0.306105616046238,0.3067891163422099,0.22328904147537187,0,True
2022-09-12,0.3067891163422099,0.3067891163422099,0.0,0,False
2022-09-13,0.3067891163422099,0.2991158555480759,-2.501151568093707,7,True
2022-09-14,0.2991158555480759,0.30113007762093863,0.6733919434568358,4,True
2022-09-15,0.30113007762093863,0.3009028898317266,-0.07544506713076382,3,True
2022-09-16,0.3009028898317266,0.29641896292762215,-1.4901574745965318,3,True
2022-09-17,0.29641896292762215,0.29494353565074344,-0.49775063724212254,1,True
2022-09-18,0.29494353565074344,0.29494353565074344,0.0,0,False
2022-09-19,0.29494353565074344,0.2940379669690986,-0.30703120163214637,8,True
2022-09-20,0.2940379669690986,0.2940474056413862,0.0032100182112193565,0,True
2022-09-21,0.2940474056413862,0.2940474056413862,0.0,0,False
2022-09-22,0.2940474056413862,0.2943544737646105,0.10442810150101955,2,True
2022-09-23,0.2943544737646105,0.2913847219788247,-1.0089032273926435,3,True
2022-09-24,0.2913847219788247,0.2914224546137463,0.01294942118630349,0,True
2022-09-25,0.2914224546137463,0.2914224546137463,0.0,0,False
2022-09-26,0.2914224546137463,0.2914224546137463,0.0,0,False
2022-09-27,0.2914224546137463,0.2914224546137463,0.0,0,False
2022-09-28,0.2914224546137463,0.2914224546137463,0.0,0,False
2022-09-29,0.2914224546137463,0.2914224546137463,0.0,0,False
2022-09-30,0.2914224546137463,0.29039031799229403,-0.3541719607091487,1,True
2022-10-01,0.29039031799229403,0.289966027957003,-0.14611025540538503,0,True
2022-10-02,0.289966027957003,0.289966027957003,0.0,0,False
2022-10-03,0.289966027957003,0.289966027957003,0.0,0,False
2022-10-04,0.289966027957003,0.289966027957003,0.0,0,False
2022-10-05,0.289966027957003,0.289966027957003,0.0,0,False
2022-10-06,0.289966027957003,0.289966027957003,0.0,0,False
2022-10-07,0.289966027957003,0.289966027957003,0.0,0,False
2022-10-08,0.289966027957003,0.28852115828758895,-0.4982892925747495,1,True
2022-10-09,0.28852115828758895,0.28852115828758895,0.0,0,False
2022-10-10,0.28852115828758895,0.2875321238923341,-0.342794407566116,2,True
2022-10-11,0.2875321238923341,0.28951567108314163,0.689852376825284,5,True
2022-10-12,0.28951567108314163,0.2884407889297074,-0.3712690748009728,2,True
2022-10-13,0.2884407889297074,0.2887201154377558,0.09684015533475421,1,True
2022-10-14,0.2887201154377558,0.29333559051986446,1.5985983779172264,0,True
2022-10-15,0.29333559051986446,0.29333559051986446,0.0,0,False
2022-10-16,0.29333559051986446,0.29333559051986446,0.0,0,False
2022-10-17,0.29333559051986446,0.29333559051986446,0.0,0,False
2022-10-18,0.29333559051986446,0.29333559051986446,0.0,0,False
2022-10-19,0.29333559051986446,0.29333559051986446,0.0,0,False
2022-10-20,0.29333559051986446,0.29576728722337303,0.8289811335879804,2,True
2022-10-21,0.29576728722337303,0.29349281983219194,-0.7690057316796284,0,True
2022-10-22,0.29349281983219194,0.29349281983219194,0.0,0,False
2022-10-23,0.29349281983219194,0.29349281983219194,0.0,0,False
2022-10-24,0.29349281983219194,0.29349281983219194,0.0,0,False
2022-10-25,0.29349281983219194,0.2920284555884309,-0.49894380537088834,1,True
2022-10-26,0.2920284555884309,0.2920284555884309,0.0,0,False
2022-10-27,0.2920284555884309,0.2920284555884309,0.0,0,False
2022-10-28,0.2920284555884309,0.29057388388890465,-0.4980924535574083,1,True
2022-10-29,0.29057388388890465,0.29057388388890465,0.0,0,False
2022-10-30,0.29057388388890465,0.2844695003473107,-2.100802542849245,6,True
2022-10-31,0.2844695003473107,0.2852866067884019,0.2872386811568761,3,True
2022-11-01,0.2852866067884019,0.28458247792940444,-0.24681455148706233,1,True
2022-11-02,0.28458247792940444,0.2872438751763143,0.9351936444836451,3,True
2022-11-03,0.2872438751763143,0.2957030096522841,2.9449311915797916,7,True
2022-11-04,0.2957030096522841,0.29821065470276215,0.848028247472632,4,True
2022-11-05,0.29821065470276215,0.2870230540549254,-3.7515764347816005,6,True
2022-11-06,0.2870230540549254,0.28557591414739497,-0.5041894325511165,2,True
2022-11-07,0.28557591414739497,0.2826691529904388,-1.0178593547129022,8,True
2022-11-08,0.2826691529904388,0.2692869466687455,-4.734229462295092,11,True
2022-11-09,0.2692869466687455,0.24694220916088805,-8.297742532371643,24,True
2022-11-10,0.24694220916088805,0.25001076147173146,1.2426196077496732,17,True
2022-11-11,0.25001076147173146,0.2524359919464506,0.9700504332063931,10,True
2022-11-12,0.2524359919464506,0.24791485439708746,-1.791003538957403,6,True
2022-11-13,0.24791485439708746,0.24823980501967638,0.13107347818233084,3,True
2022-11-14,0.24823980501967638,0.24613493701127342,-0.8479172017703318,10,True
2022-11-15,0.24613493701127342,0.24423040984096925,-0.7737736029797992,2,True
2022-11-16,0.24423040984096925,0.2416723807900015,-1.0473835148675392,2,True
2022-11-17,0.2416723807900015,0.24026955294788804,-0.5804667614593639,3,True
2022-11-18,0.24026955294788804,0.2412606149070902,0.4124792122192522,0,True
2022-11-19,0.2412606149070902,0.2410385320506259,-0.09205101982759922,3,True
2022-11-20,0.2410385320506259,0.2379635926161051,-1.2757045142786305,3,True
2022-11-21,0.2379635926161051,0.22778076307091893,-4.279154400569851,10,True
2022-11-22,0.22778076307091893,0.23023780670098037,1.0786879440281893,5,True
2022-11-23,0.23023780670098037,0.2355760682295585,2.318585989446631,1,True
2022-11-24,0.2355760682295585,0.2326777425980531,-1.230314120312559,2,True
2022-11-25,0.2326777425980531,0.2322189653217444,-0.19717282417562876,3,True
2022-11-26,0.2322189653217444,0.23283878339206582,0.266911046418028,0,True
2022-11-27,0.23283878339206582,0.23283878339206582,0.0,0,False
2022-11-28,0.23283878339206582,0.22938615251954797,-1.4828418282465172,8,True
2022-11-29,0.22938615251954797,0.22943106570088942,0.01957972652146811,0,True
2022-11-30,0.22943106570088942,0.22943106570088942,0.0,0,False
2022-12-01,0.22943106570088942,0.22949794486575212,0.029150004014666386,2,True
2022-12-02,0.22949794486575212,0.22933350063674515,-0.07165390047529918,2,True
2022-12-03,0.22933350063674515,0.22925349401636486,-0.03488658227348562,0,True
2022-12-04,0.22925349401636486,0.22696884536252282,-0.9965600147751497,2,True
2022-12-05,0.22696884536252282,0.22630690659948438,-0.29164300588531145,2,True
2022-12-06,0.22630690659948438,0.2263529707708096,0.020354735088456977,2,True
2022-12-07,0.2263529707708096,0.22512901716053788,-0.5407278756288214,2,True
2022-12-08,0.22512901716053788,0.2227872767525064,-1.0401770671621624,2,True
2022-12-09,0.2227872767525064,0.2227872767525064,0.0,0,False
2022-12-10,0.2227872767525064,0.2227872767525064,0.0,0,False
2022-12-11,0.2227872767525064,0.2227872767525064,0.0,0,False
2022-12-12,0.2227872767525064,0.2225136513661595,-0.12281912608989032,1,True
2022-12-13,0.2225136513661595,0.22287455614612522,0.16219444413854145,1,True
2022-12-14,0.22287455614612522,0.22278979341281266,-0.038031588162534824,0,True
2022-12-15,0.22278979341281266,0.22278979341281266,0.0,0,False
2022-12-16,0.22278979341281266,0.22309963631151497,0.13907409938129778,5,True
2022-12-17,0.22309963631151497,0.22150488140041494,-0.7148173513260581,7,True
2022-12-18,0.22150488140041494,0.2221355649877344,0.284726721746309,0,True
2022-12-19,0.2221355649877344,0.22102930199342458,-0.49801255119634735,1,True
2022-12-20,0.22102930199342458,0.22102930199342458,0.0,0,False
2022-12-21,0.22102930199342458,0.22102930199342458,0.0,0,False
2022-12-22,0.22102930199342458,0.22102930199342458,0.0,0,False
2022-12-23,0.22102930199342458,0.22102930199342458,0.0,0,False
2022-12-24,0.22102930199342458,0.22102930199342458,0.0,0,False
2022-12-25,0.22102930199342458,0.22102930199342458,0.0,0,False
2022-12-26,0.22102930199342458,0.22102930199342458,0.0,0,False
2022-12-27,0.22102930199342458,0.22102930199342458,0.0,0,False
2022-12-28,0.22102930199342458,0.2224584420158973,0.646583964019043,4,True
2022-12-29,0.2224584420158973,0.2181575751210733,-1.9333349887061702,0,True
2022-12-30,0.2181575751210733,0.22178787194890903,1.6640709477179438,1,True
2022-12-31,0.22178787194890903,0.2227937586847254,0.45353550082669614,0,True
2023-01-01,0.2227937586847254,0.2227937586847254,0.0,0,False
2023-01-02,0.2227937586847254,0.22286662317433203,0.03270490611442245,1,True
2023-01-03,0.22286662317433203,0.22289476728137866,0.012628228779054673,0,True
2023-01-04,0.22289476728137866,0.22289476728137866,0.0,0,False
2023-01-05,0.22289476728137866,0.22289476728137866,0.0,0,False
2023-01-06,0.22289476728137866,0.22250206580235216,-0.1761824576755444,1,True
2023-01-07,0.22250206580235216,0.2232078147551047,0.31718759563315047,0,True
2023-01-08,0.2232078147551047,0.2232078147551047,0.0,0,False
2023-01-09,0.2232078147551047,0.2232250645742437,0.00772814301235325,1,True
2023-01-10,0.2232250645742437,0.22042269036717865,-1.2554030222412638,6,True
2023-01-11,0.22042269036717865,0.21877903081777814,-0.7456852770749367,3,True
2023-01-12,0.21877903081777814,0.21834619839545,-0.19783999440451394,0,True
2023-01-13,0.21834619839545,0.2182930212981125,-0.024354487382083345,1,True
2023-01-14,0.2182930212981125,0.21686412976413302,-0.654574995335333,6,True
2023-01-15,0.21686412976413302,0.21677748685229276,-0.03995262468463601,3,True
2023-01-16,0.21677748685229276,0.21675044922560294,-0.012472525206563834,2,True
2023-01-17,0.21675044922560294,0.21618889713991254,-0.2590777032742908,0,True
2023-01-18,0.21618889713991254,0.21618889713991254,0.0,0,False
2023-01-19,0.21618889713991254,0.2119748768918074,-1.9492306514602875,8,True
2023-01-20,0.2119748768918074,0.21273643389163413,0.3592675750039076,0,True
2023-01-21,0.21273643389163413,0.21236959237034136,-0.1724394428269993,4,True
2023-01-22,0.21236959237034136,0.2143302624252965,0.9232348346443153,2,True
2023-01-23,0.2143302624252965,0.21340693976537622,-0.4307943495576616,1,True
2023-01-24,0.21340693976537622,0.2234138980574956,4.689143803440143,4,True
2023-01-25,0.2234138980574956,0.2198217723388688,-1.607834494567728,11,True
2023-01-26,0.2198217723388688,0.2271082026037724,3.3146990797941145,2,True
2023-01-27,0.2271082026037724,0.2258154300631484,-0.569231989775143,3,True
2023-01-28,0.2258154300631484,0.22821698094517506,1.0635016753970605,0,True
2023-01-29,0.22821698094517506,0.2270778519279209,-0.4991429702278838,1,True
2023-01-30,0.2270778519279209,0.22699924808441344,-0.034615372146651335,5,True
2023-01-31,0.22699924808441344,0.2301245616496096,1.3767946773259654,5,True
2023-02-01,0.2301245616496096,0.22855803395477448,-0.6807303330012782,2,True
2023-02-02,0.22855803395477448,0.22855803395477448,0.0,0,False
2023-02-03,0.22855803395477448,0.23013818466647518,0.6913564508580716,4,True
2023-02-04,0.23013818466647518,0.23048674800333835,0.15145828032332442,0,True
2023-02-05,0.23048674800333835,0.23140873674645987,0.4000181143204662,6,True
2023-02-06,0.23140873674645987,0.22485057996900915,-2.8340143374258497,2,True
2023-02-07,0.22485057996900915,0.22485057996900915,0.0,0,False
2023-02-08,0.22485057996900915,0.22026299547490827,-2.040281370291852,5,True
2023-02-09,0.22026299547490827,0.21611192350738798,-1.8845979818671643,10,True
2023-02-10,0.21611192350738798,0.206262834843429,-4.557401787052385,10,True
2023-02-11,0.206262834843429,0.20482032222864233,-0.6993565350159492,2,True
2023-02-12,0.20482032222864233,0.2068811899865866,1.0061832417408878,2,True
2023-02-13,0.2068811899865866,0.20678152842102634,-0.048173333480305836,3,True
2023-02-14,0.20678152842102634,0.20660902366608097,-0.08342367728036981,1,True
2023-02-15,0.20660902366608097,0.20704159912254086,0.20936910149627064,0,True
2023-02-16,0.20704159912254086,0.20704159912254086,0.0,0,False
2023-02-17,0.20704159912254086,0.2094227393811346,1.1500781817205707,1,True
2023-02-18,0.2094227393811346,0.20925727304128344,-0.07901068448445958,1,True
2023-02-19,0.20925727304128344,0.20978323196860302,0.2513455898929706,2,True
2023-02-20,0.20978323196860302,0.20961881974286814,-0.07837243434188901,6,True
2023-02-21,0.20961881974286814,0.21220520790665193,1.233853032354837,10,True
2023-02-22,0.21220520790665193,0.2083559738308804,-1.8139206448999134,3,True
2023-02-23,0.2083559738308804,0.21026666480650433,0.917032010406782,2,True
2023-02-24,0.21026666480650433,0.20900140276070678,-0.6017416250749474,1,True
2023-02-25,0.20900140276070678,0.20636997289436998,-1.2590489018629247,3,True
2023-02-26,0.20636997289436998,0.20600111534725818,-0.17873605444557183,2,True
2023-02-27,0.20600111534725818,0.20497266939383368,-0.4992429054040959,1,True
2023-02-28,0.20497266939383368,0.20306381664279538,-0.9312718406231268,3,True
2023-03-01,0.20306381664279538,0.20192739950743965,-0.5596354654136992,1,True
2023-03-02,0.20192739950743965,0.20092357054478574,-0.4971237014404939,1,True
2023-03-03,0.20092357054478574,0.20040900939623044,-0.2560979516540107,9,True
2023-03-04,0.20040900939623044,0.2013243298572175,0.4567262039489206,0,True
2023-03-05,0.2013243298572175,0.20415092650512848,1.4040015183041543,4,True
2023-03-06,0.20415092650512848,0.20357651613911168,-0.28136554452637963,0,True
2023-03-07,0.20357651613911168,0.20357651613911168,0.0,0,False
2023-03-08,0.20357651613911168,0.20357651613911168,0.0,0,False
2023-03-09,0.20357651613911168,0.20357651613911168,0.0,0,False
2023-03-10,0.20357651613911168,0.19607998793015563,-3.6824130558523627,12,True
2023-03-11,0.19607998793015563,0.19218651931794806,-1.9856532292293116,6,True
2023-03-12,0.19218651931794806,0.1932273024518359,0.541548459060226,0,True
2023-03-13,0.1932273024518359,0.1932273024518359,0.0,0,False
2023-03-14,0.1932273024518359,0.19512476116732322,0.9819827174579965,1,True
2023-03-15,0.19512476116732322,0.19234055164902603,-1.4268868295550075,6,True
2023-03-16,0.19234055164902603,0.19279983033835632,0.2387841177498462,7,True
2023-03-17,0.19279983033835632,0.19165076882378856,-0.5959867872037061,3,True
2023-03-18,0.19165076882378856,0.19576669265176133,2.147616653579476,3,True
2023-03-19,0.19576669265176133,0.19742118190104865,0.8451331668714479,3,True
2023-03-20,0.19742118190104865,0.2014328409019157,2.032030688012898,5,True
2023-03-21,0.2014328409019157,0.19772981308620352,-1.838343638074047,3,True
2023-03-22,0.19772981308620352,0.197577022473114,-0.0772724207365183,0,True
2023-03-23,0.197577022473114,0.20385170686374526,3.1758168597186387,8,True
2023-03-24,0.20385170686374526,0.20329739590078919,-0.27191872537353223,1,True
2023-03-25,0.20329739590078919,0.20228278649095907,-0.4990764418474125,1,True
2023-03-26,0.20228278649095907,0.20228278649095907,0.0,0,False
2023-03-27,0.20228278649095907,0.20127575882722126,-0.4978316154364504,1,True
2023-03-28,0.20127575882722126,0.20660640260943544,2.6484281133875243,4,True
2023-03-29,0.20660640260943544,0.20688221437961207,0.13349623568927882,1,True
2023-03-30,0.20688221437961207,0.2063367523876266,-0.26365823356114815,2,True
2023-03-31,0.2063367523876266,0.2063367523876266,0.0,0,False
2023-04-01,0.2063367523876266,0.20608285603635282,-0.12304950443187135,1,True
2023-04-02,0.20608285603635282,0.20530640971286568,-0.37676415128397034,0,True
2023-04-03,0.20530640971286568,0.20530640971286568,0.0,0,False
2023-04-04,0.20530640971286568,0.2032642373043808,-0.9946949105685388,2,True
2023-04-05,0.2032642373043808,0.20228494458225427,-0.4817830893981023,2,True
2023-04-06,0.20228494458225427,0.19653032446289584,-2.844808906190466,6,True
2023-04-07,0.19653032446289584,0.1949699462459872,-0.7939630798315944,1,True
2023-04-08,0.1949699462459872,0.19552057587447913,0.2824176951852886,1,True
2023-04-09,0.19552057587447913,0.19558403042964592,0.03245415725838807,0,True
2023-04-10,0.19558403042964592,0.19558403042964592,0.0,0,False
2023-04-11,0.19558403042964592,0.19558403042964592,0.0,0,False
2023-04-12,0.19558403042964592,0.19690967539221446,0.6777879357821037,1,True
2023-04-13,0.19690967539221446,0.19703779129353208,0.06506328399680239,0,True
2023-04-14,0.19703779129353208,0.19901528787122297,1.0036128423430046,2,True
2023-04-15,0.19901528787122297,0.19807533125559917,-0.4723037238385519,1,True
2023-04-16,0.19807533125559917,0.19759573873219455,-0.24212632656701594,1,True
2023-04-17,0.19759573873219455,0.19445404651169723,-1.5899595004704614,4,True
2023-04-18,0.19445404651169723,0.19414784290995982,-0.15746836192426228,0,True
2023-04-19,0.19414784290995982,0.1901385990050218,-2.065046845149543,10,True
2023-04-20,0.1901385990050218,0.1866111564305842,-1.8551954168676943,0,True
2023-04-21,0.1866111564305842,0.18568024365606695,-0.49885161869384076,1,True
2023-04-22,0.18568024365606695,0.18538996348082876,-0.15633336617969507,1,True
2023-04-23,0.18538996348082876,0.18541484580325962,0.013421612456077092,0,True
2023-04-24,0.18541484580325962,0.18541484580325962,0.0,0,False
2023-04-25,0.18541484580325962,0.18541484580325962,0.0,0,False
2023-04-26,0.18541484580325962,0.18541484580325962,0.0,0,False
2023-04-27,0.18541484580325962,0.18268180560011404,-1.4740136860699637,12,True
2023-04-28,0.18268180560011404,0.1861175987793266,1.8807528029000542,0,True
2023-04-29,0.1861175987793266,0.18519061977709236,-0.49806090789583646,1,True
2023-04-30,0.18519061977709236,0.18519061977709236,0.0,0,False
2023-05-01,0.18519061977709236,0.18519061977709236,0.0,0,False
2023-05-02,0.18519061977709236,0.18519061977709236,0.0,0,False
2023-05-03,0.18519061977709236,0.18519061977709236,0.0,0,False
2023-05-04,0.18519061977709236,0.18519061977709236,0.0,0,False
2023-05-05,0.18519061977709236,0.18519061977709236,0.0,0,False
2023-05-06,0.18519061977709236,0.1833502295348857,-0.9937815664864069,2,True
2023-05-07,0.1833502295348857,0.1833502295348857,0.0,0,False
2023-05-08,0.1833502295348857,0.17919318585368044,-2.267269417524398,8,True
2023-05-09,0.17919318585368044,0.17774912452965952,-0.8058684358679069,6,True
2023-05-10,0.17774912452965952,0.17656057449661863,-0.6686671656954135,2,True
2023-05-11,0.17656057449661863,0.1750550298106377,-0.8527071744489412,5,True
2023-05-12,0.1750550298106377,0.17344336764054447,-0.9206603042692385,0,True
2023-05-13,0.17344336764054447,0.17257738195380515,-0.49929017091852046,1,True
2023-05-14,0.17257738195380515,0.17257738195380515,0.0,0,False
2023-05-15,0.17257738195380515,0.17257738195380515,0.0,0,False
2023-05-16,0.17257738195380515,0.17257738195380515,0.0,0,False
2023-05-17,0.17257738195380515,0.17257738195380515,0.0,0,False
2023-05-18,0.17257738195380515,0.1717164851738784,-0.49884681884743154,1,True
2023-05-19,0.1717164851738784,0.1717164851738784,0.0,0,False
2023-05-20,0.1717164851738784,0.1717164851738784,0.0,0,False
2023-05-21,0.1717164851738784,0.1717164851738784,0.0,0,False
2023-05-22,0.1717164851738784,0.17085973734755158,-0.49893161128897745,1,True
2023-05-23,0.17085973734755158,0.17085973734755158,0.0,0,False
2023-05-24,0.17085973734755158,0.1700084213572387,-0.498254301176404,1,True
2023-05-25,0.1700084213572387,0.17035895737918036,0.20618744597662442,1,True
2023-05-26,0.17035895737918036,0.17095120178433768,0.347645004564745,1,True
2023-05-27,0.17095120178433768,0.16921002224515352,-1.0185243046028525,3,True
2023-05-28,0.16921002224515352,0.16921002224515352,0.0,0,False
2023-05-29,0.16921002224515352,0.16998638953719256,0.4588187400118793,1,True
2023-05-30,0.16998638953719256,0.17036967819842502,0.22548197080720644,2,True
2023-05-31,0.17036967819842502,0.16942123219463237,-0.5566988291707764,2,True
2023-06-01,0.16942123219463237,0.169681300299937,0.15350384478720613,0,True
2023-06-02,0.169681300299937,0.17241204633891188,1.6093382324085637,3,True
2023-06-03,0.17241204633891188,0.1686692150483898,-2.1708641420360886,3,True
2023-06-04,0.1686692150483898,0.16682583297467646,-1.0928977603793855,4,True
2023-06-05,0.16682583297467646,0.1685012454892156,1.004288415447907,1,True
2023-06-06,0.1685012454892156,0.1635061052166027,-2.9644530271039526,12,True
2023-06-07,0.1635061052166027,0.1624494418239887,-0.6462531727571719,2,True
2023-06-08,0.1624494418239887,0.16001549864399311,-1.498277342579446,3,True
2023-06-09,0.16001549864399311,0.15932752716102783,-0.4299405300082215,1,True
2023-06-10,0.15932752716102783,0.1636500755971867,2.7129953707184518,8,True
2023-06-11,0.1636500755971867,0.1636078741607903,-0.025787605806093516,0,True
2023-06-12,0.1636078741607903,0.1636078741607903,0.0,0,False
2023-06-13,0.1636078741607903,0.16299254192558765,-0.37610184617271614,2,True
2023-06-14,0.16299254192558765,0.1629798051944528,-0.00781430302539965,0,True
2023-06-15,0.1629798051944528,0.16264340840722688,-0.2064039693902897,7,True
2023-06-16,0.16264340840722688,0.1653659447870606,1.6739297377591944,0,True
2023-06-17,0.1653659447870606,0.16572221187669342,0.21544163164404218,1,True
2023-06-18,0.16572221187669342,0.16602228646050296,0.18107082955953757,0,True
2023-06-19,0.16602228646050296,0.1672365371468592,0.731378125336879,1,True
2023-06-20,0.1672365371468592,0.16659841700556505,-0.381567420720863,1,True
2023-06-21,0.16659841700556505,0.16659841700556505,0.0,0,False
2023-06-22,0.16659841700556505,0.16781229879735604,0.7286274465323705,6,True
2023-06-23,0.16781229879735604,0.16653960563164935,-0.7584027957590611,0,True
2023-06-24,0.16653960563164935,0.16654278974727046,0.0019119269611733714,1,True
2023-06-25,0.16654278974727046,0.16487725506504294,-1.0000641185097137,7,True
2023-06-26,0.16487725506504294,0.1654698933648047,0.35944211924681113,0,True
2023-06-27,0.1654698933648047,0.1654698933648047,0.0,0,False
2023-06-28,0.1654698933648047,0.1654698933648047,0.0,0,False
2023-06-29,0.1654698933648047,0.16513640116190942,-0.20154252602316847,2,True
2023-06-30,0.16513640116190942,0.16431421774621585,-0.4978813937500326,9,True
2023-07-01,0.16431421774621585,0.16562830356498542,0.7997395701929921,2,True
2023-07-02,0.16562830356498542,0.16557853853861698,-0.030046209070133667,0,True
2023-07-03,0.16557853853861698,0.16557853853861698,0.0,0,False
2023-07-04,0.16557853853861698,0.16526871422765319,-0.18711622514504533,1,True
2023-07-05,0.16526871422765319,0.16310469515175294,-1.3093942710290407,2,True
2023-07-06,0.16310469515175294,0.16315181683704089,0.02889045299652171,4,True
2023-07-07,0.16315181683704089,0.1621649644202534,-0.6048675619549915,0,True
2023-07-08,0.1621649644202534,0.1621649644202534,0.0,0,False
2023-07-09,0.1621649644202534,0.1621649644202534,0.0,0,False
2023-07-10,0.1621649644202534,0.1621373207487275,-0.017046636198359,1,True
2023-07-11,0.1621373207487275,0.1615827120500559,-0.3420610974145255,0,True
2023-07-12,0.1615827120500559,0.16110640605129664,-0.2947753461469915,1,True
2023-07-13,0.16110640605129664,0.1609233351090278,-0.1136335585628867,0,True
2023-07-14,0.1609233351090278,0.16012063609476224,-0.4988083385928488,1,True
2023-07-15,0.16012063609476224,0.161112091889718,0.6191930154268332,7,True
2023-07-16,0.161112091889718,0.16138800891013902,0.17125779771383076,2,True
2023-07-17,0.16138800891013902,0.16029480576193728,-0.677375695743565,3,True
2023-07-18,0.16029480576193728,0.15775869529067638,-1.5821538690576231,2,True
2023-07-19,0.15775869529067638,0.15697297091431603,-0.4980545604238329,1,True
2023-07-20,0.15697297091431603,0.15607292014450055,-0.5733794579875551,2,True
2023-07-21,0.15607292014450055,0.1559705012159286,-0.06562248497505863,0,True
2023-07-22,0.1559705012159286,0.1559705012159286,0.0,0,False
2023-07-23,0.1559705012159286,0.1559705012159286,0.0,0,False
2023-07-24,0.1559705012159286,0.1523264001704519,-2.336404010417148,7,True
2023-07-25,0.1523264001704519,0.15220646580569935,-0.07873511395157795,0,True
2023-07-26,0.15220646580569935,0.15220646580569935,0.0,0,False
2023-07-27,0.15220646580569935,0.15220646580569935,0.0,0,False
2023-07-28,0.15220646580569935,0.15220646580569935,0.0,0,False
2023-07-29,0.15220646580569935,0.15220646580569935,0.0,0,False
2023-07-30,0.15220646580569935,0.15220646580569935,0.0,0,False
2023-07-31,0.15220646580569935,0.15144885181939188,-0.49775414092763093,1,True
2023-08-01,0.15144885181939188,0.15279915979953756,0.8915934085495625,3,True
2023-08-02,0.15279915979953756,0.15425039259042464,0.949764902366601,0,True
2023-08-03,0.15425039259042464,0.15425039259042464,0.0,0,False
2023-08-04,0.15425039259042464,0.15425039259042464,0.0,0,False
2023-08-05,0.15425039259042464,0.15425039259042464,0.0,0,False
2023-08-06,0.15425039259042464,0.15448645494648067,0.15303841506766336,1,True
2023-08-07,0.15448645494648067,0.1526170011492348,-1.2101085482824514,3,True
2023-08-08,0.1526170011492348,0.14919220613147094,-2.244045546678619,5,True
2023-08-09,0.14919220613147094,0.148417086193798,-0.5195445243231234,0,True
2023-08-10,0.148417086193798,0.14767783438413035,-0.49809077150482217,1,True
2023-08-11,0.14767783438413035,0.14767783438413035,0.0,0,False
2023-08-12,0.14767783438413035,0.14767783438413035,0.0,0,False
2023-08-13,0.14767783438413035,0.15002439092338865,1.5889700367318405,2,True
2023-08-14,0.15002439092338865,0.14748862581541758,-1.6902352293274636,7,True
2023-08-15,0.14748862581541758,0.14523392445132713,-1.5287289793534442,2,True
2023-08-16,0.14523392445132713,0.1468758247714464,1.1305212100562123,8,True
2023-08-17,0.1468758247714464,0.14465816815855226,-1.5098853853893424,6,True
2023-08-18,0.14465816815855226,0.15157622512104724,4.782347965938882,7,True
2023-08-19,0.15157622512104724,0.1545625743040217,1.9701963026125036,2,True
2023-08-20,0.1545625743040217,0.15412293790675452,-0.284439101281031,1,True
2023-08-21,0.15412293790675452,0.15355471632567327,-0.368680735521032,1,True
2023-08-22,0.15355471632567327,0.15304512903317333,-0.33186039783966725,3,True
2023-08-23,0.15304512903317333,0.15451494520675488,0.9603808908305478,1,True
2023-08-24,0.15451494520675488,0.1546296361300095,0.07422642715961825,0,True
2023-08-25,0.1546296361300095,0.1545200760249873,-0.070853238592683,8,True
2023-08-26,0.1545200760249873,0.1550765966919867,0.36016075148022075,1,True
2023-08-27,0.1550765966919867,0.15499436123840168,-0.053028925923848114,0,True
2023-08-28,0.15499436123840168,0.1534540777110556,-0.9937674603380797,2,True
2023-08-29,0.1534540777110556,0.15446019983022352,0.6556502988877222,3,True
2023-08-30,0.15446019983022352,0.1519839324177382,-1.6031750672387712,3,True
2023-08-31,0.1519839324177382,0.15340381884830886,0.9342345654460571,3,True
2023-09-01,0.15340381884830886,0.15129635839862524,-1.373799208849913,3,True
2023-09-02,0.15129635839862524,0.15319929630514595,1.257755260379101,7,True
2023-09-03,0.15319929630514595,0.15692473566392431,2.4317600985306997,3,True
2023-09-04,0.15692473566392431,0.15519638764695484,-1.1013866040029296,7,True
2023-09-05,0.15519638764695484,0.15731868500607765,1.3674914676175876,2,True
2023-09-06,0.15731868500607765,0.15980001903817298,1.5772659376090514,5,True
2023-09-07,0.15980001903817298,0.1609700490522664,0.732183901563821,3,True
2023-09-08,0.1609700490522664,0.15798778792533974,-1.8526807592375905,7,True
2023-09-09,0.15798778792533974,0.1549831972495294,-1.9017866603906364,7,True
2023-09-10,0.1549831972495294,0.14995049539772098,-3.2472564388419056,7,True
2023-09-11,0.14995049539772098,0.14880033393886202,-0.7670274484978035,2,True
2023-09-12,0.14880033393886202,0.14831591504713612,-0.32554959985837684,2,True
2023-09-13,0.14831591504713612,0.14750718227361914,-0.545277135808353,2,True
2023-09-14,0.14750718227361914,0.14709153746894985,-0.2817793671214597,4,True
2023-09-15,0.14709153746894985,0.14774688060115138,0.4455342186765021,0,True
2023-09-16,0.14774688060115138,0.14744517925595763,-0.20420149918982666,6,True
2023-09-17,0.14744517925595763,0.14787540925201847,0.29178980162789525,5,True
2023-09-18,0.14787540925201847,0.14353457100346714,-2.9354699814581053,4,True
2023-09-19,0.14353457100346714,0.14515171598802926,1.126658876155373,1,True
2023-09-20,0.14515171598802926,0.14633124020425517,0.812614723978311,3,True
2023-09-21,0.14633124020425517,0.1474419931744392,0.7590675570258387,2,True
2023-09-22,0.1474419931744392,0.1503893589294891,1.9990002112646676,1,True
2023-09-23,0.1503893589294891,0.14935974185160028,-0.6846342621698143,1,True
2023-09-24,0.14935974185160028,0.14861606110161873,-0.49791245000975204,1,True
2023-09-25,0.14861606110161873,0.14852083053677687,-0.06407824574004017,1,True
2023-09-26,0.14852083053677687,0.14872816752302018,0.13960128386971693,1,True
2023-09-27,0.14872816752302018,0.14771022942729195,-0.6844285871878797,1,True
2023-09-28,0.14771022942729195,0.14833387433061396,0.4222083370529095,2,True
2023-09-29,0.14833387433061396,0.14651204870428775,-1.2281925720254772,2,True
2023-09-30,0.14651204870428775,0.14651204870428775,0.0,0,False
2023-10-01,0.14651204870428775,0.14633785970064866,-0.11889056577910617,1,True
2023-10-02,0.14633785970064866,0.14770987786643483,0.9375688346083377,1,True
2023-10-03,0.14770987786643483,0.14703885711486567,-0.45428292356718414,3,True
2023-10-04,0.14703885711486567,0.14256519874765958,-3.042500774955903,7,True
2023-10-05,0.14256519874765958,0.14107625036015636,-1.044398212595099,2,True
2023-10-06,0.14107625036015636,0.14107150458472253,-0.0033639789983830326,0,True
2023-10-07,0.14107150458472253,0.14036916082082704,-0.49786366563752127,1,True
2023-10-08,0.14036916082082704,0.13998857253977054,-0.2711338294187682,1,True
2023-10-09,0.13998857253977054,0.13709226052484333,-2.0689631749079895,5,True
2023-10-10,0.13709226052484333,0.13552207101004643,-1.145352413612255,1,True
2023-10-11,0.13552207101004643,0.13552207101004643,0.0,0,False
2023-10-12,0.13552207101004643,0.13552207101004643,0.0,0,False
2023-10-13,0.13552207101004643,0.13552207101004643,0.0,0,False
2023-10-14,0.13552207101004643,0.13552207101004643,0.0,0,False
2023-10-15,0.13552207101004643,0.13550556419287624,-0.012180168917996781,1,True
2023-10-16,0.13550556419287624,0.13583271263928412,0.24142805378990495,2,True
2023-10-17,0.13583271263928412,0.13651876049503608,0.5050682139977836,2,True
2023-10-18,0.13651876049503608,0.1347189778486799,-1.3183408930977136,4,True
2023-10-19,0.1347189778486799,0.13158824983117373,-2.323895317126501,5,True
2023-10-20,0.13158824983117373,0.13112967167165593,-0.3484947631009261,0,True
2023-10-21,0.13112967167165593,0.13121662525662708,0.06631114366615343,2,True
2023-10-22,0.13121662525662708,0.13224588963930364,0.7844008948283632,1,True
2023-10-23,0.13224588963930364,0.13224588963930364,0.0,0,False
2023-10-24,0.13224588963930364,0.13004135576391027,-1.666996139846899,8,True
2023-10-25,0.13004135576391027,0.13363301700644795,2.7619377093071273,7,True
2023-10-26,0.13363301700644795,0.1356667574029154,1.5218846674466047,6,True
2023-10-27,0.1356667574029154,0.1352778632548425,-0.286653971479478,5,True
2023-10-28,0.1352778632548425,0.13594636284403105,0.49416776189701306,2,True
2023-10-29,0.13594636284403105,0.13630474044277824,0.2636169083525486,0,True
2023-10-30,0.13630474044277824,0.13574765739842168,-0.4087040865540792,2,True
2023-10-31,0.13574765739842168,0.13239574527094342,-2.4692228151240503,6,True
2023-11-01,0.13239574527094342,0.13201083383077544,-0.2907279530624418,5,True
2023-11-02,0.13201083383077544,0.13137111887171513,-0.4845927720450338,4,True
2023-11-03,0.13137111887171513,0.12916361817426375,-1.6803546444687067,2,True
2023-11-04,0.12916361817426375,0.12799394047382381,-0.905578302136012,4,True
2023-11-05,0.12799394047382381,0.12752653072056622,-0.3651811574261088,6,True
2023-11-06,0.12752653072056622,0.12595703293425495,-1.2307225621547957,5,True
2023-11-07,0.12595703293425495,0.12359205574697042,-1.8776063012844735,5,True
2023-11-08,0.12359205574697042,0.12412346445848943,0.42996995907809143,0,True
2023-11-09,0.12412346445848943,0.1256703500810994,1.246247540187917,6,True
2023-11-10,0.1256703500810994,0.12244828204462667,-2.5639047192861364,12,True
2023-11-11,0.12244828204462667,0.12209257885811164,-0.29049259048435916,6,True
2023-11-12,0.12209257885811164,0.12218526069810669,0.07591111668037165,6,True
2023-11-13,0.12218526069810669,0.12147487585909798,-0.5813997817330163,4,True
2023-11-14,0.12147487585909798,0.11986747226953363,-1.3232395408486086,8,True
2023-11-15,0.11986747226953363,0.1186073597891756,-1.0512547370020053,3,True
2023-11-16,0.1186073597891756,0.11641384069009691,-1.8493954363183351,4,True
2023-11-17,0.11641384069009691,0.11625732443305074,-0.13444815162728663,5,True
2023-11-18,0.11625732443305074,0.11448792961871695,-1.521964162656031,6,True
2023-11-19,0.11448792961871695,0.11209532136026719,-2.0898345060636037,4,True
2023-11-20,0.11209532136026719,0.11249847181218905,0.35964966871915305,2,True
2023-11-21,0.11249847181218905,0.10915235248884299,-2.974368690920759,5,True
2023-11-22,0.10915235248884299,0.10820871125040911,-0.8645175453550924,6,True
2023-11-23,0.10820871125040911,0.10734343868089602,-0.7996330050643818,3,True
2023-11-24,0.10734343868089602,0.11036619997337191,2.815972107491138,1,True
2023-11-25,0.11036619997337191,0.11026120804290795,-0.09513051141498696,5,True
2023-11-26,0.11026120804290795,0.11004638904089967,-0.19482736115560284,0,True
2023-11-27,0.11004638904089967,0.10979054776269476,-0.23248493697491934,6,True
2023-11-28,0.10979054776269476,0.10855962059897725,-1.1211595067164404,4,True
2023-11-29,0.10855962059897725,0.10892495588024809,0.3365296223909908,5,True
2023-11-30,0.10892495588024809,0.10747219448330331,-1.3337268628705656,3,True
2023-12-01,0.10747219448330331,0.10743823767783105,-0.031595898488456786,0,True
2023-12-02,0.10743823767783105,0.10836292601892682,0.8606696843525885,1,True
2023-12-03,0.10836292601892682,0.10934208296447791,0.9035903528297862,4,True
2023-12-04,0.10934208296447791,0.11011129986344009,0.7034957429995936,6,True
2023-12-05,0.11011129986344009,0.10935755738402107,-0.6845278189920645,5,True
2023-12-06,0.10935755738402107,0.10686562692644656,-2.2786998147954485,6,True
2023-12-07,0.10686562692644656,0.1056118684974511,-1.1732101940115869,5,True
2023-12-08,0.1056118684974511,0.10407073137881727,-1.4592461439795756,2,True
2023-12-09,0.10407073137881727,0.10407073137881727,0.0,0,False
2023-12-10,0.10407073137881727,0.10394951494330763,-0.11647504913596674,3,True
2023-12-11,0.10394951494330763,0.10571806003120983,1.7013500148285843,6,True
2023-12-12,0.10571806003120983,0.10792303929682906,2.0857167308672597,1,True
2023-12-13,0.10792303929682906,0.10685501219074948,-0.9896191888574379,6,True
2023-12-14,0.10685501219074948,0.1081110987577157,1.1755055202501419,2,True
2023-12-15,0.1081110987577157,0.10566856498517618,-2.2592812399524265,4,True
2023-12-16,0.10566856498517618,0.10726166478184807,1.5076383377548241,5,True
2023-12-17,0.10726166478184807,0.10428426685832656,-2.7758266940728693,6,True
2023-12-18,0.10428426685832656,0.1047102351710185,0.40846843490842666,8,True
2023-12-19,0.1047102351710185,0.10427040651332635,-0.4200436155776033,4,True
2023-12-20,0.10427040651332635,0.10366850105732346,-0.5772543486976422,2,True
2023-12-21,0.10366850105732346,0.10166339072929975,-1.934155801977866,3,True
2023-12-22,0.10166339072929975,0.10104239307579468,-0.610837046699142,2,True
2023-12-23,0.10104239307579468,0.10092732970078372,-0.11387633596984248,3,True
2023-12-24,0.10092732970078372,0.11078489637265677,9.766994431634624,3,True
2023-12-25,0.11078489637265677,0.10658126815472668,-3.7944055151615474,5,True
2023-12-26,0.10658126815472668,0.10516544638879582,-1.3283964344236177,3,True
2023-12-27,0.10516544638879582,0.10473906890647951,-0.40543495697247245,11,True
2023-12-28,0.10473906890647951,0.10227242623665912,-2.3550358959394835,8,True
2023-12-29,0.10227242623665912,0.1029337434332496,0.6466231622003216,3,True
2023-12-30,0.1029337434332496,0.10242084362650787,-0.498281505786613,3,True
2023-12-31,0.10242084362650787,0.10078078399473102,-1.6012947889372575,3,True
