day,start_equity,end_equity,return_pct,entries,active
2024-01-02,1.0,1.0,0.0,0,False
2024-01-03,1.0,0.9927789230118099,-0.7221076988190078,6,True
2024-01-04,0.9927789230118099,0.9988114880796243,0.6076443534390519,1,True
2024-01-05,0.9988114880796243,0.9975907178106028,-0.1222222895502112,1,True
2024-01-06,0.9975907178106028,0.9972550799659069,-0.0336448443939541,2,True
2024-01-07,0.9972550799659069,0.9953582447487916,-0.19020562093101656,1,True
2024-01-08,0.9953582447487916,0.9997065387477706,0.436857184025885,3,True
2024-01-09,0.9997065387477706,1.0148217148674945,1.511961314032928,0,True
2024-01-10,1.0148217148674945,1.0148217148674945,0.0,0,False
2024-01-11,1.0148217148674945,1.0154963795109546,0.06648110043134814,1,True
2024-01-12,1.0154963795109546,1.0134595148711432,-0.20057822764394384,2,True
2024-01-13,1.0134595148711432,1.017097148011307,0.35893225992615907,4,True
2024-01-14,1.017097148011307,1.0219315333099765,0.47531204940669536,0,True
2024-01-15,1.0219315333099765,1.0219315333099765,0.0,0,False
2024-01-16,1.0219315333099765,1.0214781053458046,-0.04436970084514824,1,True
2024-01-17,1.0214781053458046,1.0257371573215843,0.41694990362401985,0,True
2024-01-18,1.0257371573215843,1.0257371573215843,0.0,0,False
2024-01-19,1.0257371573215843,1.0257371573215843,0.0,0,False
2024-01-20,1.0257371573215843,1.0391386157480338,1.3065197385891292,6,True
2024-01-21,1.0391386157480338,1.041300068009874,0.2080042286066286,0,True
2024-01-22,1.041300068009874,1.041300068009874,0.0,0,False
2024-01-23,1.041300068009874,1.0186060282457043,-2.179394822046099,8,True
2024-01-24,1.0186060282457043,1.0186060282457043,0.0,0,False
2024-01-25,1.0186060282457043,1.0135221466739288,-0.4991018539848291,1,True
2024-01-26,1.0135221466739288,1.0135221466739288,0.0,0,False
2024-01-27,1.0135221466739288,1.0135221466739288,0.0,0,False
2024-01-28,1.0135221466739288,1.0135221466739288,0.0,0,False
2024-01-29,1.0135221466739288,1.0135221466739288,0.0,0,False
2024-01-30,1.0135221466739288,1.0135221466739288,0.0,0,False
2024-01-31,1.0135221466739288,1.0084591787260127,-0.49954191573724493,1,True
2024-02-01,1.0084591787260127,1.0084591787260127,0.0,0,False
2024-02-02,1.0084591787260127,1.007980494284435,-0.04746691305664852,2,True
2024-02-03,1.007980494284435,1.015881658460053,0.7838608207619169,1,True
2024-02-04,1.015881658460053,1.0141559514475114,-0.1698728388459636,1,True
2024-02-05,1.0141559514475114,1.0141559514475114,0.0,0,False
2024-02-06,1.0141559514475114,1.0091018692135363,-0.4983535546738471,1,True
2024-02-07,1.0091018692135363,1.0082117283512804,-0.08821119942525879,3,True
2024-02-08,1.0082117283512804,1.0196051432341384,1.130061728352394,0,True
2024-02-09,1.0196051432341384,1.0196051432341384,0.0,0,False
2024-02-10,1.0196051432341384,1.0196051432341384,0.0,0,False
2024-02-11,1.0196051432341384,1.0196051432341384,0.0,0,False
2024-02-12,1.0196051432341384,1.0196051432341384,0.0,0,False
2024-02-13,1.0196051432341384,1.0196051432341384,0.0,0,False
2024-02-14,1.0196051432341384,1.020755657669812,0.11283921460265578,1,True
2024-02-15,1.020755657669812,1.0182791661194897,-0.24261355121711903,0,True
2024-02-16,1.0182791661194897,1.0232290573907075,0.4861035594080798,1,True
2024-02-17,1.0232290573907075,1.0191478110222598,-0.39885950647795543,2,True
2024-02-18,1.0191478110222598,1.019514615438629,0.03599128726983203,0,True
2024-02-19,1.019514615438629,1.019514615438629,0.0,0,False
2024-02-20,1.019514615438629,1.020638521473448,0.11023932543972048,6,True
2024-02-21,1.020638521473448,1.0066343653330734,-1.372097549302509,5,True
2024-02-22,1.0066343653330734,1.029520860989378,2.273565898848684,2,True
2024-02-23,1.029520860989378,1.0357393845237546,0.6040211296350462,1,True
2024-02-24,1.0357393845237546,1.0424450196621318,0.6474249447857572,2,True
2024-02-25,1.0424450196621318,1.0402099367480337,-0.21440775023534586,1,True
2024-02-26,1.0402099367480337,1.0453852409165263,0.49752496930302037,0,True
2024-02-27,1.0453852409165263,1.0451634427331875,-0.02121688490114293,1,True
2024-02-28,1.0451634427331875,1.044904779623031,-0.024748579942679427,1,True
2024-02-29,1.044904779623031,1.064508663726445,1.8761407245630801,5,True
2024-03-01,1.064508663726445,1.0602539532149111,-0.3996877297963608,1,True
2024-03-02,1.0602539532149111,1.0597114078092282,-0.05117126930183069,1,True
2024-03-03,1.0597114078092282,1.0613644420281023,0.15598909351097756,6,True
2024-03-04,1.0613644420281023,1.0820492393870378,1.9488873510224325,0,True
2024-03-05,1.0820492393870378,1.0756508503270623,-0.5913214322483151,5,True
2024-03-06,1.0756508503270623,1.0497436339570314,-2.408515399039901,3,True
2024-03-07,1.0497436339570314,1.0497436339570314,0.0,0,False
2024-03-08,1.0497436339570314,1.050330972476705,0.05595066268317961,2,True
2024-03-09,1.050330972476705,1.0475074015515147,-0.2688267792895993,3,True
2024-03-10,1.0475074015515147,1.0594861627912484,1.143549078697803,2,True
2024-03-11,1.0594861627912484,1.0522695130204935,-0.6811462031502513,0,True
2024-03-12,1.0522695130204935,1.0483472187096274,-0.3727461702855317,1,True
2024-03-13,1.0483472187096274,1.052313188461793,0.37830688930018397,2,True
2024-03-14,1.052313188461793,1.0610983127309128,0.8348393202181059,1,True
2024-03-15,1.0610983127309128,1.0393448359510324,-2.050090601302923,6,True
2024-03-16,1.0393448359510324,1.037247932635295,-0.20175241586866122,1,True
2024-03-17,1.037247932635295,1.014591279641551,-2.184304473490839,4,True
2024-03-18,1.014591279641551,1.014591279641551,0.0,0,False
2024-03-19,1.014591279641551,0.9932684106246208,-2.1016215538993688,7,True
2024-03-20,0.9932684106246208,0.9932684106246208,0.0,0,False
2024-03-21,0.9932684106246208,0.9959310826366706,0.26807175015013396,2,True
2024-03-22,0.9959310826366706,0.9967104039021732,0.07825052145569167,0,True
2024-03-23,0.9967104039021732,0.9982347836034633,0.15294108452386102,1,True
2024-03-24,0.9982347836034633,0.9957336711431896,-0.25055352722183066,2,True
2024-03-25,0.9957336711431896,1.0034260796056347,0.7725367420400309,2,True
2024-03-26,1.0034260796056347,1.0166095051286659,1.3138412276679556,2,True
2024-03-27,1.0166095051286659,1.0156991339826678,-0.08954973777103303,2,True
2024-03-28,1.0156991339826678,1.0115832012616643,-0.4052314886657804,0,True
2024-03-29,1.0115832012616643,1.0005117495493572,-1.0944677312255346,4,True
2024-03-30,1.0005117495493572,1.0004296050229935,-0.008210251044094008,0,True
2024-03-31,1.0004296050229935,1.0004296050229935,0.0,0,False
2024-04-01,1.0004296050229935,0.9987377633136985,-0.169111519771159,4,True
2024-04-02,0.9987377633136985,0.9781911098305599,-2.057262100009827,5,True
2024-04-03,0.9781911098305599,0.9757493716068101,-0.24961770754313717,1,True
2024-04-04,0.9757493716068101,0.9754653041939259,-0.029112743615344883,1,True
2024-04-05,0.9754653041939259,0.9683547992831163,-0.7289346817604403,3,True
2024-04-06,0.9683547992831163,0.9676633945871346,-0.0713999348682548,1,True
2024-04-07,0.9676633945871346,0.9749075666206929,0.748625201085451,1,True
2024-04-08,0.9749075666206929,0.9710945509820343,-0.3911156061569554,0,True
2024-04-09,0.9710945509820343,0.9686724054873898,-0.24942426998433298,1,True
2024-04-10,0.9686724054873898,0.965598295789636,-0.3173528718624974,4,True
2024-04-11,0.965598295789636,0.9699597941322999,0.451688695152197,1,True
2024-04-12,0.9699597941322999,0.9670693625316601,-0.2979949909393431,2,True
2024-04-13,0.9670693625316601,0.954000574831886,-1.351380594413798,7,True
2024-04-14,0.954000574831886,0.9295363104220568,-2.5643867577480606,10,True
2024-04-15,0.9295363104220568,0.9295363104220568,0.0,0,False
2024-04-16,0.9295363104220568,0.9295363104220568,0.0,0,False
2024-04-17,0.9295363104220568,0.9295363104220568,0.0,0,False
2024-04-18,0.9295363104220568,0.9295363104220568,0.0,0,False
2024-04-19,0.9295363104220568,0.9228568145938626,-0.7185836371643495,4,True
2024-04-20,0.9228568145938626,0.9228568145938626,0.0,0,False
2024-04-21,0.9228568145938626,0.9228568145938626,0.0,0,False
2024-04-22,0.9228568145938626,0.9228568145938626,0.0,0,False
2024-04-23,0.9228568145938626,0.9228568145938626,0.0,0,False
2024-04-24,0.9228568145938626,0.9228568145938626,0.0,0,False
2024-04-25,0.9228568145938626,0.9228568145938626,0.0,0,False
2024-04-26,0.9228568145938626,0.9228568145938626,0.0,0,False
2024-04-27,0.9228568145938626,0.9228568145938626,0.0,0,False
2024-04-28,0.9228568145938626,0.9228568145938626,0.0,0,False
2024-04-29,0.9228568145938626,0.9228568145938626,0.0,0,False
2024-04-30,0.9228568145938626,0.9228568145938626,0.0,0,False
2024-05-01,0.9228568145938626,0.9228568145938626,0.0,0,False
2024-05-02,0.9228568145938626,0.9228568145938626,0.0,0,False
2024-05-03,0.9228568145938626,0.9228568145938626,0.0,0,False
2024-05-04,0.9228568145938626,0.9228568145938626,0.0,0,False
2024-05-05,0.9228568145938626,0.9228568145938626,0.0,0,False
2024-05-06,0.9228568145938626,0.9228568145938626,0.0,0,False
2024-05-07,0.9228568145938626,0.9228568145938626,0.0,0,False
2024-05-08,0.9228568145938626,0.9228568145938626,0.0,0,False
2024-05-09,0.9228568145938626,0.9228568145938626,0.0,0,False
2024-05-10,0.9228568145938626,0.9228568145938626,0.0,0,False
2024-05-11,0.9228568145938626,0.9228568145938626,0.0,0,False
2024-05-12,0.9228568145938626,0.9228568145938626,0.0,0,False
2024-05-13,0.9228568145938626,0.9228568145938626,0.0,0,False
2024-05-14,0.9228568145938626,0.9228568145938626,0.0,0,False
2024-05-15,0.9228568145938626,0.9228568145938626,0.0,0,False
2024-05-16,0.9228568145938626,0.9228568145938626,0.0,0,False
2024-05-17,0.9228568145938626,0.9228568145938626,0.0,0,False
2024-05-18,0.9228568145938626,0.9228568145938626,0.0,0,False
2024-05-19,0.9228568145938626,0.9228568145938626,0.0,0,False
2024-05-20,0.9228568145938626,0.9228568145938626,0.0,0,False
2024-05-21,0.9228568145938626,0.9228568145938626,0.0,0,False
2024-05-22,0.9228568145938626,0.9228568145938626,0.0,0,False
2024-05-23,0.9228568145938626,0.9228568145938626,0.0,0,False
2024-05-24,0.9228568145938626,0.9228568145938626,0.0,0,False
2024-05-25,0.9228568145938626,0.9228568145938626,0.0,0,False
2024-05-26,0.9228568145938626,0.9228568145938626,0.0,0,False
2024-05-27,0.9228568145938626,0.9228568145938626,0.0,0,False
2024-05-28,0.9228568145938626,0.9228568145938626,0.0,0,False
2024-05-29,0.9228568145938626,0.9228568145938626,0.0,0,False
2024-05-30,0.9228568145938626,0.9228568145938626,0.0,0,False
2024-05-31,0.9228568145938626,0.9228568145938626,0.0,0,False
2024-06-01,0.9228568145938626,0.9228568145938626,0.0,0,False
2024-06-02,0.9228568145938626,0.9228568145938626,0.0,0,False
2024-06-03,0.9228568145938626,0.9228568145938626,0.0,0,False
2024-06-04,0.9228568145938626,0.9228568145938626,0.0,0,False
2024-06-05,0.9228568145938626,0.9228568145938626,0.0,0,False
2024-06-06,0.9228568145938626,0.9228568145938626,0.0,0,False
2024-06-07,0.9228568145938626,0.9228568145938626,0.0,0,False
2024-06-08,0.9228568145938626,0.9228568145938626,0.0,0,False
2024-06-09,0.9228568145938626,0.9228568145938626,0.0,0,False
2024-06-10,0.9228568145938626,0.9228568145938626,0.0,0,False
2024-06-11,0.9228568145938626,0.9228568145938626,0.0,0,False
2024-06-12,0.9228568145938626,0.9228568145938626,0.0,0,False
2024-06-13,0.9228568145938626,0.9228568145938626,0.0,0,False
2024-06-14,0.9228568145938626,0.9228568145938626,0.0,0,False
2024-06-15,0.9228568145938626,0.9228568145938626,0.0,0,False
2024-06-16,0.9228568145938626,0.9228568145938626,0.0,0,False
2024-06-17,0.9228568145938626,0.9228568145938626,0.0,0,False
2024-06-18,0.9228568145938626,0.9228568145938626,0.0,0,False
2024-06-19,0.9228568145938626,0.9228568145938626,0.0,0,False
2024-06-20,0.9228568145938626,0.9228568145938626,0.0,0,False
2024-06-21,0.9228568145938626,0.9228568145938626,0.0,0,False
2024-06-22,0.9228568145938626,0.9228568145938626,0.0,0,False
2024-06-23,0.9228568145938626,0.9228568145938626,0.0,0,False
2024-06-24,0.9228568145938626,0.9228568145938626,0.0,0,False
2024-06-25,0.9228568145938626,0.9228568145938626,0.0,0,False
2024-06-26,0.9228568145938626,0.9228568145938626,0.0,0,False
2024-06-27,0.9228568145938626,0.9228568145938626,0.0,0,False
2024-06-28,0.9228568145938626,0.9228568145938626,0.0,0,False
2024-06-29,0.9228568145938626,0.9228568145938626,0.0,0,False
2024-06-30,0.9228568145938626,0.9228568145938626,0.0,0,False
2024-07-01,0.9228568145938626,0.9228568145938626,0.0,0,False
2024-07-02,0.9228568145938626,0.9228568145938626,0.0,0,False
2024-07-03,0.9228568145938626,0.9228568145938626,0.0,0,False
2024-07-04,0.9228568145938626,0.9228568145938626,0.0,0,False
2024-07-05,0.9228568145938626,0.9228568145938626,0.0,0,False
2024-07-06,0.9228568145938626,0.9228568145938626,0.0,0,False
2024-07-07,0.9228568145938626,0.9228568145938626,0.0,0,False
2024-07-08,0.9228568145938626,0.9228568145938626,0.0,0,False
2024-07-09,0.9228568145938626,0.9228568145938626,0.0,0,False
2024-07-10,0.9228568145938626,0.9228568145938626,0.0,0,False
2024-07-11,0.9228568145938626,0.9228568145938626,0.0,0,False
2024-07-12,0.9228568145938626,0.9228568145938626,0.0,0,False
2024-07-13,0.9228568145938626,0.9228568145938626,0.0,0,False
2024-07-14,0.9228568145938626,0.9228568145938626,0.0,0,False
2024-07-15,0.9228568145938626,0.9228568145938626,0.0,0,False
2024-07-16,0.9228568145938626,0.9228568145938626,0.0,0,False
2024-07-17,0.9228568145938626,0.9228568145938626,0.0,0,False
2024-07-18,0.9228568145938626,0.9228568145938626,0.0,0,False
2024-07-19,0.9228568145938626,0.9228568145938626,0.0,0,False
2024-07-20,0.9228568145938626,0.9228568145938626,0.0,0,False
2024-07-21,0.9228568145938626,0.9228568145938626,0.0,0,False
2024-07-22,0.9228568145938626,0.9228568145938626,0.0,0,False
2024-07-23,0.9228568145938626,0.9228568145938626,0.0,0,False
2024-07-24,0.9228568145938626,0.9228568145938626,0.0,0,False
2024-07-25,0.9228568145938626,0.9228568145938626,0.0,0,False
2024-07-26,0.9228568145938626,0.9228568145938626,0.0,0,False
2024-07-27,0.9228568145938626,0.9228568145938626,0.0,0,False
2024-07-28,0.9228568145938626,0.9228568145938626,0.0,0,False
2024-07-29,0.9228568145938626,0.9228568145938626,0.0,0,False
2024-07-30,0.9228568145938626,0.9228568145938626,0.0,0,False
2024-07-31,0.9228568145938626,0.9228568145938626,0.0,0,False
2024-08-01,0.9228568145938626,0.9228568145938626,0.0,0,False
2024-08-02,0.9228568145938626,0.9228568145938626,0.0,0,False
2024-08-03,0.9228568145938626,0.9228568145938626,0.0,0,False
2024-08-04,0.9228568145938626,0.9228568145938626,0.0,0,False
2024-08-05,0.9228568145938626,0.9228568145938626,0.0,0,False
2024-08-06,0.9228568145938626,0.9228568145938626,0.0,0,False
2024-08-07,0.9228568145938626,0.9228568145938626,0.0,0,False
2024-08-08,0.9228568145938626,0.9228568145938626,0.0,0,False
2024-08-09,0.9228568145938626,0.9228568145938626,0.0,0,False
2024-08-10,0.9228568145938626,0.9228568145938626,0.0,0,False
2024-08-11,0.9228568145938626,0.9228568145938626,0.0,0,False
2024-08-12,0.9228568145938626,0.9228568145938626,0.0,0,False
2024-08-13,0.9228568145938626,0.9228568145938626,0.0,0,False
2024-08-14,0.9228568145938626,0.9228568145938626,0.0,0,False
2024-08-15,0.9228568145938626,0.9228568145938626,0.0,0,False
2024-08-16,0.9228568145938626,0.9228568145938626,0.0,0,False
2024-08-17,0.9228568145938626,0.9228568145938626,0.0,0,False
2024-08-18,0.9228568145938626,0.9228568145938626,0.0,0,False
2024-08-19,0.9228568145938626,0.9228568145938626,0.0,0,False
2024-08-20,0.9228568145938626,0.9228568145938626,0.0,0,False
2024-08-21,0.9228568145938626,0.9228568145938626,0.0,0,False
2024-08-22,0.9228568145938626,0.9228568145938626,0.0,0,False
2024-08-23,0.9228568145938626,0.9228568145938626,0.0,0,False
2024-08-24,0.9228568145938626,0.9228568145938626,0.0,0,False
2024-08-25,0.9228568145938626,0.9228568145938626,0.0,0,False
2024-08-26,0.9228568145938626,0.9228568145938626,0.0,0,False
2024-08-27,0.9228568145938626,0.9228568145938626,0.0,0,False
2024-08-28,0.9228568145938626,0.9228568145938626,0.0,0,False
2024-08-29,0.9228568145938626,0.9228568145938626,0.0,0,False
2024-08-30,0.9228568145938626,0.9228568145938626,0.0,0,False
2024-08-31,0.9228568145938626,0.9228568145938626,0.0,0,False
2024-09-01,0.9228568145938626,0.9228568145938626,0.0,0,False
2024-09-02,0.9228568145938626,0.9228568145938626,0.0,0,False
2024-09-03,0.9228568145938626,0.9228568145938626,0.0,0,False
2024-09-04,0.9228568145938626,0.9228568145938626,0.0,0,False
2024-09-05,0.9228568145938626,0.9228568145938626,0.0,0,False
2024-09-06,0.9228568145938626,0.9228568145938626,0.0,0,False
2024-09-07,0.9228568145938626,0.9228568145938626,0.0,0,False
2024-09-08,0.9228568145938626,0.9228568145938626,0.0,0,False
2024-09-09,0.9228568145938626,0.9228568145938626,0.0,0,False
2024-09-10,0.9228568145938626,0.9228568145938626,0.0,0,False
2024-09-11,0.9228568145938626,0.9228568145938626,0.0,0,False
2024-09-12,0.9228568145938626,0.9228568145938626,0.0,0,False
2024-09-13,0.9228568145938626,0.9228568145938626,0.0,0,False
2024-09-14,0.9228568145938626,0.9228568145938626,0.0,0,False
2024-09-15,0.9228568145938626,0.9228568145938626,0.0,0,False
2024-09-16,0.9228568145938626,0.9228568145938626,0.0,0,False
2024-09-17,0.9228568145938626,0.9228568145938626,0.0,0,False
2024-09-18,0.9228568145938626,0.9228568145938626,0.0,0,False
2024-09-19,0.9228568145938626,0.9228568145938626,0.0,0,False
2024-09-20,0.9228568145938626,0.9228568145938626,0.0,0,False
2024-09-21,0.9228568145938626,0.9228568145938626,0.0,0,False
2024-09-22,0.9228568145938626,0.9228568145938626,0.0,0,False
2024-09-23,0.9228568145938626,0.9228568145938626,0.0,0,False
2024-09-24,0.9228568145938626,0.9228568145938626,0.0,0,False
2024-09-25,0.9228568145938626,0.9228568145938626,0.0,0,False
2024-09-26,0.9228568145938626,0.9228568145938626,0.0,0,False
2024-09-27,0.9228568145938626,0.9228568145938626,0.0,0,False
2024-09-28,0.9228568145938626,0.9228568145938626,0.0,0,False
2024-09-29,0.9228568145938626,0.9228568145938626,0.0,0,False
2024-09-30,0.9228568145938626,0.9228568145938626,0.0,0,False
2024-10-01,0.9228568145938626,0.9228568145938626,0.0,0,False
2024-10-02,0.9228568145938626,0.9228568145938626,0.0,0,False
2024-10-03,0.9228568145938626,0.9228568145938626,0.0,0,False
2024-10-04,0.9228568145938626,0.9228568145938626,0.0,0,False
2024-10-05,0.9228568145938626,0.9228568145938626,0.0,0,False
2024-10-06,0.9228568145938626,0.9228568145938626,0.0,0,False
2024-10-07,0.9228568145938626,0.9228568145938626,0.0,0,False
2024-10-08,0.9228568145938626,0.9228568145938626,0.0,0,False
2024-10-09,0.9228568145938626,0.9228568145938626,0.0,0,False
2024-10-10,0.9228568145938626,0.9228568145938626,0.0,0,False
2024-10-11,0.9228568145938626,0.9228568145938626,0.0,0,False
2024-10-12,0.9228568145938626,0.9228568145938626,0.0,0,False
2024-10-13,0.9228568145938626,0.9228568145938626,0.0,0,False
2024-10-14,0.9228568145938626,0.9228568145938626,0.0,0,False
2024-10-15,0.9228568145938626,0.9228568145938626,0.0,0,False
2024-10-16,0.9228568145938626,0.9228568145938626,0.0,0,False
2024-10-17,0.9228568145938626,0.9228568145938626,0.0,0,False
2024-10-18,0.9228568145938626,0.9228568145938626,0.0,0,False
2024-10-19,0.9228568145938626,0.9228568145938626,0.0,0,False
2024-10-20,0.9228568145938626,0.9228568145938626,0.0,0,False
2024-10-21,0.9228568145938626,0.9228568145938626,0.0,0,False
2024-10-22,0.9228568145938626,0.9228568145938626,0.0,0,False
2024-10-23,0.9228568145938626,0.9228568145938626,0.0,0,False
2024-10-24,0.9228568145938626,0.9228568145938626,0.0,0,False
2024-10-25,0.9228568145938626,0.9228568145938626,0.0,0,False
2024-10-26,0.9228568145938626,0.9228568145938626,0.0,0,False
2024-10-27,0.9228568145938626,0.9228568145938626,0.0,0,False
2024-10-28,0.9228568145938626,0.9228568145938626,0.0,0,False
2024-10-29,0.9228568145938626,0.9228568145938626,0.0,0,False
2024-10-30,0.9228568145938626,0.9228568145938626,0.0,0,False
2024-10-31,0.9228568145938626,0.9228568145938626,0.0,0,False
2024-11-01,0.9228568145938626,0.9228568145938626,0.0,0,False
2024-11-02,0.9228568145938626,0.9228568145938626,0.0,0,False
2024-11-03,0.9228568145938626,0.9228568145938626,0.0,0,False
2024-11-04,0.9228568145938626,0.9228568145938626,0.0,0,False
2024-11-05,0.9228568145938626,0.9228568145938626,0.0,0,False
2024-11-06,0.9228568145938626,0.9228568145938626,0.0,0,False
2024-11-07,0.9228568145938626,0.9228568145938626,0.0,0,False
2024-11-08,0.9228568145938626,0.9228568145938626,0.0,0,False
2024-11-09,0.9228568145938626,0.9228568145938626,0.0,0,False
2024-11-10,0.9228568145938626,0.9228568145938626,0.0,0,False
2024-11-11,0.9228568145938626,0.9228568145938626,0.0,0,False
2024-11-12,0.9228568145938626,0.9228568145938626,0.0,0,False
2024-11-13,0.9228568145938626,0.9228568145938626,0.0,0,False
2024-11-14,0.9228568145938626,0.9228568145938626,0.0,0,False
2024-11-15,0.9228568145938626,0.9228568145938626,0.0,0,False
2024-11-16,0.9228568145938626,0.9228568145938626,0.0,0,False
2024-11-17,0.9228568145938626,0.9228568145938626,0.0,0,False
2024-11-18,0.9228568145938626,0.9228568145938626,0.0,0,False
2024-11-19,0.9228568145938626,0.9228568145938626,0.0,0,False
2024-11-20,0.9228568145938626,0.9228568145938626,0.0,0,False
2024-11-21,0.9228568145938626,0.9228568145938626,0.0,0,False
2024-11-22,0.9228568145938626,0.9228568145938626,0.0,0,False
2024-11-23,0.9228568145938626,0.9228568145938626,0.0,0,False
2024-11-24,0.9228568145938626,0.9228568145938626,0.0,0,False
2024-11-25,0.9228568145938626,0.9228568145938626,0.0,0,False
2024-11-26,0.9228568145938626,0.9228568145938626,0.0,0,False
2024-11-27,0.9228568145938626,0.9228568145938626,0.0,0,False
2024-11-28,0.9228568145938626,0.9228568145938626,0.0,0,False
2024-11-29,0.9228568145938626,0.9228568145938626,0.0,0,False
2024-11-30,0.9228568145938626,0.9228568145938626,0.0,0,False
2024-12-01,0.9228568145938626,0.9228568145938626,0.0,0,False
2024-12-02,0.9228568145938626,0.9228568145938626,0.0,0,False
2024-12-03,0.9228568145938626,0.9228568145938626,0.0,0,False
2024-12-04,0.9228568145938626,0.9228568145938626,0.0,0,False
2024-12-05,0.9228568145938626,0.9228568145938626,0.0,0,False
2024-12-06,0.9228568145938626,0.9228568145938626,0.0,0,False
2024-12-07,0.9228568145938626,0.9228568145938626,0.0,0,False
2024-12-08,0.9228568145938626,0.9228568145938626,0.0,0,False
2024-12-09,0.9228568145938626,0.9228568145938626,0.0,0,False
2024-12-10,0.9228568145938626,0.9228568145938626,0.0,0,False
2024-12-11,0.9228568145938626,0.9228568145938626,0.0,0,False
2024-12-12,0.9228568145938626,0.9228568145938626,0.0,0,False
2024-12-13,0.9228568145938626,0.9228568145938626,0.0,0,False
2024-12-14,0.9228568145938626,0.9228568145938626,0.0,0,False
2024-12-15,0.9228568145938626,0.9228568145938626,0.0,0,False
2024-12-16,0.9228568145938626,0.9228568145938626,0.0,0,False
2024-12-17,0.9228568145938626,0.9228568145938626,0.0,0,False
2024-12-18,0.9228568145938626,0.9228568145938626,0.0,0,False
2024-12-19,0.9228568145938626,0.9228568145938626,0.0,0,False
2024-12-20,0.9228568145938626,0.9228568145938626,0.0,0,False
2024-12-21,0.9228568145938626,0.9228568145938626,0.0,0,False
2024-12-22,0.9228568145938626,0.9228568145938626,0.0,0,False
2024-12-23,0.9228568145938626,0.9228568145938626,0.0,0,False
2024-12-24,0.9228568145938626,0.9228568145938626,0.0,0,False
2024-12-25,0.9228568145938626,0.9228568145938626,0.0,0,False
2024-12-26,0.9228568145938626,0.9228568145938626,0.0,0,False
2024-12-27,0.9228568145938626,0.9228568145938626,0.0,0,False
2024-12-28,0.9228568145938626,0.9228568145938626,0.0,0,False
2024-12-29,0.9228568145938626,0.9228568145938626,0.0,0,False
2024-12-30,0.9228568145938626,0.9228568145938626,0.0,0,False
2024-12-31,0.9228568145938626,0.9228568145938626,0.0,0,False
