day,start_equity,end_equity,return_pct,entries,active
2024-01-02,1.0099946652896052,1.017858602935343,0.7786118002398368,0,True
2024-01-03,1.017858602935343,1.0382933927990554,2.0076255979742053,4,True
2024-01-04,1.0382933927990554,1.0391526424825444,0.08275596179732059,2,True
2024-01-05,1.0391526424825444,1.0391526424825444,0.0,0,False
2024-01-06,1.0391526424825444,1.0551368669443357,1.5381979324620598,3,True
2024-01-07,1.0551368669443357,1.0840002515071372,2.735510952848186,2,True
2024-01-08,1.0840002515071372,1.0699173820377015,-1.2991573987049976,5,True
2024-01-09,1.0699173820377015,1.0703851057432827,0.043715871284422114,1,True
2024-01-10,1.0703851057432827,1.0529905719048656,-1.625072485134993,4,True
2024-01-11,1.0529905719048656,1.0529905719048656,0.0,0,False
2024-01-12,1.0529905719048656,1.072964482641721,1.8968746036085227,1,True
2024-01-13,1.072964482641721,1.0701298025901032,-0.26419141523107426,0,True
2024-01-14,1.0701298025901032,1.064781078806372,-0.49982009386012605,1,True
2024-01-15,1.064781078806372,1.070377621155396,0.5256049774379656,1,True
2024-01-16,1.070377621155396,1.070377621155396,0.0,0,False
2024-01-17,1.070377621155396,1.070377621155396,0.0,0,False
2024-01-18,1.070377621155396,1.0650284342271557,-0.49974764256246473,1,True
2024-01-19,1.0650284342271557,1.0650284342271557,0.0,0,False
2024-01-20,1.0650284342271557,1.0650284342271557,0.0,0,False
2024-01-21,1.0650284342271557,1.0650284342271557,0.0,0,False
2024-01-22,1.0650284342271557,1.0650284342271557,0.0,0,False
2024-01-23,1.0650284342271557,1.058860613404039,-0.5791226435745145,3,True
2024-01-24,1.058860613404039,1.057290624640781,-0.14827152350211925,0,True
2024-01-25,1.057290624640781,1.052008596687481,-0.4995814613502736,1,True
2024-01-26,1.052008596687481,1.052008596687481,0.0,0,False
2024-01-27,1.052008596687481,1.052008596687481,0.0,0,False
2024-01-28,1.052008596687481,1.0471013315884656,-0.4664662545978415,2,True
2024-01-29,1.0471013315884656,1.0469838712570823,-0.0112176661264618,0,True
2024-01-30,1.0469838712570823,1.0469838712570823,0.0,0,False
2024-01-31,1.0469838712570823,1.0469838712570823,0.0,0,False
2024-02-01,1.0469838712570823,1.0469838712570823,0.0,0,False
2024-02-02,1.0469838712570823,1.0480070033046982,0.09772185376528686,1,True
2024-02-03,1.0480070033046982,1.0466098075931383,-0.1333193105727437,0,True
2024-02-04,1.0466098075931383,1.0466098075931383,0.0,0,False
2024-02-05,1.0466098075931383,1.0466098075931383,0.0,0,False
2024-02-06,1.0466098075931383,1.0387445320084676,-0.7515002752322975,2,True
2024-02-07,1.0387445320084676,1.0310175798650683,-0.7438741582070141,1,True
2024-02-08,1.0310175798650683,1.0310175798650683,0.0,0,False
2024-02-09,1.0310175798650683,1.0310175798650683,0.0,0,False
2024-02-10,1.0310175798650683,1.0310175798650683,0.0,0,False
2024-02-11,1.0310175798650683,1.0310175798650683,0.0,0,False
2024-02-12,1.0310175798650683,1.0310175798650683,0.0,0,False
2024-02-13,1.0310175798650683,1.0310175798650683,0.0,0,False
2024-02-14,1.0310175798650683,1.0310175798650683,0.0,0,False
2024-02-15,1.0310175798650683,1.058501151294839,2.66567437515155,2,True
2024-02-16,1.058501151294839,1.0526527403580264,-0.5525181460273698,1,True
2024-02-17,1.0526527403580264,1.0526527403580264,0.0,0,False
2024-02-18,1.0526527403580264,1.0526527403580264,0.0,0,False
2024-02-19,1.0526527403580264,1.0526527403580264,0.0,0,False
2024-02-20,1.0526527403580264,1.0473962599276068,-0.49935560217434505,1,True
2024-02-21,1.0473962599276068,1.070841909457162,2.2384698539190673,5,True
2024-02-22,1.070841909457162,1.0857367138111336,1.3909433523686232,1,True
2024-02-23,1.0857367138111336,1.0774163644899235,-0.7663321333220896,2,True
2024-02-24,1.0774163644899235,1.0753684201454345,-0.1900791942638147,0,True
2024-02-25,1.0753684201454345,1.0753684201454345,0.0,0,False
2024-02-26,1.0753684201454345,1.0785848839472014,0.2991034273939208,2,True
2024-02-27,1.0785848839472014,1.0853145125327515,0.6239312905000238,2,True
2024-02-28,1.0853145125327515,1.072933344576936,-1.1407907857900135,1,True
2024-02-29,1.072933344576936,1.0952993986086208,2.0845706906894357,6,True
2024-03-01,1.0952993986086208,1.0947181782668765,-0.05306497405939137,2,True
2024-03-02,1.0947181782668765,1.0855187707387468,-0.8403448221435239,2,True
2024-03-03,1.0855187707387468,1.1106169260539602,2.31208856002858,4,True
2024-03-04,1.1106169260539602,1.1152091696038122,0.41348582415074997,0,True
2024-03-05,1.1152091696038122,1.11014211285546,-0.4543593154055836,2,True
2024-03-06,1.11014211285546,1.1451009016454503,3.149037261551202,9,True
2024-03-07,1.1451009016454503,1.131900639570369,-1.1527597311392523,5,True
2024-03-08,1.131900639570369,1.134932568264941,0.2678617352599666,1,True
2024-03-09,1.134932568264941,1.1330410005331024,-0.16666785188218514,2,True
2024-03-10,1.1330410005331024,1.1364682334223317,0.3024809241339632,1,True
2024-03-11,1.1364682334223317,1.1361270456066495,-0.030021764414378538,1,True
2024-03-12,1.1361270456066495,1.157318476757172,1.8652342827739865,2,True
2024-03-13,1.157318476757172,1.1478546832271241,-0.8177345925181823,0,True
2024-03-14,1.1478546832271241,1.1478546832271241,0.0,0,False
2024-03-15,1.1478546832271241,1.142119535932255,-0.49964053626938565,1,True
2024-03-16,1.142119535932255,1.1364187524698122,-0.49914070139684963,1,True
2024-03-17,1.1364187524698122,1.1307457795332814,-0.499197406255536,1,True
2024-03-18,1.1307457795332814,1.1284985285624578,-0.19874060213173061,1,True
2024-03-19,1.1284985285624578,1.113895861175156,-1.2939908221150764,2,True
2024-03-20,1.113895861175156,1.1132761659787638,-0.05563313573482276,1,True
2024-03-21,1.1132761659787638,1.1256523713737496,1.1116922982093103,3,True
2024-03-22,1.1256523713737496,1.1308737961229967,0.46385765996963535,2,True
2024-03-23,1.1308737961229967,1.126206677161833,-0.41270024799973104,1,True
2024-03-24,1.126206677161833,1.1220704103214223,-0.36727422455304914,2,True
2024-03-25,1.1220704103214223,1.1232792538170202,0.10773330126865321,0,True
2024-03-26,1.1232792538170202,1.1292513645890447,0.5316675040272223,1,True
2024-03-27,1.1292513645890447,1.1239884921302443,-0.46604968776953193,3,True
2024-03-28,1.1239884921302443,1.1239884921302443,0.0,0,False
2024-03-29,1.1239884921302443,1.1128012026538023,-0.9953206420502791,2,True
2024-03-30,1.1128012026538023,1.1128012026538023,0.0,0,False
2024-03-31,1.1128012026538023,1.1128012026538023,0.0,0,False
2024-04-01,1.1128012026538023,1.1056309211059268,-0.6443452371165614,2,True
2024-04-02,1.1056309211059268,1.1072643221304792,0.14773474523654961,2,True
2024-04-03,1.1072643221304792,1.1044630218598455,-0.2529929136742881,1,True
2024-04-04,1.1044630218598455,1.101731288743055,-0.24733586029800358,0,True
2024-04-05,1.101731288743055,1.1005878922148076,-0.10378179688006473,2,True
2024-04-06,1.1005878922148076,1.0958054172032934,-0.43453821774197543,0,True
2024-04-07,1.0958054172032934,1.0976814185646202,0.17119840182162616,2,True
2024-04-08,1.0976814185646202,1.0957963627248182,-0.17173068687516002,0,True
2024-04-09,1.0957963627248182,1.090326576769484,-0.49916080591222434,1,True
2024-04-10,1.090326576769484,1.084889952837462,-0.49862344437481276,1,True
2024-04-11,1.084889952837462,1.084889952837462,0.0,0,False
2024-04-12,1.084889952837462,1.0794783290673167,-0.4988177608237221,1,True
2024-04-13,1.0794783290673167,1.0867187629863364,0.6707345320471125,9,True
2024-04-14,1.0867187629863364,1.0960559984603262,0.8592136063180433,8,True
2024-04-15,1.0960559984603262,1.1004799652618322,0.40362598331842303,1,True
2024-04-16,1.1004799652618322,1.0979560187221762,-0.2293496128351169,0,True
2024-04-17,1.0979560187221762,1.092475364724441,-0.4991688104332037,1,True
2024-04-18,1.092475364724441,1.092475364724441,0.0,0,False
2024-04-19,1.092475364724441,1.092475364724441,0.0,0,False
2024-04-20,1.092475364724441,1.092475364724441,0.0,0,False
2024-04-21,1.092475364724441,1.092475364724441,0.0,0,False
2024-04-22,1.092475364724441,1.092475364724441,0.0,0,False
2024-04-23,1.092475364724441,1.0870193153335999,-0.4994208168911274,1,True
2024-04-24,1.0870193153335999,1.0870193153335999,0.0,0,False
2024-04-25,1.0870193153335999,1.093215118985884,0.5699810081463808,2,True
2024-04-26,1.093215118985884,1.076185950401164,-1.557714331696869,0,True
2024-04-27,1.076185950401164,1.0708145232282646,-0.49911701327238767,1,True
2024-04-28,1.0708145232282646,1.0708145232282646,0.0,0,False
2024-04-29,1.0708145232282646,1.0879141337196077,1.5968788357288544,1,True
2024-04-30,1.0879141337196077,1.0884998777169623,0.05384101366088245,0,True
2024-05-01,1.0884998777169623,1.0884998777169623,0.0,0,False
2024-05-02,1.0884998777169623,1.0884998777169623,0.0,0,False
2024-05-03,1.0884998777169623,1.0884998777169623,0.0,0,False
2024-05-04,1.0884998777169623,1.0884998777169623,0.0,0,False
2024-05-05,1.0884998777169623,1.0884998777169623,0.0,0,False
2024-05-06,1.0884998777169623,1.0884998777169623,0.0,0,False
2024-05-07,1.0884998777169623,1.0830655756230392,-0.49924691818258315,1,True
2024-05-08,1.0830655756230392,1.0830655756230392,0.0,0,False
2024-05-09,1.0830655756230392,1.0672271224036296,-1.4623725078048433,5,True
2024-05-10,1.0672271224036296,1.0626234782674848,-0.4313649868433189,1,True
2024-05-11,1.0626234782674848,1.0631753085532867,0.051930932930410734,1,True
2024-05-12,1.0631753085532867,1.057319248901626,-0.5508084701129068,0,True
2024-05-13,1.057319248901626,1.0520338342910875,-0.49988824246122165,1,True
2024-05-14,1.0520338342910875,1.0520338342910875,0.0,0,False
2024-05-15,1.0520338342910875,1.0520338342910875,0.0,0,False
2024-05-16,1.0520338342910875,1.0520338342910875,0.0,0,False
2024-05-17,1.0520338342910875,1.0520338342910875,0.0,0,False
2024-05-18,1.0520338342910875,1.0520338342910875,0.0,0,False
2024-05-19,1.0520338342910875,1.0520338342910875,0.0,0,False
2024-05-20,1.0520338342910875,1.0520338342910875,0.0,0,False
2024-05-21,1.0520338342910875,1.0534133303329258,0.13112658517944187,2,True
2024-05-22,1.0534133303329258,1.0534133303329258,0.0,0,False
2024-05-23,1.0534133303329258,1.0676585396473424,1.3522905875810842,1,True
2024-05-24,1.0676585396473424,1.0670134944078904,-0.06041681075908967,2,True
2024-05-25,1.0670134944078904,1.0670134944078904,0.0,0,False
2024-05-26,1.0670134944078904,1.0670134944078904,0.0,0,False
2024-05-27,1.0670134944078904,1.0670134944078904,0.0,0,False
2024-05-28,1.0670134944078904,1.0670134944078904,0.0,0,False
2024-05-29,1.0670134944078904,1.0670134944078904,0.0,0,False
2024-05-30,1.0670134944078904,1.0670134944078904,0.0,0,False
2024-05-31,1.0670134944078904,1.0563558841074732,-0.9988261963201683,2,True
2024-06-01,1.0563558841074732,1.0563558841074732,0.0,0,False
2024-06-02,1.0563558841074732,1.0510805626837871,-0.49938865329871573,1,True
2024-06-03,1.0510805626837871,1.0428099904110497,-0.7868637825077518,3,True
2024-06-04,1.0428099904110497,1.036427279389303,-0.6120684573831858,2,True
2024-06-05,1.036427279389303,1.036427279389303,0.0,0,False
2024-06-06,1.036427279389303,1.0261074297522863,-0.9957138182523972,2,True
2024-06-07,1.0261074297522863,1.0261074297522863,0.0,0,False
2024-06-08,1.0261074297522863,1.0742406012964243,4.690851089126014,5,True
2024-06-09,1.0742406012964243,1.0688773218716072,-0.4992624015834557,1,True
2024-06-10,1.0688773218716072,1.0688773218716072,0.0,0,False
2024-06-11,1.0688773218716072,1.0635392547583538,-0.499408772552723,1,True
2024-06-12,1.0635392547583538,1.0582305241790566,-0.4991569944922558,1,True
2024-06-13,1.0582305241790566,1.0495277832384693,-0.8223861192568238,2,True
2024-06-14,1.0495277832384693,1.0442923264242134,-0.49883927780368653,1,True
2024-06-15,1.0442923264242134,1.059279684632779,1.4351688535224838,1,True
2024-06-16,1.059279684632779,1.059279684632779,0.0,0,False
2024-06-17,1.059279684632779,1.059279684632779,0.0,0,False
2024-06-18,1.059279684632779,1.0715983888216225,1.1629321667878445,5,True
2024-06-19,1.0715983888216225,1.067097865537906,-0.41998227420493306,1,True
2024-06-20,1.067097865537906,1.0662415064137014,-0.08025122642082438,0,True
2024-06-21,1.0662415064137014,1.0662415064137014,0.0,0,False
2024-06-22,1.0662415064137014,1.060918208798694,-0.49925814958304837,1,True
2024-06-23,1.060918208798694,1.0722644654490765,1.069475154284527,1,True
2024-06-24,1.0722644654490765,1.072928794425208,0.061955701931548646,1,True
2024-06-25,1.072928794425208,1.0933405516367207,1.902433536835768,1,True
2024-06-26,1.0933405516367207,1.0962356218660059,0.2647912605959091,0,True
2024-06-27,1.0962356218660059,1.0968869423938346,0.05941428237115076,1,True
2024-06-28,1.0968869423938346,1.0907564865460129,-0.5588958725721183,0,True
2024-06-29,1.0907564865460129,1.0799048538751697,-0.994872164840932,2,True
2024-06-30,1.0799048538751697,1.0799048538751697,0.0,0,False
2024-07-01,1.0799048538751697,1.0799048538751697,0.0,0,False
2024-07-02,1.0799048538751697,1.0799048538751697,0.0,0,False
2024-07-03,1.0799048538751697,1.0799048538751697,0.0,0,False
2024-07-04,1.0799048538751697,1.0799048538751697,0.0,0,False
2024-07-05,1.0799048538751697,1.0957051770699495,1.4631217868946056,6,True
2024-07-06,1.0957051770699495,1.097389294575383,0.1537017019429321,2,True
2024-07-07,1.097389294575383,1.0929791997294498,-0.4018715024588948,2,True
2024-07-08,1.0929791997294498,1.092754880366576,-0.020523662566429568,0,True
2024-07-09,1.092754880366576,1.092754880366576,0.0,0,False
2024-07-10,1.092754880366576,1.092754880366576,0.0,0,False
2024-07-11,1.092754880366576,1.092754880366576,0.0,0,False
2024-07-12,1.092754880366576,1.092754880366576,0.0,0,False
2024-07-13,1.092754880366576,1.092754880366576,0.0,0,False
2024-07-14,1.092754880366576,1.087299679037925,-0.4992154623753353,1,True
2024-07-15,1.087299679037925,1.087299679037925,0.0,0,False
2024-07-16,1.087299679037925,1.0818698770806559,-0.499384122146862,1,True
2024-07-17,1.0818698770806559,1.076472399870032,-0.4989026245178829,1,True
2024-07-18,1.076472399870032,1.076472399870032,0.0,0,False
2024-07-19,1.076472399870032,1.076472399870032,0.0,0,False
2024-07-20,1.076472399870032,1.0733119458918186,-0.2935935913075949,2,True
2024-07-21,1.0733119458918186,1.0733119458918186,0.0,0,False
2024-07-22,1.0733119458918186,1.0733119458918186,0.0,0,False
2024-07-23,1.0733119458918186,1.0679509601559054,-0.4994806734829216,1,True
2024-07-24,1.0679509601559054,1.0679509601559054,0.0,0,False
2024-07-25,1.0679509601559054,1.0679509601559054,0.0,0,False
2024-07-26,1.0679509601559054,1.0679509601559054,0.0,0,False
2024-07-27,1.0679509601559054,1.0679509601559054,0.0,0,False
2024-07-28,1.0679509601559054,1.0626171467377648,-0.49944366521866845,1,True
2024-07-29,1.0626171467377648,1.0626171467377648,0.0,0,False
2024-07-30,1.0626171467377648,1.0626171467377648,0.0,0,False
2024-07-31,1.0626171467377648,1.0573157854469604,-0.4988966446739185,1,True
2024-08-01,1.0573157854469604,1.0573157854469604,0.0,0,False
2024-08-02,1.0573157854469604,1.0573157854469604,0.0,0,False
2024-08-03,1.0573157854469604,1.052042486209776,-0.49874401855782846,1,True
2024-08-04,1.052042486209776,1.052042486209776,0.0,0,False
2024-08-05,1.052042486209776,1.061431055341559,0.8924134961133978,8,True
2024-08-06,1.061431055341559,1.061369706614694,-0.005779812693074149,0,True
2024-08-07,1.061369706614694,1.061369706614694,0.0,0,False
2024-08-08,1.061369706614694,1.061369706614694,0.0,0,False
2024-08-09,1.061369706614694,1.061369706614694,0.0,0,False
2024-08-10,1.061369706614694,1.061369706614694,0.0,0,False
2024-08-11,1.061369706614694,1.061369706614694,0.0,0,False
2024-08-12,1.061369706614694,1.0725257705958238,1.051100659044879,2,True
2024-08-13,1.0725257705958238,1.0683483654719916,-0.3894922843216575,0,True
2024-08-14,1.0683483654719916,1.0683483654719916,0.0,0,False
2024-08-15,1.0683483654719916,1.0683483654719916,0.0,0,False
2024-08-16,1.0683483654719916,1.0683483654719916,0.0,0,False
2024-08-17,1.0683483654719916,1.0683483654719916,0.0,0,False
2024-08-18,1.0683483654719916,1.0663709287035927,-0.18509288096539844,1,True
2024-08-19,1.0663709287035927,1.0561467684623187,-0.9587808487712346,2,True
2024-08-20,1.0561467684623187,1.0589488040159354,0.26530740208543513,1,True
2024-08-21,1.0589488040159354,1.0589488040159354,0.0,0,False
2024-08-22,1.0589488040159354,1.0589488040159354,0.0,0,False
2024-08-23,1.0589488040159354,1.0589488040159354,0.0,0,False
2024-08-24,1.0589488040159354,1.0589488040159354,0.0,0,False
2024-08-25,1.0589488040159354,1.0589488040159354,0.0,0,False
2024-08-26,1.0589488040159354,1.0589488040159354,0.0,0,False
2024-08-27,1.0589488040159354,1.0589488040159354,0.0,0,False
2024-08-28,1.0589488040159354,1.0589488040159354,0.0,0,False
2024-08-29,1.0589488040159354,1.0536694178180315,-0.49854971060758757,1,True
2024-08-30,1.0536694178180315,1.0536694178180315,0.0,0,False
2024-08-31,1.0536694178180315,1.0536694178180315,0.0,0,False
2024-09-01,1.0536694178180315,1.0484273779677427,-0.4975032739532481,1,True
2024-09-02,1.0484273779677427,1.0484273779677427,0.0,0,False
2024-09-03,1.0484273779677427,1.0484273779677427,0.0,0,False
2024-09-04,1.0484273779677427,1.0484273779677427,0.0,0,False
2024-09-05,1.0484273779677427,1.0410738293501134,-0.7013884578141449,2,True
2024-09-06,1.0410738293501134,1.041832727422542,0.07289570163360182,0,True
2024-09-07,1.041832727422542,1.041832727422542,0.0,0,False
2024-09-08,1.041832727422542,1.041832727422542,0.0,0,False
2024-09-09,1.041832727422542,1.041832727422542,0.0,0,False
2024-09-10,1.041832727422542,1.041832727422542,0.0,0,False
2024-09-11,1.041832727422542,1.041832727422542,0.0,0,False
2024-09-12,1.041832727422542,1.041832727422542,0.0,0,False
2024-09-13,1.041832727422542,1.0505609249866477,0.8377734097198886,1,True
2024-09-14,1.0505609249866477,1.046954131151343,-0.3433207679364614,0,True
2024-09-15,1.046954131151343,1.046954131151343,0.0,0,False
2024-09-16,1.046954131151343,1.046954131151343,0.0,0,False
2024-09-17,1.046954131151343,1.046954131151343,0.0,0,False
2024-09-18,1.046954131151343,1.0364941356297446,-0.9990882322700734,2,True
2024-09-19,1.0364941356297446,1.0357541988984895,-0.07138841463927292,1,True
2024-09-20,1.0357541988984895,1.0399138215185768,0.4016032592009777,1,True
2024-09-21,1.0399138215185768,1.023449373888822,-1.583251158803911,4,True
2024-09-22,1.023449373888822,1.0359038496893793,1.2169117611781743,1,True
2024-09-23,1.0359038496893793,1.0479667680924303,1.1644824378892027,1,True
2024-09-24,1.0479667680924303,1.0447031764004133,-0.3114212961120466,0,True
2024-09-25,1.0447031764004133,1.0447031764004133,0.0,0,False
2024-09-26,1.0447031764004133,1.0447031764004133,0.0,0,False
2024-09-27,1.0447031764004133,1.0447031764004133,0.0,0,False
2024-09-28,1.0447031764004133,1.0447031764004133,0.0,0,False
2024-09-29,1.0447031764004133,1.0447031764004133,0.0,0,False
2024-09-30,1.0447031764004133,1.0447031764004133,0.0,0,False
2024-10-01,1.0447031764004133,1.0447031764004133,0.0,0,False
2024-10-02,1.0447031764004133,1.0447031764004133,0.0,0,False
2024-10-03,1.0447031764004133,1.0541379085757003,0.9031017028008792,1,True
2024-10-04,1.0541379085757003,1.0583935053065745,0.40370398372486793,0,True
2024-10-05,1.0583935053065745,1.0583935053065745,0.0,0,False
2024-10-06,1.0583935053065745,1.0583935053065745,0.0,0,False
2024-10-07,1.0583935053065745,1.0583935053065745,0.0,0,False
2024-10-08,1.0583935053065745,1.0583935053065745,0.0,0,False
2024-10-09,1.0583935053065745,1.0583935053065745,0.0,0,False
2024-10-10,1.0583935053065745,1.0583935053065745,0.0,0,False
2024-10-11,1.0583935053065745,1.0568679250759967,-0.1441411179234242,1,True
2024-10-12,1.0568679250759967,1.057983190744879,0.10552554793465951,0,True
2024-10-13,1.057983190744879,1.057983190744879,0.0,0,False
2024-10-14,1.057983190744879,1.057983190744879,0.0,0,False
2024-10-15,1.057983190744879,1.0474429814054713,-0.9962548962603734,2,True
2024-10-16,1.0474429814054713,1.0474429814054713,0.0,0,False
2024-10-17,1.0474429814054713,1.0474429814054713,0.0,0,False
2024-10-18,1.0474429814054713,1.0544305562635126,0.667107898194641,3,True
2024-10-19,1.0544305562635126,1.050927838836325,-0.3321904326824332,1,True
2024-10-20,1.050927838836325,1.050927838836325,0.0,0,False
2024-10-21,1.050927838836325,1.0664343258669668,1.4755044502210435,1,True
2024-10-22,1.0664343258669668,1.083734687409596,1.6222622549742827,2,True
2024-10-23,1.083734687409596,1.0605562802066086,-2.1387529136296046,2,True
2024-10-24,1.0605562802066086,1.0552644992252982,-0.49896276888573565,1,True
2024-10-25,1.0552644992252982,1.0597057822644802,0.42086917947514735,1,True
2024-10-26,1.0597057822644802,1.0755315874765594,1.493415009802157,2,True
2024-10-27,1.0755315874765594,1.0755315874765594,0.0,0,False
2024-10-28,1.0755315874765594,1.0755315874765594,0.0,0,False
2024-10-29,1.0755315874765594,1.0755315874765594,0.0,0,False
2024-10-30,1.0755315874765594,1.0755315874765594,0.0,0,False
2024-10-31,1.0755315874765594,1.0755315874765594,0.0,0,False
2024-11-01,1.0755315874765594,1.0755315874765594,0.0,0,False
2024-11-02,1.0755315874765594,1.0755315874765594,0.0,0,False
2024-11-03,1.0755315874765594,1.0755315874765594,0.0,0,False
2024-11-04,1.0755315874765594,1.0755315874765594,0.0,0,False
2024-11-05,1.0755315874765594,1.0755315874765594,0.0,0,False
2024-11-06,1.0755315874765594,1.0755315874765594,0.0,0,False
2024-11-07,1.0755315874765594,1.0755315874765594,0.0,0,False
2024-11-08,1.0755315874765594,1.0755315874765594,0.0,0,False
2024-11-09,1.0755315874765594,1.0730579777098197,-0.22998950431045717,1,True
2024-11-10,1.0730579777098197,1.0682887902622125,-0.44444825411819044,3,True
2024-11-11,1.0682887902622125,1.0678759631556733,-0.03864377407141184,3,True
2024-11-12,1.0678759631556733,1.0698285963756142,0.18285206215997718,0,True
2024-11-13,1.0698285963756142,1.0698285963756142,0.0,0,False
2024-11-14,1.0698285963756142,1.072252832484035,0.22660042147253368,1,True
2024-11-15,1.072252832484035,1.072252832484035,0.0,0,False
2024-11-16,1.072252832484035,1.0707190512695448,-0.14304286899732288,1,True
2024-11-17,1.0707190512695448,1.0874346988817212,1.561160940618067,2,True
2024-11-18,1.0874346988817212,1.0874346988817212,0.0,0,False
2024-11-19,1.0874346988817212,1.0820050507227035,-0.49930797358235246,1,True
2024-11-20,1.0820050507227035,1.0820050507227035,0.0,0,False
2024-11-21,1.0820050507227035,1.0820050507227035,0.0,0,False
2024-11-22,1.0820050507227035,1.0820050507227035,0.0,0,False
2024-11-23,1.0820050507227035,1.0878218959668249,0.5375987145564753,1,True
2024-11-24,1.0878218959668249,1.1096185256408655,2.0036946999185457,8,True
2024-11-25,1.1096185256408655,1.1127571133432108,0.2828528570692823,1,True
2024-11-26,1.1127571133432108,1.1016685382159772,-0.9964955509400131,2,True
2024-11-27,1.1016685382159772,1.104579999157853,0.2642773975002122,2,True
2024-11-28,1.104579999157853,1.104579999157853,0.0,0,False
2024-11-29,1.104579999157853,1.104579999157853,0.0,0,False
2024-11-30,1.104579999157853,1.1148090107934305,0.9260543956414402,1,True
2024-12-01,1.1148090107934305,1.1148090107934305,0.0,0,False
2024-12-02,1.1148090107934305,1.1200902427346622,0.4737342352007845,1,True
2024-12-03,1.1200902427346622,1.1253958940373063,0.4736807000202514,1,True
2024-12-04,1.1253958940373063,1.1222209052015488,-0.2821219494916871,4,True
2024-12-05,1.1222209052015488,1.1290660473628762,0.6099638787336659,1,True
2024-12-06,1.1290660473628762,1.131348515757139,0.2021554363089706,1,True
2024-12-07,1.131348515757139,1.1331009086273591,0.15489416796090616,1,True
2024-12-08,1.1331009086273591,1.1331009086273591,0.0,0,False
2024-12-09,1.1331009086273591,1.12743965833339,-0.4996245480755168,1,True
2024-12-10,1.12743965833339,1.1184764781626382,-0.7950030943564279,5,True
2024-12-11,1.1184764781626382,1.1181548994075634,-0.02875149914668418,0,True
2024-12-12,1.1181548994075634,1.1181548994075634,0.0,0,False
2024-12-13,1.1181548994075634,1.1181548994075634,0.0,0,False
2024-12-14,1.1181548994075634,1.1181548994075634,0.0,0,False
2024-12-15,1.1181548994075634,1.11058954908927,-0.6765923328066359,2,True
2024-12-16,1.11058954908927,1.107024627118587,-0.32099365365056975,0,True
2024-12-17,1.107024627118587,1.107024627118587,0.0,0,False
2024-12-18,1.107024627118587,1.1014984810490065,-0.49918908163445463,1,True
2024-12-19,1.1014984810490065,1.1040568811842937,0.23226542562733155,1,True
2024-12-20,1.1040568811842937,1.0990536457541962,-0.4531682665417258,2,True
2024-12-21,1.0990536457541962,1.0990536457541962,0.0,0,False
2024-12-22,1.0990536457541962,1.0990536457541962,0.0,0,False
2024-12-23,1.0990536457541962,1.0990536457541962,0.0,0,False
2024-12-24,1.0990536457541962,1.0990536457541962,0.0,0,False
2024-12-25,1.0990536457541962,1.1104581786733747,1.0376684489638688,1,True
2024-12-26,1.1104581786733747,1.1099253401138476,-0.04798366744109828,1,True
2024-12-27,1.1099253401138476,1.1100131286428816,0.007909408485540226,0,True
2024-12-28,1.1100131286428816,1.1100131286428816,0.0,0,False
2024-12-29,1.1100131286428816,1.1100131286428816,0.0,0,False
2024-12-30,1.1100131286428816,1.113411400591367,0.30614700500344316,1,True
2024-12-31,1.113411400591367,1.113411400591367,0.0,0,False
