day,start_equity,end_equity,return_pct,entries,active
2021-09-02,1.0,1.0,0.0,0,False
2021-09-03,1.0,1.0,0.0,0,False
2021-09-04,1.0,1.0,0.0,0,False
2021-09-05,1.0,1.0,0.0,0,False
2021-09-06,1.0,1.0,0.0,0,False
2021-09-07,1.0,1.0,0.0,0,False
2021-09-08,1.0,1.0,0.0,0,False
2021-09-09,1.0,1.0,0.0,0,False
2021-09-10,1.0,1.0,0.0,0,False
2021-09-11,1.0,1.0,0.0,0,False
2021-09-12,1.0,1.0,0.0,0,False
2021-09-13,1.0,1.0,0.0,0,False
2021-09-14,1.0,1.0,0.0,0,False
2021-09-15,1.0,1.0,0.0,0,False
2021-09-16,1.0,1.0,0.0,0,False
2021-09-17,1.0,1.0,0.0,0,False
2021-09-18,1.0,1.0,0.0,0,False
2021-09-19,1.0,1.0,0.0,0,False
2021-09-20,1.0,1.0,0.0,0,False
2021-09-21,1.0,1.0,0.0,0,False
2021-09-22,1.0,1.0,0.0,0,False
2021-09-23,1.0,1.0,0.0,0,False
2021-09-24,1.0,1.0,0.0,0,False
2021-09-25,1.0,1.0,0.0,0,False
2021-09-26,1.0,1.0,0.0,0,False
2021-09-27,1.0,1.0,0.0,0,False
2021-09-28,1.0,1.0,0.0,0,False
2021-09-29,1.0,1.0,0.0,0,False
2021-09-30,1.0,1.0,0.0,0,False
2021-10-01,1.0,1.0,0.0,0,False
2021-10-02,1.0,1.0,0.0,0,False
2021-10-03,1.0,1.0,0.0,0,False
2021-10-04,1.0,1.0,0.0,0,False
2021-10-05,1.0,0.9993927768733932,-0.06072231266067707,1,True
2021-10-06,0.9993927768733932,1.004893207070895,0.5503772215274427,3,True
2021-10-07,1.004893207070895,0.9930126601419369,-1.1822696029151092,2,True
2021-10-08,0.9930126601419369,0.9924440868836258,-0.057257402763599696,1,True
2021-10-09,0.9924440868836258,0.9932673010247366,0.0829481632255602,2,True
2021-10-10,0.9932673010247366,0.9985808326170906,0.5349548492004308,1,True
2021-10-11,0.9985808326170906,0.9953553289912273,-0.32300876609157037,0,True
2021-10-12,0.9953553289912273,0.9953553289912273,0.0,0,False
2021-10-13,0.9953553289912273,1.011799689369501,1.652109543125646,4,True
2021-10-14,1.011799689369501,1.028539373394091,1.654446448290714,0,True
2021-10-15,1.028539373394091,1.0278958389007005,-0.06256780343439905,4,True
2021-10-16,1.0278958389007005,1.045605314438865,1.7228861979930121,2,True
2021-10-17,1.045605314438865,1.0453320441173766,-0.02613513126941136,0,True
2021-10-18,1.0453320441173766,1.0438990876538587,-0.13708146340503102,1,True
2021-10-19,1.0438990876538587,1.0465724043790023,0.25608957386407116,0,True
2021-10-20,1.0465724043790023,1.0465724043790023,0.0,0,False
2021-10-21,1.0465724043790023,1.0465724043790023,0.0,0,False
2021-10-22,1.0465724043790023,1.0465724043790023,0.0,0,False
2021-10-23,1.0465724043790023,1.0465724043790023,0.0,0,False
2021-10-24,1.0465724043790023,1.0465724043790023,0.0,0,False
2021-10-25,1.0465724043790023,1.0595309839806262,1.2381923646566095,2,True
2021-10-26,1.0595309839806262,1.0601864055511332,0.061859594520274896,0,True
2021-10-27,1.0601864055511332,1.0541215570665863,-0.5720549190964319,7,True
2021-10-28,1.0541215570665863,1.0564753503239945,0.22329429102638798,2,True
2021-10-29,1.0564753503239945,1.0532493325425276,-0.30535665413088386,0,True
2021-10-30,1.0532493325425276,1.0534485025851428,0.018910056380883056,2,True
2021-10-31,1.0534485025851428,1.0465556970671521,-0.6543087299546002,1,True
2021-11-01,1.0465556970671521,1.0574024117568452,1.0364202039212733,2,True
2021-11-02,1.0574024117568452,1.0606264894009683,0.3049054558865949,1,True
2021-11-03,1.0606264894009683,1.0587901752212048,-0.17313485926611083,1,True
2021-11-04,1.0587901752212048,1.083834146116365,2.365338428827779,1,True
2021-11-05,1.083834146116365,1.0617276663593027,-2.0396552218136854,3,True
2021-11-06,1.0617276663593027,1.0511124906733125,-0.9998021170899651,2,True
2021-11-07,1.0511124906733125,1.0516274080320216,0.048987845095371796,0,True
2021-11-08,1.0516274080320216,1.0516274080320216,0.0,0,False
2021-11-09,1.0516274080320216,1.0516274080320216,0.0,0,False
2021-11-10,1.0516274080320216,1.0516274080320216,0.0,0,False
2021-11-11,1.0516274080320216,1.0379500583783912,-1.3005889299923967,12,True
2021-11-12,1.0379500583783912,1.0326653981262073,-0.5091439814012055,1,True
2021-11-13,1.0326653981262073,1.0311319342356322,-0.14849571733085432,1,True
2021-11-14,1.0311319342356322,1.031560713374839,0.041583343990270194,0,True
2021-11-15,1.031560713374839,1.031560713374839,0.0,0,False
2021-11-16,1.031560713374839,1.0417469072877705,0.9874546190894007,7,True
2021-11-17,1.0417469072877705,1.0234766177310994,-1.753812699500934,0,True
2021-11-18,1.0234766177310994,1.0140978254404642,-0.9163660535231988,4,True
2021-11-19,1.0140978254404642,1.035771419581205,2.1372291308609404,4,True
2021-11-20,1.035771419581205,1.0362230276707094,0.043601134474902103,0,True
2021-11-21,1.0362230276707094,1.032229287175693,-0.3854132159168189,1,True
2021-11-22,1.032229287175693,1.0170555887620845,-1.4699930143549533,4,True
2021-11-23,1.0170555887620845,1.014165870196473,-0.2841259216842418,0,True
2021-11-24,1.014165870196473,1.0093503677564695,-0.4748239495646511,2,True
2021-11-25,1.0093503677564695,1.0078702347002009,-0.14664214761803684,4,True
2021-11-26,1.0078702347002009,0.9781214286351435,-2.9516504249087583,9,True
2021-11-27,0.9781214286351435,0.9823565435852183,0.4329845790194353,0,True
2021-11-28,0.9823565435852183,0.972478600018461,-1.0055354780563297,7,True
2021-11-29,0.972478600018461,0.9678017215535963,-0.48092353546657085,1,True
2021-11-30,0.9678017215535963,0.9576896613185832,-1.0448483413297072,3,True
2021-12-01,0.9576896613185832,0.951947923881138,-0.5995405055892244,1,True
2021-12-02,0.951947923881138,0.9460171970034437,-0.6230095921124001,5,True
2021-12-03,0.9460171970034437,0.9295480553119688,-1.7408924217912403,2,True
2021-12-04,0.9295480553119688,0.8690409180361357,-6.509307069178483,19,True
2021-12-05,0.8690409180361357,0.8581347011414415,-1.2549716208231199,3,True
2021-12-06,0.8581347011414415,0.8414771420417021,-1.941135707201036,11,True
2021-12-07,0.8414771420417021,0.8612302566195436,2.347433292116996,0,True
2021-12-08,0.8612302566195436,0.8662799116340965,0.586330423918624,2,True
2021-12-09,0.8662799116340965,0.8781137909223319,1.3660572211483757,2,True
2021-12-10,0.8781137909223319,0.8615430118332901,-1.8870878991248508,3,True
2021-12-11,0.8615430118332901,0.8529566256639238,-0.9966288451571548,2,True
2021-12-12,0.8529566256639238,0.8529566256639238,0.0,0,False
2021-12-13,0.8529566256639238,0.8444444581060562,-0.9979601895045875,2,True
2021-12-14,0.8444444581060562,0.8438936949197134,-0.06522195522224994,1,True
2021-12-15,0.8438936949197134,0.8408432449173482,-0.3614732543600119,1,True
2021-12-16,0.8408432449173482,0.8416334293236545,0.09397523391936335,0,True
2021-12-17,0.8416334293236545,0.8379852002514799,-0.43347007676564075,5,True
2021-12-18,0.8379852002514799,0.8404401651174125,0.2929604085126769,1,True
2021-12-19,0.8404401651174125,0.8359869343429303,-0.5298688662577322,1,True
2021-12-20,0.8359869343429303,0.8359869343429303,0.0,0,False
2021-12-21,0.8359869343429303,0.8330503207862949,-0.3512750541901033,1,True
2021-12-22,0.8330503207862949,0.8335419606221239,0.05901682330125002,0,True
2021-12-23,0.8335419606221239,0.8335419606221239,0.0,0,False
2021-12-24,0.8335419606221239,0.8335419606221239,0.0,0,False
2021-12-25,0.8335419606221239,0.8353042925606862,0.21142690132203157,1,True
2021-12-26,0.8353042925606862,0.8349406315409162,-0.04353635232199338,0,True
2021-12-27,0.8349406315409162,0.8349406315409162,0.0,0,False
2021-12-28,0.8349406315409162,0.8366748127675819,0.20770114199200052,1,True
2021-12-29,0.8366748127675819,0.8364685895313895,-0.024647955579093495,0,True
2021-12-30,0.8364685895313895,0.8364685895313895,0.0,0,False
2021-12-31,0.8364685895313895,0.8364685895313895,0.0,0,False
2022-01-01,0.8364685895313895,0.8364685895313895,0.0,0,False
2022-01-02,0.8364685895313895,0.8364685895313895,0.0,0,False
2022-01-03,0.8364685895313895,0.8364685895313895,0.0,0,False
2022-01-04,0.8364685895313895,0.8364685895313895,0.0,0,False
2022-01-05,0.8364685895313895,0.8378658701347691,0.1670451970183784,1,True
2022-01-06,0.8378658701347691,0.8148394657666602,-2.7482208297140875,8,True
2022-01-07,0.8148394657666602,0.8180795369378826,0.3976330685178553,5,True
2022-01-08,0.8180795369378826,0.8152194690730701,-0.34960755472724925,0,True
2022-01-09,0.8152194690730701,0.815769508239216,0.06747129908113436,1,True
2022-01-10,0.815769508239216,0.8173377947600325,0.19224627851088805,0,True
2022-01-11,0.8173377947600325,0.8173377947600325,0.0,0,False
2022-01-12,0.8173377947600325,0.8173377947600325,0.0,0,False
2022-01-13,0.8173377947600325,0.8173377947600325,0.0,0,False
2022-01-14,0.8173377947600325,0.8173377947600325,0.0,0,False
2022-01-15,0.8173377947600325,0.8177116173234329,0.04573660557445347,1,True
2022-01-16,0.8177116173234329,0.8166278809876168,-0.13253282854942539,0,True
2022-01-17,0.8166278809876168,0.8188223506991293,0.2687233393082966,1,True
2022-01-18,0.8188223506991293,0.8253171052804344,0.7931823765875201,0,True
2022-01-19,0.8253171052804344,0.821194557080181,-0.49951081516148577,1,True
2022-01-20,0.821194557080181,0.821194557080181,0.0,0,False
2022-01-21,0.821194557080181,0.7888856282864378,-3.9343817509726264,8,True
2022-01-22,0.7888856282864378,0.7571493166592005,-4.022929368883643,17,True
2022-01-23,0.7571493166592005,0.7717455436990738,1.9277871245102274,0,True
2022-01-24,0.7717455436990738,0.7609182225764279,-1.402965162681613,5,True
2022-01-25,0.7609182225764279,0.7709938700612862,1.324143276624734,0,True
2022-01-26,0.7709938700612862,0.7717255951387657,0.09490673089544988,1,True
2022-01-27,0.7717255951387657,0.7688761723001173,-0.36922746331046197,7,True
2022-01-28,0.7688761723001173,0.7560967900166727,-1.6620858785641124,0,True
2022-01-29,0.7560967900166727,0.7560967900166727,0.0,0,False
2022-01-30,0.7560967900166727,0.7628683172559202,0.8955899996742733,1,True
2022-01-31,0.7628683172559202,0.7615891537687266,-0.16767815077113335,0,True
2022-02-01,0.7615891537687266,0.7615891537687266,0.0,0,False
2022-02-02,0.7615891537687266,0.7610386747902361,-0.07228030700889843,1,True
2022-02-03,0.7610386747902361,0.7600736934189417,-0.12679794119009324,4,True
2022-02-04,0.7600736934189417,0.7681893819344047,1.0677502176081433,0,True
2022-02-05,0.7681893819344047,0.7681893819344047,0.0,0,False
2022-02-06,0.7681893819344047,0.7681893819344047,0.0,0,False
2022-02-07,0.7681893819344047,0.7681893819344047,0.0,0,False
2022-02-08,0.7681893819344047,0.7638789545820038,-0.561115195519446,3,True
2022-02-09,0.7638789545820038,0.7708860155232437,0.9172999071658028,2,True
2022-02-10,0.7708860155232437,0.7713720878481798,0.06305372197032977,5,True
2022-02-11,0.7713720878481798,0.7553103606110205,-2.0822282125822156,0,True
2022-02-12,0.7553103606110205,0.7367111144771701,-2.46246405501499,5,True
2022-02-13,0.7367111144771701,0.7367111144771701,0.0,0,False
2022-02-14,0.7367111144771701,0.7367111144771701,0.0,0,False
2022-02-15,0.7367111144771701,0.7367111144771701,0.0,0,False
2022-02-16,0.7367111144771701,0.7367111144771701,0.0,0,False
2022-02-17,0.7367111144771701,0.7367111144771701,0.0,0,False
2022-02-18,0.7367111144771701,0.7367111144771701,0.0,0,False
2022-02-19,0.7367111144771701,0.7367111144771701,0.0,0,False
2022-02-20,0.7367111144771701,0.7367111144771701,0.0,0,False
2022-02-21,0.7367111144771701,0.7367111144771701,0.0,0,False
2022-02-22,0.7367111144771701,0.7293785518919154,-0.9953104332433571,2,True
2022-02-23,0.7293785518919154,0.7293785518919154,0.0,0,False
2022-02-24,0.7293785518919154,0.7135497505165843,-2.170176424063075,9,True
2022-02-25,0.7135497505165843,0.7314855363449595,2.513599901813479,0,True
2022-02-26,0.7314855363449595,0.7314855363449595,0.0,0,False
2022-02-27,0.7314855363449595,0.7314855363449595,0.0,0,False
2022-02-28,0.7314855363449595,0.7356920691829365,0.575067124224482,2,True
2022-03-01,0.7356920691829365,0.7417254612601388,0.820097474192294,0,True
2022-03-02,0.7417254612601388,0.7417254612601388,0.0,0,False
2022-03-03,0.7417254612601388,0.7417254612601388,0.0,0,False
2022-03-04,0.7417254612601388,0.7495956611711092,1.0610664352278532,3,True
2022-03-05,0.7495956611711092,0.7418160810777945,-1.0378368627641854,2,True
2022-03-06,0.7418160810777945,0.737027894498847,-0.6454681559330377,4,True
2022-03-07,0.737027894498847,0.7289753535355582,-1.0925693618101473,0,True
2022-03-08,0.7289753535355582,0.7253432856681968,-0.4982428897967073,1,True
2022-03-09,0.7253432856681968,0.7344942514409338,1.261604808860528,2,True
2022-03-10,0.7344942514409338,0.7309622813029909,-0.4808710389514803,3,True
2022-03-11,0.7309622813029909,0.7252689642308452,-0.778879733985316,1,True
2022-03-12,0.7252689642308452,0.7247634692760161,-0.06969758527654024,0,True
2022-03-13,0.7247634692760161,0.7247634692760161,0.0,0,False
2022-03-14,0.7247634692760161,0.7211489128480957,-0.49872221506018777,1,True
2022-03-15,0.7211489128480957,0.7219169611767563,0.1065034301483303,1,True
2022-03-16,0.7219169611767563,0.7250614475251783,0.4355745213821205,1,True
2022-03-17,0.7250614475251783,0.726270967702339,0.1668162307193466,1,True
2022-03-18,0.726270967702339,0.7253743534037667,-0.12345451469840674,0,True
2022-03-19,0.7253743534037667,0.7253743534037667,0.0,0,False
2022-03-20,0.7253743534037667,0.7217536830754647,-0.4991450705848943,1,True
2022-03-21,0.7217536830754647,0.7225221640767208,0.10647413643689596,3,True
2022-03-22,0.7225221640767208,0.718793705372464,-0.5160338173184176,0,True
2022-03-23,0.718793705372464,0.7181206714118075,-0.09363381393383552,2,True
2022-03-24,0.7181206714118075,0.7143786545069039,-0.5210846942404368,0,True
2022-03-25,0.7143786545069039,0.7143786545069039,0.0,0,False
2022-03-26,0.7143786545069039,0.7155896478548412,0.16951701178322676,1,True
2022-03-27,0.7155896478548412,0.7134134783034548,-0.3041085848446867,1,True
2022-03-28,0.7134134783034548,0.7131190072927565,-0.04127634529678126,1,True
2022-03-29,0.7131190072927565,0.7147226130239459,0.22487210616881637,1,True
2022-03-30,0.7147226130239459,0.716845155245611,0.29697426427921503,5,True
2022-03-31,0.716845155245611,0.7174468970363265,0.08394306445571598,6,True
2022-04-01,0.7174468970363265,0.7278789625965453,1.4540540356801523,7,True
2022-04-02,0.7278789625965453,0.7355391095004983,1.0523929523429398,0,True
2022-04-03,0.7355391095004983,0.7304582506562481,-0.6907666470244544,2,True
2022-04-04,0.7304582506562481,0.7260957891886826,-0.5972225604469972,1,True
2022-04-05,0.7260957891886826,0.7179622228620608,-1.120178142846684,6,True
2022-04-06,0.7179622228620608,0.6914189043471628,-3.6970355360880447,13,True
2022-04-07,0.6914189043471628,0.6921266794366141,0.10236559703549197,2,True
2022-04-08,0.6921266794366141,0.6960798213560567,0.5711587252582806,0,True
2022-04-09,0.6960798213560567,0.6960798213560567,0.0,0,False
2022-04-10,0.6960798213560567,0.6960798213560567,0.0,0,False
2022-04-11,0.6960798213560567,0.6889269419104948,-1.0275947134377739,6,True
2022-04-12,0.6889269419104948,0.6787936134027085,-1.4708857922851815,0,True
2022-04-13,0.6787936134027085,0.6796612496949886,0.12782033819245253,1,True
2022-04-14,0.6796612496949886,0.679680876885765,0.0028877901727009103,0,True
2022-04-15,0.679680876885765,0.6807130010228384,0.15185422632493228,1,True
2022-04-16,0.6807130010228384,0.680444174763612,-0.0394918649742948,0,True
2022-04-17,0.680444174763612,0.6841385722652141,0.5429391034004638,1,True
2022-04-18,0.6841385722652141,0.6969606213409824,1.8741888844702626,6,True
2022-04-19,0.6969606213409824,0.7068154114633822,1.4139665600387596,1,True
2022-04-20,0.7068154114633822,0.7063166153385105,-0.0705695032652165,0,True
2022-04-21,0.7063166153385105,0.7050210451219654,-0.18342626924106042,3,True
2022-04-22,0.7050210451219654,0.7009377335395758,-0.5791758431385907,1,True
2022-04-23,0.7009377335395758,0.7009729567942271,0.005025161717786553,2,True
2022-04-24,0.7009729567942271,0.7014093959019893,0.062261903762750315,0,True
2022-04-25,0.7014093959019893,0.696886824745384,-0.6447833723113083,3,True
2022-04-26,0.696886824745384,0.6999718124090435,0.4426813011978892,2,True
2022-04-27,0.6999718124090435,0.69722604800975,-0.3922678528787693,0,True
2022-04-28,0.69722604800975,0.6987681262853591,0.2211733597749399,1,True
2022-04-29,0.6987681262853591,0.6885411843326238,-1.4635673219815515,2,True
2022-04-30,0.6885411843326238,0.6807701620594533,-1.1286212720452826,2,True
2022-05-01,0.6807701620594533,0.6852377675696086,0.6562575387616842,7,True
2022-05-02,0.6852377675696086,0.6883010855159268,0.4470445283807356,1,True
2022-05-03,0.6883010855159268,0.6930443483821914,0.6891261638370283,3,True
2022-05-04,0.6930443483821914,0.6880480702137644,-0.7209175257095968,1,True
2022-05-05,0.6880480702137644,0.6880480702137644,0.0,0,False
2022-05-06,0.6880480702137644,0.6714908579834702,-2.4064034109056,8,True
2022-05-07,0.6714908579834702,0.6688872665641709,-0.3877329658840134,2,True
2022-05-08,0.6688872665641709,0.6611588281825246,-1.1554171783452305,3,True
2022-05-09,0.6611588281825246,0.651174067614636,-1.5101909166570282,5,True
2022-05-10,0.651174067614636,0.6468595002575014,-0.6625827980127785,11,True
2022-05-11,0.6468595002575014,0.6196947300972244,-4.199485382755174,19,True
2022-05-12,0.6196947300972244,0.5901326438776563,-4.770427241640429,1,True
2022-05-13,0.5901326438776563,0.627120295437798,6.267684383141803,6,True
2022-05-14,0.627120295437798,0.6075443071290895,-3.1215682941727163,7,True
2022-05-15,0.6075443071290895,0.621513062337894,2.299215883498773,2,True
2022-05-16,0.621513062337894,0.6199595050101661,-0.24996374523234,8,True
2022-05-17,0.6199595050101661,0.6254888182654157,0.8918829714787524,4,True
2022-05-18,0.6254888182654157,0.6077989113571451,-2.8281731650019903,2,True
2022-05-19,0.6077989113571451,0.6117505795868851,0.6501604652295656,6,True
2022-05-20,0.6117505795868851,0.6119109041616898,0.026207506809883263,1,True
2022-05-21,0.6119109041616898,0.6119109041616898,0.0,0,False
2022-05-22,0.6119109041616898,0.6119109041616898,0.0,0,False
2022-05-23,0.6119109041616898,0.6140047776256522,0.34218600285134126,4,True
2022-05-24,0.6140047776256522,0.5893892643737201,-4.009010051537376,8,True
2022-05-25,0.5893892643737201,0.5881083139383564,-0.21733521677305134,1,True
2022-05-26,0.5881083139383564,0.5815241224352065,-1.1195542295700411,13,True
2022-05-27,0.5815241224352065,0.5666825923425828,-2.552177892547758,4,True
2022-05-28,0.5666825923425828,0.5674802518003629,0.1407594778026766,0,True
2022-05-29,0.5674802518003629,0.5705874621712318,0.5475451103383877,3,True
2022-05-30,0.5705874621712318,0.5737442094444802,0.5532451171002206,0,True
2022-05-31,0.5737442094444802,0.5669353460276727,-1.18674198444636,5,True
2022-06-01,0.5669353460276727,0.5621523544413768,-0.8436573270318659,2,True
2022-06-02,0.5621523544413768,0.5569744549371356,-0.9210847314491066,6,True
2022-06-03,0.5569744549371356,0.5584979131914126,0.27352390056183395,0,True
2022-06-04,0.5584979131914126,0.5584979131914126,0.0,0,False
2022-06-05,0.5584979131914126,0.5584979131914126,0.0,0,False
2022-06-06,0.5584979131914126,0.5599330716189533,0.2569675541560734,1,True
2022-06-07,0.5599330716189533,0.5551756520295669,-0.8496407571767839,4,True
2022-06-08,0.5551756520295669,0.5665447305672076,2.047834499960244,4,True
2022-06-09,0.5665447305672076,0.5650248008360362,-0.26828062272322706,3,True
2022-06-10,0.5650248008360362,0.566925598507377,0.336409599813714,5,True
2022-06-11,0.566925598507377,0.5711559041901304,0.7461835722167187,4,True
2022-06-12,0.5711559041901304,0.5657074061156204,-0.9539423534867697,13,True
2022-06-13,0.5657074061156204,0.5314558698843147,-6.054638115221234,7,True
2022-06-14,0.5314558698843147,0.5382237726169317,1.2734646686826778,6,True
2022-06-15,0.5382237726169317,0.5318226400096264,-1.1893069264075629,7,True
2022-06-16,0.5318226400096264,0.5380953012319462,1.1794648723879364,5,True
2022-06-17,0.5380953012319462,0.5466275845113554,1.5856453791502911,1,True
2022-06-18,0.5466275845113554,0.5415195407065826,-0.9344650635110252,6,True
2022-06-19,0.5415195407065826,0.5483735319568552,1.265696015573048,3,True
2022-06-20,0.5483735319568552,0.5541548023462249,1.0542577371922768,1,True
2022-06-21,0.5541548023462249,0.552956246039024,-0.2162854679101156,0,True
2022-06-22,0.552956246039024,0.5513896838084631,-0.283306724859822,5,True
2022-06-23,0.5513896838084631,0.5558793315993815,0.8142422542090966,1,True
2022-06-24,0.5558793315993815,0.5509198530063182,-0.8921861834283118,2,True
2022-06-25,0.5509198530063182,0.5472581356395486,-0.6646551847401927,4,True
2022-06-26,0.5472581356395486,0.5506745672949908,0.6242815653072942,0,True
2022-06-27,0.5506745672949908,0.5478064174515752,-0.5208429830897088,5,True
2022-06-28,0.5478064174515752,0.5439541728104377,-0.7032127624678752,4,True
2022-06-29,0.5439541728104377,0.5522523755203715,1.5255334226152995,4,True
2022-06-30,0.5522523755203715,0.5473470265227574,-0.8882440737338682,2,True
2022-07-01,0.5473470265227574,0.5474517083119795,0.01912530518111133,1,True
2022-07-02,0.5474517083119795,0.5469719447198478,-0.0876357831837038,1,True
2022-07-03,0.5469719447198478,0.5477850175856754,0.1486498299732908,1,True
2022-07-04,0.5477850175856754,0.5503611571086674,0.4702829468294256,0,True
2022-07-05,0.5503611571086674,0.5505752535839402,0.0389010874963569,1,True
2022-07-06,0.5505752535839402,0.5514357101162385,0.15628318321558865,0,True
2022-07-07,0.5514357101162385,0.5514357101162385,0.0,0,False
2022-07-08,0.5514357101162385,0.5514357101162385,0.0,0,False
2022-07-09,0.5514357101162385,0.5514357101162385,0.0,0,False
2022-07-10,0.5514357101162385,0.5514357101162385,0.0,0,False
2022-07-11,0.5514357101162385,0.5486854985467338,-0.49873657419193806,1,True
2022-07-12,0.5486854985467338,0.5503979862066098,0.3121073300482502,2,True
2022-07-13,0.5503979862066098,0.5551302916534868,0.859797013338004,5,True
2022-07-14,0.5551302916534868,0.5644896718387802,1.6859790081740877,0,True
2022-07-15,0.5644896718387802,0.5644896718387802,0.0,0,False
2022-07-16,0.5644896718387802,0.5644896718387802,0.0,0,False
2022-07-17,0.5644896718387802,0.5644896718387802,0.0,0,False
2022-07-18,0.5644896718387802,0.5653226075609501,0.14755552913070513,1,True
2022-07-19,0.5653226075609501,0.5674318273782897,0.3731002067013822,0,True
2022-07-20,0.5674318273782897,0.5681668299995369,0.12953144074472345,2,True
2022-07-21,0.5681668299995369,0.5588622656300581,-1.637646528834913,6,True
2022-07-22,0.5588622656300581,0.560007944827637,0.2050020672423214,0,True
2022-07-23,0.560007944827637,0.5620746567370183,0.3690504623139468,2,True
2022-07-24,0.5620746567370183,0.5655903067879238,0.6254774181271072,3,True
2022-07-25,0.5655903067879238,0.5659335388125362,0.06068562712144843,1,True
2022-07-26,0.5659335388125362,0.5654320625768215,-0.08861044651405914,1,True
2022-07-27,0.5654320625768215,0.5660433225912169,0.10810494396262804,1,True
2022-07-28,0.5660433225912169,0.5662574995527502,0.0378375564175526,0,True
2022-07-29,0.5662574995527502,0.5683349231139219,0.36686905918463797,2,True
2022-07-30,0.5683349231139219,0.5716177255144195,0.5776175749522938,1,True
2022-07-31,0.5716177255144195,0.5711732251742098,-0.07776181884662225,1,True
2022-08-01,0.5711732251742098,0.5698579860990601,-0.23026973555150265,1,True
2022-08-02,0.5698579860990601,0.5638697055553553,-1.0508373471603605,5,True
2022-08-03,0.5638697055553553,0.564865875301679,0.17666665481568256,1,True
2022-08-04,0.564865875301679,0.5630097195849658,-0.32860114194751544,0,True
2022-08-05,0.5630097195849658,0.5672213011841842,0.7480477605827263,2,True
2022-08-06,0.5672213011841842,0.5666623095900436,-0.09854911883133699,0,True
2022-08-07,0.5666623095900436,0.5672470117746529,0.10318353183438322,2,True
2022-08-08,0.5672470117746529,0.567736939658027,0.08636940754280786,0,True
2022-08-09,0.567736939658027,0.5652182505046468,-0.44363665237235894,6,True
2022-08-10,0.5652182505046468,0.5765383872929455,2.002790387286968,0,True
2022-08-11,0.5765383872929455,0.5779376370587006,0.2426984562684753,1,True
2022-08-12,0.5779376370587006,0.5749636650189135,-0.5145835552296862,3,True
2022-08-13,0.5749636650189135,0.5740042643598612,-0.16686283280540337,0,True
2022-08-14,0.5740042643598612,0.5740042643598612,0.0,0,False
2022-08-15,0.5740042643598612,0.5740042643598612,0.0,0,False
2022-08-16,0.5740042643598612,0.5705724846833866,-0.5978665821066209,2,True
2022-08-17,0.5705724846833866,0.5681402498584158,-0.42627972611060105,1,True
2022-08-18,0.5681402498584158,0.5654400536807871,-0.4752692980829365,1,True
2022-08-19,0.5654400536807871,0.5506721171837909,-2.6117598852191004,11,True
2022-08-20,0.5506721171837909,0.5506519395185593,-0.003664188652741096,1,True
2022-08-21,0.5506519395185593,0.5542975578689869,0.6620549368472339,0,True
2022-08-22,0.5542975578689869,0.5542975578689869,0.0,0,False
2022-08-23,0.5542975578689869,0.5542975578689869,0.0,0,False
2022-08-24,0.5542975578689869,0.5542975578689869,0.0,0,False
2022-08-25,0.5542975578689869,0.5529447309368122,-0.24406149963491774,1,True
2022-08-26,0.5529447309368122,0.5520027947242705,-0.17034907104473973,1,True
2022-08-27,0.5520027947242705,0.542680487299291,-1.6888152585597171,5,True
2022-08-28,0.542680487299291,0.5411784352576089,-0.27678386764138363,0,True
2022-08-29,0.5411784352576089,0.544293030721855,0.575520985562461,2,True
2022-08-30,0.544293030721855,0.5464742226002048,0.4007385278215203,1,True
2022-08-31,0.5464742226002048,0.544801609783585,-0.30607350675412315,2,True
2022-09-01,0.544801609783585,0.5399405016958838,-0.8922712415685097,1,True
2022-09-02,0.5399405016958838,0.540010190728634,0.012906798532674735,0,True
2022-09-03,0.540010190728634,0.540010190728634,0.0,0,False
2022-09-04,0.540010190728634,0.540010190728634,0.0,0,False
2022-09-05,0.540010190728634,0.540010190728634,0.0,0,False
2022-09-06,0.540010190728634,0.5384967770705096,-0.28025649961945787,1,True
2022-09-07,0.5384967770705096,0.5307299962536682,-1.442307762563333,5,True
2022-09-08,0.5307299962536682,0.5307299962536682,0.0,0,False
2022-09-09,0.5307299962536682,0.5307299962536682,0.0,0,False
2022-09-10,0.5307299962536682,0.5316790840980263,0.17882687073607073,1,True
2022-09-11,0.5316790840980263,0.5324996093517622,0.15432716431338367,0,True
2022-09-12,0.5324996093517622,0.5324996093517622,0.0,0,False
2022-09-13,0.5324996093517622,0.5262038004572188,-1.1823123968499383,4,True
2022-09-14,0.5262038004572188,0.5296250145715378,0.6501690241207392,2,True
2022-09-15,0.5296250145715378,0.5299885868895968,0.0686471197651306,3,True
2022-09-16,0.5299885868895968,0.5231714443224945,-1.2862810135423564,2,True
2022-09-17,0.5231714443224945,0.5225789437676537,-0.11325170004417018,1,True
2022-09-18,0.5225789437676537,0.523515828067783,0.17928091273149427,0,True
2022-09-19,0.523515828067783,0.520750158531273,-0.528287663568372,8,True
2022-09-20,0.520750158531273,0.5207583551676034,0.001574005537219314,0,True
2022-09-21,0.5207583551676034,0.5207583551676034,0.0,0,False
2022-09-22,0.5207583551676034,0.5203301314824341,-0.08223078533832195,2,True
2022-09-23,0.5203301314824341,0.5184380122782756,-0.3636382153706652,2,True
2022-09-24,0.5184380122782756,0.5199697330668362,0.2954491669755255,0,True
2022-09-25,0.5199697330668362,0.5199697330668362,0.0,0,False
2022-09-26,0.5199697330668362,0.5199697330668362,0.0,0,False
2022-09-27,0.5199697330668362,0.5199697330668362,0.0,0,False
2022-09-28,0.5199697330668362,0.5199697330668362,0.0,0,False
2022-09-29,0.5199697330668362,0.5199697330668362,0.0,0,False
2022-09-30,0.5199697330668362,0.5187039039127821,-0.24344285321920012,1,True
2022-10-01,0.5187039039127821,0.5185090631171102,-0.037563009301089245,0,True
2022-10-02,0.5185090631171102,0.5185090631171102,0.0,0,False
2022-10-03,0.5185090631171102,0.5185090631171102,0.0,0,False
2022-10-04,0.5185090631171102,0.5185090631171102,0.0,0,False
2022-10-05,0.5185090631171102,0.5185090631171102,0.0,0,False
2022-10-06,0.5185090631171102,0.5185090631171102,0.0,0,False
2022-10-07,0.5185090631171102,0.5185090631171102,0.0,0,False
2022-10-08,0.5185090631171102,0.5170706865312441,-0.277406257321533,1,True
2022-10-09,0.5170706865312441,0.5162510557998563,-0.15851425206218073,0,True
2022-10-10,0.5162510557998563,0.5162510557998563,0.0,0,False
2022-10-11,0.5162510557998563,0.5263500236780145,1.9562125374274153,6,True
2022-10-12,0.5263500236780145,0.5249556029489745,-0.2649227066232829,2,True
2022-10-13,0.5249556029489745,0.5246770962222578,-0.05305338682970451,1,True
2022-10-14,0.5246770962222578,0.530599253042677,1.1287240977468693,0,True
2022-10-15,0.530599253042677,0.530599253042677,0.0,0,False
2022-10-16,0.530599253042677,0.530599253042677,0.0,0,False
2022-10-17,0.530599253042677,0.530599253042677,0.0,0,False
2022-10-18,0.530599253042677,0.530599253042677,0.0,0,False
2022-10-19,0.530599253042677,0.530599253042677,0.0,0,False
2022-10-20,0.530599253042677,0.5336847651371379,0.5815145944453093,2,True
2022-10-21,0.5336847651371379,0.5299956097204837,-0.6912611447145722,0,True
2022-10-22,0.5299956097204837,0.5299956097204837,0.0,0,False
2022-10-23,0.5299956097204837,0.5299956097204837,0.0,0,False
2022-10-24,0.5299956097204837,0.5299956097204837,0.0,0,False
2022-10-25,0.5299956097204837,0.5282860153210425,-0.3225676530307142,1,True
2022-10-26,0.5282860153210425,0.527346479181544,-0.1778461121912378,0,True
2022-10-27,0.527346479181544,0.527346479181544,0.0,0,False
2022-10-28,0.527346479181544,0.5247163051065875,-0.49875635446330335,1,True
2022-10-29,0.5247163051065875,0.5247163051065875,0.0,0,False
2022-10-30,0.5247163051065875,0.5220891063669564,-0.5006893656749334,2,True
2022-10-31,0.5220891063669564,0.5229279189466173,0.160664639317587,1,True
2022-11-01,0.5229279189466173,0.5294990508173897,1.256603756022301,0,True
2022-11-02,0.5294990508173897,0.5329428531311438,0.6503887605535663,3,True
2022-11-03,0.5329428531311438,0.5403814162866305,1.3957524923701836,3,True
2022-11-04,0.5403814162866305,0.5453065545832642,0.9114188882508145,3,True
2022-11-05,0.5453065545832642,0.5425885030567208,-0.4984446828482647,2,True
2022-11-06,0.5425885030567208,0.5410325955126248,-0.2867564526949251,2,True
2022-11-07,0.5410325955126248,0.5355624769668723,-1.011051569003829,7,True
2022-11-08,0.5355624769668723,0.5163874106522123,-3.5803603014268215,10,True
2022-11-09,0.5163874106522123,0.48559318657851724,-5.9633955899120465,14,True
2022-11-10,0.48559318657851724,0.495666985163884,2.0745345824035644,8,True
2022-11-11,0.495666985163884,0.4933399876596157,-0.469467923811584,11,True
2022-11-12,0.4933399876596157,0.4843612297121452,-1.819993953878607,2,True
2022-11-13,0.4843612297121452,0.48156721728425383,-0.576844771319085,1,True
2022-11-14,0.48156721728425383,0.4892667564246058,1.5988503502735618,7,True
2022-11-15,0.4892667564246058,0.49093778790424014,0.3415379151949116,1,True
2022-11-16,0.49093778790424014,0.48810707961550437,-0.5765920567695093,2,True
2022-11-17,0.48810707961550437,0.4889898017592718,0.18084600298418074,1,True
2022-11-18,0.4889898017592718,0.49039587810127777,0.287547171116298,0,True
2022-11-19,0.49039587810127777,0.49008758070229336,-0.06286704533041698,3,True
2022-11-20,0.49008758070229336,0.4834985485494997,-1.3444601357479047,3,True
2022-11-21,0.4834985485494997,0.4757062976989808,-1.6116389333320047,8,True
2022-11-22,0.4757062976989808,0.4655275131928364,-2.1397203601002945,2,True
2022-11-23,0.4655275131928364,0.4711725680387157,1.2126146545372807,1,True
2022-11-24,0.4711725680387157,0.46747195674395703,-0.7854046576104112,2,True
2022-11-25,0.46747195674395703,0.46522231395016617,-0.48123588192543476,2,True
2022-11-26,0.46522231395016617,0.46609222619822854,0.18698850463041428,0,True
2022-11-27,0.46609222619822854,0.46609222619822854,0.0,0,False
2022-11-28,0.46609222619822854,0.4597616637395087,-1.3582209920891208,4,True
2022-11-29,0.4597616637395087,0.4597616637395087,0.0,0,False
2022-11-30,0.4597616637395087,0.4597616637395087,0.0,0,False
2022-12-01,0.4597616637395087,0.4598534614190196,0.01996636230263693,2,True
2022-12-02,0.4598534614190196,0.4600640960994761,0.045804739580845855,1,True
2022-12-03,0.4600640960994761,0.4599534879699748,-0.024041895561743853,0,True
2022-12-04,0.4599534879699748,0.4599534879699748,0.0,0,False
2022-12-05,0.4599534879699748,0.4599534879699748,0.0,0,False
2022-12-06,0.4599534879699748,0.46051765060869926,0.12265645407198988,2,True
2022-12-07,0.46051765060869926,0.45825136250854215,-0.4921175327724292,1,True
2022-12-08,0.45825136250854215,0.4568799666700146,-0.29926716006261067,2,True
2022-12-09,0.4568799666700146,0.45842433972079794,0.33802599445091897,0,True
2022-12-10,0.45842433972079794,0.45842433972079794,0.0,0,False
2022-12-11,0.45842433972079794,0.45842433972079794,0.0,0,False
2022-12-12,0.45842433972079794,0.45802924469156386,-0.08618543890464014,1,True
2022-12-13,0.45802924469156386,0.45853961742031196,0.11142797859813314,1,True
2022-12-14,0.45853961742031196,0.45841961990881486,-0.0261694970158044,0,True
2022-12-15,0.45841961990881486,0.45841961990881486,0.0,0,False
2022-12-16,0.45841961990881486,0.45887304107723587,0.09890963404035613,5,True
2022-12-17,0.45887304107723587,0.45448910253094943,-0.9553706916394233,5,True
2022-12-18,0.45448910253094943,0.45452795297239995,0.008548156872012491,0,True
2022-12-19,0.45452795297239995,0.4522614921146906,-0.49864058808435363,1,True
2022-12-20,0.4522614921146906,0.4522614921146906,0.0,0,False
2022-12-21,0.4522614921146906,0.4522614921146906,0.0,0,False
2022-12-22,0.4522614921146906,0.4522614921146906,0.0,0,False
2022-12-23,0.4522614921146906,0.4522614921146906,0.0,0,False
2022-12-24,0.4522614921146906,0.4522614921146906,0.0,0,False
2022-12-25,0.4522614921146906,0.4522614921146906,0.0,0,False
2022-12-26,0.4522614921146906,0.4522614921146906,0.0,0,False
2022-12-27,0.4522614921146906,0.4522614921146906,0.0,0,False
2022-12-28,0.4522614921146906,0.4536594545661819,0.30910490410198666,4,True
2022-12-29,0.4536594545661819,0.449356837464244,-0.9484244312845558,0,True
2022-12-30,0.449356837464244,0.4545292696561608,1.151074549372666,1,True
2022-12-31,0.4545292696561608,0.4559624529963948,0.31531156207347255,0,True
2023-01-01,0.4559624529963948,0.4559624529963948,0.0,0,False
2023-01-02,0.4559624529963948,0.45606518034130583,0.02252978161598751,1,True
2023-01-03,0.45606518034130583,0.45610485905733605,0.008700229208580268,0,True
2023-01-04,0.45610485905733605,0.45610485905733605,0.0,0,False
2023-01-05,0.45610485905733605,0.45610485905733605,0.0,0,False
2023-01-06,0.45610485905733605,0.45554509540503574,-0.12272696534240124,1,True
2023-01-07,0.45554509540503574,0.45655108247791154,0.22083150121094963,0,True
2023-01-08,0.45655108247791154,0.45655108247791154,0.0,0,False
2023-01-09,0.45655108247791154,0.4565754489488907,0.005337074407285591,1,True
2023-01-10,0.4565754489488907,0.45614504300809994,-0.09426830588057378,2,True
2023-01-11,0.45614504300809994,0.4517335423079694,-0.967126743510871,3,True
2023-01-12,0.4517335423079694,0.449627221964624,-0.4662749488523521,0,True
2023-01-13,0.449627221964624,0.44955142032100487,-0.016858775429107187,1,True
2023-01-14,0.44955142032100487,0.45181609056568184,0.5037622265902097,4,True
2023-01-15,0.45181609056568184,0.45083457086247664,-0.21723876676820186,2,True
2023-01-16,0.45083457086247664,0.45047098693924115,-0.08064685956534756,1,True
2023-01-17,0.45047098693924115,0.4501898456943086,-0.06241051101709694,0,True
2023-01-18,0.4501898456943086,0.4501898456943086,0.0,0,False
2023-01-19,0.4501898456943086,0.4432652046558151,-1.5381602016842244,7,True
2023-01-20,0.4432652046558151,0.44400932425096123,0.16787232278336894,0,True
2023-01-21,0.44400932425096123,0.44278102676708253,-0.2766377679006671,3,True
2023-01-22,0.44278102676708253,0.44724938646486656,1.009157896942714,1,True
2023-01-23,0.44724938646486656,0.4464633960263286,-0.1757387404710653,0,True
2023-01-24,0.4464633960263286,0.4606602742580968,3.179852672833894,4,True
2023-01-25,0.4606602742580968,0.45410030110221133,-1.4240370881666409,8,True
2023-01-26,0.45410030110221133,0.46438441069342484,2.264722037455491,0,True
2023-01-27,0.46438441069342484,0.46323516897392114,-0.24747637798341326,2,True
2023-01-28,0.46323516897392114,0.46615532968304213,0.6303840694110496,0,True
2023-01-29,0.46615532968304213,0.4653036981652204,-0.18269264847852185,1,True
2023-01-30,0.4653036981652204,0.46460425948929956,-0.15031874422637426,5,True
2023-01-31,0.46460425948929956,0.4705057052185146,1.2702091314664266,4,True
2023-02-01,0.4705057052185146,0.4686553017464678,-0.39327970979382565,2,True
2023-02-02,0.4686553017464678,0.47304726481456405,0.9371414452646443,0,True
2023-02-03,0.47304726481456405,0.47728142620195035,0.8950820990469399,2,True
2023-02-04,0.47728142620195035,0.476538886519628,-0.15557690736704988,0,True
2023-02-05,0.476538886519628,0.4778883644763288,0.2831831766252346,5,True
2023-02-06,0.4778883644763288,0.4698022425434037,-1.6920524821285254,2,True
2023-02-07,0.4698022425434037,0.4683501746956419,-0.30908065485184544,0,True
2023-02-08,0.4683501746956419,0.464314502412233,-0.8616783982266063,3,True
2023-02-09,0.464314502412233,0.4608875189056497,-0.7380737600870102,9,True
2023-02-10,0.4608875189056497,0.45001630293924366,-2.358756859421818,8,True
2023-02-11,0.45001630293924366,0.45659107847385283,1.4610082994030549,2,True
2023-02-12,0.45659107847385283,0.4625836509868195,1.3124593964903397,1,True
2023-02-13,0.4625836509868195,0.46267378812675003,0.019485587036705,2,True
2023-02-14,0.46267378812675003,0.46218412245499624,-0.10583389081458838,1,True
2023-02-15,0.46218412245499624,0.4628489699001949,0.14384904476318905,0,True
2023-02-16,0.4628489699001949,0.4628489699001949,0.0,0,False
2023-02-17,0.4628489699001949,0.46655677126265793,0.8010823408038492,1,True
2023-02-18,0.46655677126265793,0.46629352562268456,-0.05642306707090983,1,True
2023-02-19,0.46629352562268456,0.46706719855651296,0.16591972466168947,1,True
2023-02-20,0.46706719855651296,0.470212438916025,0.6734021077122287,3,True
2023-02-21,0.470212438916025,0.47644116261626984,1.324661617758105,5,True
2023-02-22,0.47644116261626984,0.4750904216912326,-0.2835063447540809,1,True
2023-02-23,0.4750904216912326,0.4796702313919098,0.9639869573404347,1,True
2023-02-24,0.4796702313919098,0.4796702313919098,0.0,0,False
2023-02-25,0.4796702313919098,0.47769722343653126,-0.41132591231547444,2,True
2023-02-26,0.47769722343653126,0.4774140644434719,-0.05927582978656476,0,True
2023-02-27,0.4774140644434719,0.4750294847226724,-0.49947831419235866,1,True
2023-02-28,0.4750294847226724,0.4740324982017993,-0.20987887129894078,1,True
2023-03-01,0.4740324982017993,0.47350649798318456,-0.11096290246135343,1,True
2023-03-02,0.47350649798318456,0.4708956731513176,-0.5513809932888636,1,True
2023-03-03,0.4708956731513176,0.4673653625093624,-0.7497012275202497,9,True
2023-03-04,0.4673653625093624,0.4688815522862052,0.3244120977862197,0,True
2023-03-05,0.4688815522862052,0.4752588744364717,1.3601136831192129,4,True
2023-03-06,0.4752588744364717,0.4747868830291805,-0.09931248687378158,0,True
2023-03-07,0.4747868830291805,0.4747868830291805,0.0,0,False
2023-03-08,0.4747868830291805,0.4747868830291805,0.0,0,False
2023-03-09,0.4747868830291805,0.4747868830291805,0.0,0,False
2023-03-10,0.4747868830291805,0.46314008485408714,-2.453058117525442,10,True
2023-03-11,0.46314008485408714,0.4580989424132734,-1.088470336658931,2,True
2023-03-12,0.4580989424132734,0.4580989424132734,0.0,0,False
2023-03-13,0.4580989424132734,0.4580989424132734,0.0,0,False
2023-03-14,0.4580989424132734,0.46121052711901,0.6792385700226111,1,True
2023-03-15,0.46121052711901,0.455000230614774,-1.3465209788313226,4,True
2023-03-16,0.455000230614774,0.4539163135382301,-0.23822341256385382,5,True
2023-03-17,0.4539163135382301,0.4521671453793666,-0.3853503623231558,2,True
2023-03-18,0.4521671453793666,0.46126451162998955,2.0119476489142807,2,True
2023-03-19,0.46126451162998955,0.45903516598836747,-0.4833117626465877,2,True
2023-03-20,0.45903516598836747,0.4612346729029674,0.47915869579711057,4,True
2023-03-21,0.4612346729029674,0.4502547370287154,-2.3805530068122027,1,True
2023-03-22,0.4502547370287154,0.4502547370287154,0.0,0,False
2023-03-23,0.4502547370287154,0.45460065521439535,0.9652132067192065,6,True
2023-03-24,0.45460065521439535,0.4485353396978163,-1.334207385538988,1,True
2023-03-25,0.4485353396978163,0.4462946860002519,-0.4995489762465444,1,True
2023-03-26,0.4462946860002519,0.4462946860002519,0.0,0,False
2023-03-27,0.4462946860002519,0.4440695624745524,-0.4985771947323192,1,True
2023-03-28,0.4440695624745524,0.45239086189211114,1.8738729516134311,4,True
2023-03-29,0.45239086189211114,0.45258736106970815,0.04343570884151049,0,True
2023-03-30,0.45258736106970815,0.45145062997254465,-0.2511628019122747,1,True
2023-03-31,0.45145062997254465,0.4503246700827659,-0.24940930746895074,0,True
2023-04-01,0.4503246700827659,0.4499419066417712,-0.08499721787934567,1,True
2023-04-02,0.4499419066417712,0.44898709394747016,-0.2122079940113708,0,True
2023-04-03,0.44898709394747016,0.44898709394747016,0.0,0,False
2023-04-04,0.44898709394747016,0.449147316057633,0.03568523735373308,1,True
2023-04-05,0.449147316057633,0.4484496119084684,-0.15533971243303357,1,True
2023-04-06,0.4484496119084684,0.44282389708452985,-1.2544809215013442,2,True
2023-04-07,0.44282389708452985,0.4411312704381895,-0.38223471169561707,1,True
2023-04-08,0.4411312704381895,0.4419913098823451,0.1949622486071556,1,True
2023-04-09,0.4419913098823451,0.44209042082285926,0.022423730579812506,0,True
2023-04-10,0.44209042082285926,0.44209042082285926,0.0,0,False
2023-04-11,0.44209042082285926,0.44209042082285926,0.0,0,False
2023-04-12,0.44209042082285926,0.44419179063902864,0.4753257969847269,1,True
2023-04-13,0.44419179063902864,0.4443948758508327,0.04572016324568828,0,True
2023-04-14,0.4443948758508327,0.44746595479299434,0.6910698365460988,1,True
2023-04-15,0.44746595479299434,0.44622035648392655,-0.27836716865845545,1,True
2023-04-16,0.44622035648392655,0.4477305557974424,0.33844249630736734,0,True
2023-04-17,0.4477305557974424,0.4454943152180491,-0.49946123855907354,1,True
2023-04-18,0.4454943152180491,0.4454943152180491,0.0,0,False
2023-04-19,0.4454943152180491,0.43793685510693203,-1.6964212231121434,9,True
2023-04-20,0.43793685510693203,0.4320297965401894,-1.3488379655327898,0,True
2023-04-21,0.4320297965401894,0.4320297965401894,0.0,0,False
2023-04-22,0.4320297965401894,0.4315623473674491,-0.10819836420631335,1,True
2023-04-23,0.4315623473674491,0.4316024163147226,0.009284625389116563,0,True
2023-04-24,0.4316024163147226,0.4316024163147226,0.0,0,False
2023-04-25,0.4316024163147226,0.4316024163147226,0.0,0,False
2023-04-26,0.4316024163147226,0.4316024163147226,0.0,0,False
2023-04-27,0.4316024163147226,0.4308287244634391,-0.1792603150579497,9,True
2023-04-28,0.4308287244634391,0.43620456996386686,1.2477918010510791,0,True
2023-04-29,0.43620456996386686,0.4340286349016193,-0.4988336235055457,1,True
2023-04-30,0.4340286349016193,0.4340286349016193,0.0,0,False
2023-05-01,0.4340286349016193,0.4340286349016193,0.0,0,False
2023-05-02,0.4340286349016193,0.4340286349016193,0.0,0,False
2023-05-03,0.4340286349016193,0.4340286349016193,0.0,0,False
2023-05-04,0.4340286349016193,0.4340286349016193,0.0,0,False
2023-05-05,0.4340286349016193,0.4340286349016193,0.0,0,False
2023-05-06,0.4340286349016193,0.43186586029803786,-0.498302284611174,1,True
2023-05-07,0.43186586029803786,0.43186586029803786,0.0,0,False
2023-05-08,0.43186586029803786,0.4269242753160739,-1.1442407090372142,7,True
2023-05-09,0.4269242753160739,0.42107637553793203,-1.3697744813907287,6,True
2023-05-10,0.42107637553793203,0.4184578638793615,-0.6218614509601372,2,True
2023-05-11,0.4184578638793615,0.41607258338776665,-0.570016887598157,4,True
2023-05-12,0.41607258338776665,0.41337180941998747,-0.6491112550095934,0,True
2023-05-13,0.41337180941998747,0.41337180941998747,0.0,0,False
2023-05-14,0.41337180941998747,0.41337180941998747,0.0,0,False
2023-05-15,0.41337180941998747,0.41337180941998747,0.0,0,False
2023-05-16,0.41337180941998747,0.41337180941998747,0.0,0,False
2023-05-17,0.41337180941998747,0.41337180941998747,0.0,0,False
2023-05-18,0.41337180941998747,0.41206017860698835,-0.31730049875425825,1,True
2023-05-19,0.41206017860698835,0.41130653639798054,-0.18289615161445338,0,True
2023-05-20,0.41130653639798054,0.41130653639798054,0.0,0,False
2023-05-21,0.41130653639798054,0.41130653639798054,0.0,0,False
2023-05-22,0.41130653639798054,0.40925194873353354,-0.49952711241597614,1,True
2023-05-23,0.40925194873353354,0.40925194873353354,0.0,0,False
2023-05-24,0.40925194873353354,0.40803997115311735,-0.2961446082704655,1,True
2023-05-25,0.40803997115311735,0.4099941311473593,0.4789138644234914,0,True
2023-05-26,0.4099941311473593,0.4107114531491525,0.17495909021569833,1,True
2023-05-27,0.4107114531491525,0.4120745147009131,0.33187814493831347,0,True
2023-05-28,0.4120745147009131,0.4120745147009131,0.0,0,False
2023-05-29,0.4120745147009131,0.4120745147009131,0.0,0,False
2023-05-30,0.4120745147009131,0.4139288335517106,0.4499960042768869,2,True
2023-05-31,0.4139288335517106,0.4097567257097619,-1.007928779966838,1,True
2023-06-01,0.4097567257097619,0.4097567257097619,0.0,0,False
2023-06-02,0.4097567257097619,0.4147828639366878,1.226615186906277,1,True
2023-06-03,0.4147828639366878,0.4147828639366878,0.0,0,False
2023-06-04,0.4147828639366878,0.41179062314379644,-0.7213993279500786,3,True
2023-06-05,0.41179062314379644,0.4154868453164056,0.8975974596969971,1,True
2023-06-06,0.4154868453164056,0.3996267920904866,-3.817221508864155,11,True
2023-06-07,0.3996267920904866,0.39812576701769264,-0.3756067166923338,1,True
2023-06-08,0.39812576701769264,0.39752812796341697,-0.15011313102201163,1,True
2023-06-09,0.39752812796341697,0.39635194374183563,-0.29587446493586356,1,True
2023-06-10,0.39635194374183563,0.40162103721738823,1.3293976625442294,7,True
2023-06-11,0.40162103721738823,0.4013982433517117,-0.055473654273729966,0,True
2023-06-12,0.4013982433517117,0.4013982433517117,0.0,0,False
2023-06-13,0.4013982433517117,0.401740940514962,0.0853758502749713,1,True
2023-06-14,0.401740940514962,0.4017193032450553,-0.005385876251240429,0,True
2023-06-15,0.4017193032450553,0.40371506424607645,0.49680485475793734,5,True
2023-06-16,0.40371506424607645,0.4076091120919627,0.9645535157718932,0,True
2023-06-17,0.4076091120919627,0.40821456191281247,0.14853687096012536,1,True
2023-06-18,0.40821456191281247,0.40872451668634013,0.12492321957799923,0,True
2023-06-19,0.40872451668634013,0.4107815732264528,0.5032867998205459,1,True
2023-06-20,0.4107815732264528,0.4090614006889855,-0.41875601282607144,1,True
2023-06-21,0.4090614006889855,0.4090614006889855,0.0,0,False
2023-06-22,0.4090614006889855,0.40701622142276606,-0.4999687730924296,1,True
2023-06-23,0.40701622142276606,0.40701622142276606,0.0,0,False
2023-06-24,0.40701622142276606,0.4070215769021508,0.001315790158451513,1,True
2023-06-25,0.4070215769021508,0.40431889756472866,-0.6640137748942676,4,True
2023-06-26,0.40431889756472866,0.403133526619441,-0.29317723025742426,0,True
2023-06-27,0.403133526619441,0.403133526619441,0.0,0,False
2023-06-28,0.403133526619441,0.403133526619441,0.0,0,False
2023-06-29,0.403133526619441,0.4019560873314055,-0.2920717852244126,2,True
2023-06-30,0.4019560873314055,0.3987082815699338,-0.8080001432579142,9,True
2023-07-01,0.3987082815699338,0.4022204642702033,0.8808903307551352,1,True
2023-07-02,0.4022204642702033,0.40221352399669125,-0.0017254899063012807,0,True
2023-07-03,0.40221352399669125,0.40221352399669125,0.0,0,False
2023-07-04,0.40221352399669125,0.40169460959153847,-0.12901465868090378,1,True
2023-07-05,0.40169460959153847,0.401892772320072,0.049331687257403445,1,True
2023-07-06,0.401892772320072,0.4000018462046734,-0.4705051311280184,2,True
2023-07-07,0.4000018462046734,0.3996024868563228,-0.09983937627783268,0,True
2023-07-08,0.3996024868563228,0.3996024868563228,0.0,0,False
2023-07-09,0.3996024868563228,0.3996024868563228,0.0,0,False
2023-07-10,0.3996024868563228,0.3996024868563228,0.0,0,False
2023-07-11,0.3996024868563228,0.3996024868563228,0.0,0,False
2023-07-12,0.3996024868563228,0.39877776580110896,-0.20638536604262736,1,True
2023-07-13,0.39877776580110896,0.3984607795337089,-0.07948945367184379,0,True
2023-07-14,0.3984607795337089,0.3984607795337089,0.0,0,False
2023-07-15,0.3984607795337089,0.39973148969238387,0.3189047012762458,6,True
2023-07-16,0.39973148969238387,0.4002462820150502,0.12878453060141126,1,True
2023-07-17,0.4002462820150502,0.4008758802598557,0.15730270913094646,0,True
2023-07-18,0.4008758802598557,0.4008114978165356,-0.0160604432669742,2,True
2023-07-19,0.4008114978165356,0.3998873416433607,-0.2305712730820586,0,True
2023-07-20,0.3998873416433607,0.39830773031029976,-0.39501408736006827,2,True
2023-07-21,0.39830773031029976,0.3975034295821441,-0.20192947988458831,0,True
2023-07-22,0.3975034295821441,0.3975034295821441,0.0,0,False
2023-07-23,0.3975034295821441,0.3975034295821441,0.0,0,False
2023-07-24,0.3975034295821441,0.3941287855817007,-0.8489597194144438,4,True
2023-07-25,0.3941287855817007,0.39370843673118605,-0.10665266427933862,0,True
2023-07-26,0.39370843673118605,0.39370843673118605,0.0,0,False
2023-07-27,0.39370843673118605,0.39370843673118605,0.0,0,False
2023-07-28,0.39370843673118605,0.39370843673118605,0.0,0,False
2023-07-29,0.39370843673118605,0.39370843673118605,0.0,0,False
2023-07-30,0.39370843673118605,0.39370843673118605,0.0,0,False
2023-07-31,0.39370843673118605,0.39174601190472313,-0.4984462214618013,1,True
2023-08-01,0.39174601190472313,0.3898553980512191,-0.482612150743178,2,True
2023-08-02,0.3898553980512191,0.39227543395445413,0.6207521853826226,0,True
2023-08-03,0.39227543395445413,0.39227543395445413,0.0,0,False
2023-08-04,0.39227543395445413,0.39227543395445413,0.0,0,False
2023-08-05,0.39227543395445413,0.39227543395445413,0.0,0,False
2023-08-06,0.39227543395445413,0.39227543395445413,0.0,0,False
2023-08-07,0.39227543395445413,0.3911026541914769,-0.29896844448163984,2,True
2023-08-08,0.3911026541914769,0.3868879025046688,-1.0776586764723373,4,True
2023-08-09,0.3868879025046688,0.3851660158208561,-0.44506087491116286,0,True
2023-08-10,0.3851660158208561,0.3832448980808608,-0.4987765433824731,1,True
2023-08-11,0.3832448980808608,0.3832448980808608,0.0,0,False
2023-08-12,0.3832448980808608,0.3832448980808608,0.0,0,False
2023-08-13,0.3832448980808608,0.38455606009876886,0.3421211931258217,1,True
2023-08-14,0.38455606009876886,0.38223283944753667,-0.6041305526781948,1,True
2023-08-15,0.38223283944753667,0.38223283944753667,0.0,0,False
2023-08-16,0.38223283944753667,0.3844685785724111,0.5849155002238593,7,True
2023-08-17,0.3844685785724111,0.3861400559546628,0.4347500616196154,5,True
2023-08-18,0.3861400559546628,0.3978089532703219,3.021933916389452,7,True
2023-08-19,0.3978089532703219,0.3978334289941222,0.006152632714551132,0,True
2023-08-20,0.3978334289941222,0.39720196829906096,-0.15872489565742498,1,True
2023-08-21,0.39720196829906096,0.3961869789845695,-0.2555348149048564,1,True
2023-08-22,0.3961869789845695,0.4008821611908466,1.1850925081664299,1,True
2023-08-23,0.4008821611908466,0.40134103798379156,0.11446675291857389,0,True
2023-08-24,0.40134103798379156,0.40134103798379156,0.0,0,False
2023-08-25,0.40134103798379156,0.39330722995801304,-2.001740979725819,6,True
2023-08-26,0.39330722995801304,0.39284314879095267,-0.11799456804033603,0,True
2023-08-27,0.39284314879095267,0.39284314879095267,0.0,0,False
2023-08-28,0.39284314879095267,0.39021200616073415,-0.6697692548072509,2,True
2023-08-29,0.39021200616073415,0.3924312731326025,0.568733646538333,1,True
2023-08-30,0.3924312731326025,0.38912082786689933,-0.843573255331409,2,True
2023-08-31,0.38912082786689933,0.3914212603633574,0.5911871921810752,2,True
2023-09-01,0.3914212603633574,0.38895474381738687,-0.6301437340631044,1,True
2023-09-02,0.38895474381738687,0.38468731524002703,-1.0971529837834781,4,True
2023-09-03,0.38468731524002703,0.3842697417043735,-0.10854881851068976,0,True
2023-09-04,0.3842697417043735,0.3834998617878468,-0.2003488260907571,3,True
2023-09-05,0.3834998617878468,0.38342620424842305,-0.019206666484927748,0,True
2023-09-06,0.38342620424842305,0.3839829440631542,0.14520129520683156,4,True
2023-09-07,0.3839829440631542,0.3862275115630854,0.5845487500512503,3,True
2023-09-08,0.3862275115630854,0.3816655535357596,-1.1811582268863474,4,True
2023-09-09,0.3816655535357596,0.3834937028244563,0.47899247698952596,4,True
2023-09-10,0.3834937028244563,0.3780756105416151,-1.4128243157414566,5,True
2023-09-11,0.3780756105416151,0.3763418619250122,-0.45857192801176394,2,True
2023-09-12,0.3763418619250122,0.37524169695689863,-0.2923312762726282,2,True
2023-09-13,0.37524169695689863,0.37892969337727894,0.9828322519295885,2,True
2023-09-14,0.37892969337727894,0.38163052451901147,0.712752573613562,4,True
2023-09-15,0.38163052451901147,0.386974311206631,1.4002513804037608,0,True
2023-09-16,0.386974311206631,0.3858184840530173,-0.29868317357029106,5,True
2023-09-17,0.3858184840530173,0.3862127839359859,0.10219828734656655,2,True
2023-09-18,0.3862127839359859,0.38226213824037686,-1.0229194526776397,1,True
2023-09-19,0.38226213824037686,0.38226213824037686,0.0,0,False
2023-09-20,0.38226213824037686,0.38273891440715635,0.12472492540700486,3,True
2023-09-21,0.38273891440715635,0.38082035172298784,-0.5012719146001321,1,True
2023-09-22,0.38082035172298784,0.38280629417974765,0.521490631415733,0,True
2023-09-23,0.38280629417974765,0.38280629417974765,0.0,0,False
2023-09-24,0.38280629417974765,0.3808963467740774,-0.49893312484915464,1,True
2023-09-25,0.3808963467740774,0.38072314162242604,-0.045473040925247954,1,True
2023-09-26,0.38072314162242604,0.3810930417086081,0.09715723730523429,1,True
2023-09-27,0.3810930417086081,0.38060267132035275,-0.12867471577460154,0,True
2023-09-28,0.38060267132035275,0.38060267132035275,0.0,0,False
2023-09-29,0.38060267132035275,0.3768184598296062,-0.9942682424216032,2,True
2023-09-30,0.3768184598296062,0.3768184598296062,0.0,0,False
2023-10-01,0.3768184598296062,0.3765062458664875,-0.08285527287061889,1,True
2023-10-02,0.3765062458664875,0.3789571722513848,0.6509656643960193,1,True
2023-10-03,0.3789571722513848,0.37767103684093595,-0.3393880640411018,3,True
2023-10-04,0.37767103684093595,0.3699602590995502,-2.0416650971923134,5,True
2023-10-05,0.3699602590995502,0.36693915396716004,-0.816602610167716,1,True
2023-10-06,0.36693915396716004,0.36693065356398585,-0.002316570222138381,0,True
2023-10-07,0.36693065356398585,0.36510134144886947,-0.49854436999153817,1,True
2023-10-08,0.36510134144886947,0.3644095909378871,-0.18946808254310943,1,True
2023-10-09,0.3644095909378871,0.3635249224867183,-0.24276760907744332,1,True
2023-10-10,0.3635249224867183,0.3613991007702295,-0.5847801856188939,1,True
2023-10-11,0.3613991007702295,0.36132564770439757,-0.02032463989960487,0,True
2023-10-12,0.36132564770439757,0.36132564770439757,0.0,0,False
2023-10-13,0.36132564770439757,0.36132564770439757,0.0,0,False
2023-10-14,0.36132564770439757,0.36132564770439757,0.0,0,False
2023-10-15,0.36132564770439757,0.361295344240101,-0.008386745997435163,1,True
2023-10-16,0.361295344240101,0.36189497390989894,0.1659666196527132,2,True
2023-10-17,0.36189497390989894,0.3625903755667565,0.1921556548145631,2,True
2023-10-18,0.3625903755667565,0.3582211756419219,-1.2049961111089025,3,True
2023-10-19,0.3582211756419219,0.35265970702692906,-1.552523690155072,4,True
2023-10-20,0.35265970702692906,0.3517935504554131,-0.24560689930188673,0,True
2023-10-21,0.3517935504554131,0.3519564064028648,0.0462930452365784,2,True
2023-10-22,0.3519564064028648,0.35386510675752825,0.5423115817584145,1,True
2023-10-23,0.35386510675752825,0.35386510675752825,0.0,0,False
2023-10-24,0.35386510675752825,0.35277392974518684,-0.30835959564927684,4,True
2023-10-25,0.35277392974518684,0.3620538705180459,2.630563085985993,6,True
2023-10-26,0.3620538705180459,0.3674453117071923,1.4891267924941776,3,True
2023-10-27,0.3674453117071923,0.3651124427930482,-0.6348887412130244,5,True
2023-10-28,0.3651124427930482,0.3653280488467441,0.05905196000621782,1,True
2023-10-29,0.3653280488467441,0.36599944562608194,0.18377914902985015,0,True
2023-10-30,0.36599944562608194,0.3649706827693215,-0.28108317350061807,2,True
2023-10-31,0.3649706827693215,0.3574652917345268,-2.0564366918036647,5,True
2023-11-01,0.3574652917345268,0.3545741300072043,-0.8087950898096219,4,True
2023-11-02,0.3545741300072043,0.35387272103658046,-0.19781730004091447,3,True
2023-11-03,0.35387272103658046,0.35182005695966884,-0.5800571660055764,1,True
2023-11-04,0.35182005695966884,0.35245886980793195,0.18157374363005907,1,True
2023-11-05,0.35245886980793195,0.35192496303292065,-0.15148058986350632,4,True
2023-11-06,0.35192496303292065,0.3483980841676019,-1.0021678584331783,3,True
2023-11-07,0.3483980841676019,0.34475326510107435,-1.0461650715547943,5,True
2023-11-08,0.34475326510107435,0.3452923456985139,0.1563670752419144,0,True
2023-11-09,0.3452923456985139,0.3477080762260131,0.6996189048477763,4,True
2023-11-10,0.3477080762260131,0.34581087360986423,-0.545630874249714,6,True
2023-11-11,0.34581087360986423,0.3452463286118013,-0.1632525293868592,3,True
2023-11-12,0.3452463286118013,0.350276795677781,1.4570660566346039,4,True
2023-11-13,0.350276795677781,0.34797541744068905,-0.657017040663177,3,True
2023-11-14,0.34797541744068905,0.34794278796397876,-0.00937694879433737,4,True
2023-11-15,0.34794278796397876,0.3445296756343421,-0.9809406740713955,1,True
2023-11-16,0.3445296756343421,0.3397336441010883,-1.3920517947905164,3,True
2023-11-17,0.3397336441010883,0.3378049993891655,-0.5676931753479719,3,True
2023-11-18,0.3378049993891655,0.3363869501215219,-0.4197833869266976,3,True
2023-11-19,0.3363869501215219,0.3323595217419008,-1.1972605887850762,3,True
2023-11-20,0.3323595217419008,0.33314593485635546,0.23661519018112198,1,True
2023-11-21,0.33314593485635546,0.3254038955954737,-2.323918274500314,4,True
2023-11-22,0.3254038955954737,0.32546273481222593,0.01808190299765755,4,True
2023-11-23,0.32546273481222593,0.3251808181330054,-0.08662026372486809,3,True
2023-11-24,0.3251808181330054,0.33049412354317664,1.633954130713211,1,True
2023-11-25,0.33049412354317664,0.3309376339161642,0.13419614492165,4,True
2023-11-26,0.3309376339161642,0.33093356605588314,-0.0012291924109453234,0,True
2023-11-27,0.33093356605588314,0.32930932800986235,-0.49080486617865127,2,True
2023-11-28,0.32930932800986235,0.3303735213185865,0.32315917534297967,3,True
2023-11-29,0.3303735213185865,0.3329531868671155,0.7808330214337467,3,True
2023-11-30,0.3329531868671155,0.33140283123485986,-0.4656377212795437,0,True
2023-12-01,0.33140283123485986,0.33140283123485986,0.0,0,False
2023-12-02,0.33140283123485986,0.33140283123485986,0.0,0,False
2023-12-03,0.33140283123485986,0.33192661518115124,0.15805053455326679,2,True
2023-12-04,0.33192661518115124,0.3356477470535429,1.1210706530299763,4,True
2023-12-05,0.3356477470535429,0.3356510638893902,0.0009881895160601673,4,True
2023-12-06,0.3356510638893902,0.3284015987073038,-2.1598218989931084,4,True
2023-12-07,0.3284015987073038,0.32568710162656567,-0.8265785219753075,4,True
2023-12-08,0.32568710162656567,0.3251776193922618,-0.15643304010486414,1,True
2023-12-09,0.3251776193922618,0.32676598058123846,0.4884595661734714,0,True
2023-12-10,0.32676598058123846,0.3259954014643063,-0.23581987193449505,3,True
2023-12-11,0.3259954014643063,0.3294272933959902,1.052742436325338,6,True
2023-12-12,0.3294272933959902,0.3293675719975707,-0.01812885562815225,0,True
2023-12-13,0.3293675719975707,0.3281119866068161,-0.38121099267290903,5,True
2023-12-14,0.3281119866068161,0.33107465864015384,0.902945382756748,1,True
2023-12-15,0.33107465864015384,0.3282733118985645,-0.8461374703504942,2,True
2023-12-16,0.3282733118985645,0.33817639110313347,3.016717730507734,4,True
2023-12-17,0.33817639110313347,0.3325295016447869,-1.6698059376428875,2,True
2023-12-18,0.3325295016447869,0.3308653132440084,-0.5004633852175311,7,True
2023-12-19,0.3308653132440084,0.3308622511911535,-0.0009254680779058333,4,True
2023-12-20,0.3308622511911535,0.3317867799432792,0.2794301099014129,2,True
2023-12-21,0.3317867799432792,0.32911517068052043,-0.8052187200513261,1,True
2023-12-22,0.32911517068052043,0.32639258686180234,-0.8272434883778046,1,True
2023-12-23,0.32639258686180234,0.32623893122264697,-0.047076939042256516,1,True
2023-12-24,0.32623893122264697,0.33628560082427633,3.079543438907617,2,True
2023-12-25,0.33628560082427633,0.33183269909520885,-1.3241428470778693,2,True
2023-12-26,0.33183269909520885,0.3307409844095082,-0.3289955114964105,1,True
2023-12-27,0.3307409844095082,0.3272146658150376,-1.0661873673643352,11,True
2023-12-28,0.3272146658150376,0.32853416207080105,0.4032509522385874,1,True
2023-12-29,0.32853416207080105,0.3332244858267126,1.4276517627109797,1,True
2023-12-30,0.3332244858267126,0.33418967705470615,0.2896519520763752,3,True
2023-12-31,0.33418967705470615,0.3324017220246161,-0.5350120464066133,2,True
