day,start_equity,end_equity,return_pct,entries,active
2024-01-02,1.0,1.0,0.0,0,False
2024-01-03,1.0,1.004655488462179,0.46554884621790027,3,True
2024-01-04,1.004655488462179,1.0066421060732755,0.19774117933077928,0,True
2024-01-05,1.0066421060732755,1.0066421060732755,0.0,0,False
2024-01-06,1.0066421060732755,1.0066421060732755,0.0,0,False
2024-01-07,1.0066421060732755,1.0066421060732755,0.0,0,False
2024-01-08,1.0066421060732755,1.0066421060732755,0.0,0,False
2024-01-09,1.0066421060732755,1.0066421060732755,0.0,0,False
2024-01-10,1.0066421060732755,1.0066421060732755,0.0,0,False
2024-01-11,1.0066421060732755,1.0066421060732755,0.0,0,False
2024-01-12,1.0066421060732755,1.0066421060732755,0.0,0,False
2024-01-13,1.0066421060732755,1.0066421060732755,0.0,0,False
2024-01-14,1.0066421060732755,1.0066421060732755,0.0,0,False
2024-01-15,1.0066421060732755,1.0066421060732755,0.0,0,False
2024-01-16,1.0066421060732755,1.0066421060732755,0.0,0,False
2024-01-17,1.0066421060732755,1.0066421060732755,0.0,0,False
2024-01-18,1.0066421060732755,1.0066421060732755,0.0,0,False
2024-01-19,1.0066421060732755,1.0066421060732755,0.0,0,False
2024-01-20,1.0066421060732755,1.0066421060732755,0.0,0,False
2024-01-21,1.0066421060732755,1.0066421060732755,0.0,0,False
2024-01-22,1.0066421060732755,1.0066421060732755,0.0,0,False
2024-01-23,1.0066421060732755,0.9966159518842423,-0.9959998820378568,2,True
2024-01-24,0.9966159518842423,0.9966159518842423,0.0,0,False
2024-01-25,0.9966159518842423,0.9966159518842423,0.0,0,False
2024-01-26,0.9966159518842423,0.9966159518842423,0.0,0,False
2024-01-27,0.9966159518842423,0.9966159518842423,0.0,0,False
2024-01-28,0.9966159518842423,0.9956087312753125,-0.10106406655698841,1,True
2024-01-29,0.9956087312753125,0.9956087312753125,0.0,0,False
2024-01-30,0.9956087312753125,0.9956087312753125,0.0,0,False
2024-01-31,0.9956087312753125,0.9956087312753125,0.0,0,False
2024-02-01,0.9956087312753125,0.9956087312753125,0.0,0,False
2024-02-02,0.9956087312753125,0.9956087312753125,0.0,0,False
2024-02-03,0.9956087312753125,0.9956087312753125,0.0,0,False
2024-02-04,0.9956087312753125,0.9956087312753125,0.0,0,False
2024-02-05,0.9956087312753125,0.9956087312753125,0.0,0,False
2024-02-06,0.9956087312753125,0.9906381520047133,-0.49925026915264015,1,True
2024-02-07,0.9906381520047133,0.9906381520047133,0.0,0,False
2024-02-08,0.9906381520047133,0.9906381520047133,0.0,0,False
2024-02-09,0.9906381520047133,0.9906381520047133,0.0,0,False
2024-02-10,0.9906381520047133,0.9906381520047133,0.0,0,False
2024-02-11,0.9906381520047133,0.9906381520047133,0.0,0,False
2024-02-12,0.9906381520047133,0.9906381520047133,0.0,0,False
2024-02-13,0.9906381520047133,0.9906381520047133,0.0,0,False
2024-02-14,0.9906381520047133,0.9906381520047133,0.0,0,False
2024-02-15,0.9906381520047133,0.9906381520047133,0.0,0,False
2024-02-16,0.9906381520047133,0.9906381520047133,0.0,0,False
2024-02-17,0.9906381520047133,0.9906381520047133,0.0,0,False
2024-02-18,0.9906381520047133,0.9906381520047133,0.0,0,False
2024-02-19,0.9906381520047133,0.9906381520047133,0.0,0,False
2024-02-20,0.9906381520047133,0.9906381520047133,0.0,0,False
2024-02-21,0.9906381520047133,0.9952090032454259,0.4614047249707598,1,True
2024-02-22,0.9952090032454259,0.9952090032454259,0.0,0,False
2024-02-23,0.9952090032454259,0.9952090032454259,0.0,0,False
2024-02-24,0.9952090032454259,0.9952090032454259,0.0,0,False
2024-02-25,0.9952090032454259,0.9952090032454259,0.0,0,False
2024-02-26,0.9952090032454259,0.9952090032454259,0.0,0,False
2024-02-27,0.9952090032454259,0.9943111544728973,-0.09021710712028286,1,True
2024-02-28,0.9943111544728973,0.9943111544728973,0.0,0,False
2024-02-29,0.9943111544728973,0.9943111544728973,0.0,0,False
2024-03-01,0.9943111544728973,0.9943111544728973,0.0,0,False
2024-03-02,0.9943111544728973,0.9943111544728973,0.0,0,False
2024-03-03,0.9943111544728973,1.005457537173417,1.1210155543742717,4,True
2024-03-04,1.005457537173417,1.007590140610389,0.21210278486423206,0,True
2024-03-05,1.007590140610389,1.006099268284171,-0.14796416381317457,1,True
2024-03-06,1.006099268284171,1.006099268284171,0.0,0,False
2024-03-07,1.006099268284171,1.006099268284171,0.0,0,False
2024-03-08,1.006099268284171,1.006099268284171,0.0,0,False
2024-03-09,1.006099268284171,1.006099268284171,0.0,0,False
2024-03-10,1.006099268284171,1.006099268284171,0.0,0,False
2024-03-11,1.006099268284171,1.006099268284171,0.0,0,False
2024-03-12,1.006099268284171,1.006099268284171,0.0,0,False
2024-03-13,1.006099268284171,1.006099268284171,0.0,0,False
2024-03-14,1.006099268284171,1.006099268284171,0.0,0,False
2024-03-15,1.006099268284171,1.006099268284171,0.0,0,False
2024-03-16,1.006099268284171,1.006099268284171,0.0,0,False
2024-03-17,1.006099268284171,1.006099268284171,0.0,0,False
2024-03-18,1.006099268284171,1.006099268284171,0.0,0,False
2024-03-19,1.006099268284171,1.006099268284171,0.0,0,False
2024-03-20,1.006099268284171,1.006099268284171,0.0,0,False
2024-03-21,1.006099268284171,1.006099268284171,0.0,0,False
2024-03-22,1.006099268284171,1.006099268284171,0.0,0,False
2024-03-23,1.006099268284171,1.006099268284171,0.0,0,False
2024-03-24,1.006099268284171,1.006099268284171,0.0,0,False
2024-03-25,1.006099268284171,1.006099268284171,0.0,0,False
2024-03-26,1.006099268284171,1.006099268284171,0.0,0,False
2024-03-27,1.006099268284171,1.0010697707894187,-0.49990072086323334,1,True
2024-03-28,1.0010697707894187,1.0010697707894187,0.0,0,False
2024-03-29,1.0010697707894187,0.9960682882509706,-0.49961378161524905,1,True
2024-03-30,0.9960682882509706,0.9960682882509706,0.0,0,False
2024-03-31,0.9960682882509706,0.9960682882509706,0.0,0,False
2024-04-01,0.9960682882509706,0.9960682882509706,0.0,0,False
2024-04-02,0.9960682882509706,0.9960682882509706,0.0,0,False
2024-04-03,0.9960682882509706,0.9960682882509706,0.0,0,False
2024-04-04,0.9960682882509706,0.9960682882509706,0.0,0,False
2024-04-05,0.9960682882509706,0.9958629115248959,-0.02061873954799509,1,True
2024-04-06,0.9958629115248959,0.9957239033081954,-0.013958569507088736,0,True
2024-04-07,0.9957239033081954,0.9957239033081954,0.0,0,False
2024-04-08,0.9957239033081954,0.9957239033081954,0.0,0,False
2024-04-09,0.9957239033081954,0.9957239033081954,0.0,0,False
2024-04-10,0.9957239033081954,0.9907519776456254,-0.4993277399539475,1,True
2024-04-11,0.9907519776456254,0.9907519776456254,0.0,0,False
2024-04-12,0.9907519776456254,0.9922413592681577,0.15032840268172087,1,True
2024-04-13,0.9922413592681577,0.9732843332892968,-1.9105256802480985,4,True
2024-04-14,0.9732843332892968,0.9732843332892968,0.0,0,False
2024-04-15,0.9732843332892968,0.9732843332892968,0.0,0,False
2024-04-16,0.9732843332892968,0.9732843332892968,0.0,0,False
2024-04-17,0.9732843332892968,0.9732843332892968,0.0,0,False
2024-04-18,0.9732843332892968,0.9732843332892968,0.0,0,False
2024-04-19,0.9732843332892968,0.9732843332892968,0.0,0,False
2024-04-20,0.9732843332892968,0.9732843332892968,0.0,0,False
2024-04-21,0.9732843332892968,0.9732843332892968,0.0,0,False
2024-04-22,0.9732843332892968,0.9732843332892968,0.0,0,False
2024-04-23,0.9732843332892968,0.9732843332892968,0.0,0,False
2024-04-24,0.9732843332892968,0.9732843332892968,0.0,0,False
2024-04-25,0.9732843332892968,0.9732843332892968,0.0,0,False
2024-04-26,0.9732843332892968,0.9732843332892968,0.0,0,False
2024-04-27,0.9732843332892968,0.9732843332892968,0.0,0,False
2024-04-28,0.9732843332892968,0.9732843332892968,0.0,0,False
2024-04-29,0.9732843332892968,0.9810397794110866,0.7968325243230323,1,True
2024-04-30,0.9810397794110866,0.9813096376851386,0.027507373270219126,0,True
2024-05-01,0.9813096376851386,0.9813096376851386,0.0,0,False
2024-05-02,0.9813096376851386,0.9813096376851386,0.0,0,False
2024-05-03,0.9813096376851386,0.9813096376851386,0.0,0,False
2024-05-04,0.9813096376851386,0.9813096376851386,0.0,0,False
2024-05-05,0.9813096376851386,0.9813096376851386,0.0,0,False
2024-05-06,0.9813096376851386,0.9813096376851386,0.0,0,False
2024-05-07,0.9813096376851386,0.9813096376851386,0.0,0,False
2024-05-08,0.9813096376851386,0.9813096376851386,0.0,0,False
2024-05-09,0.9813096376851386,0.9792181624345775,-0.21313102106026438,1,True
2024-05-10,0.9792181624345775,0.9792181624345775,0.0,0,False
2024-05-11,0.9792181624345775,0.9793583719388831,0.014318515493738637,1,True
2024-05-12,0.9793583719388831,0.9764719054446562,-0.2947303639741605,0,True
2024-05-13,0.9764719054446562,0.9764719054446562,0.0,0,False
2024-05-14,0.9764719054446562,0.9764719054446562,0.0,0,False
2024-05-15,0.9764719054446562,0.9764719054446562,0.0,0,False
2024-05-16,0.9764719054446562,0.9764719054446562,0.0,0,False
2024-05-17,0.9764719054446562,0.9764719054446562,0.0,0,False
2024-05-18,0.9764719054446562,0.9764719054446562,0.0,0,False
2024-05-19,0.9764719054446562,0.9764719054446562,0.0,0,False
2024-05-20,0.9764719054446562,0.9764719054446562,0.0,0,False
2024-05-21,0.9764719054446562,0.9764719054446562,0.0,0,False
2024-05-22,0.9764719054446562,0.9764719054446562,0.0,0,False
2024-05-23,0.9764719054446562,0.9764719054446562,0.0,0,False
2024-05-24,0.9764719054446562,0.9785239385714156,0.21014768733411682,1,True
2024-05-25,0.9785239385714156,0.9785239385714156,0.0,0,False
2024-05-26,0.9785239385714156,0.9785239385714156,0.0,0,False
2024-05-27,0.9785239385714156,0.9785239385714156,0.0,0,False
2024-05-28,0.9785239385714156,0.9785239385714156,0.0,0,False
2024-05-29,0.9785239385714156,0.9785239385714156,0.0,0,False
2024-05-30,0.9785239385714156,0.9785239385714156,0.0,0,False
2024-05-31,0.9785239385714156,0.9785239385714156,0.0,0,False
2024-06-01,0.9785239385714156,0.9785239385714156,0.0,0,False
2024-06-02,0.9785239385714156,0.9785239385714156,0.0,0,False
2024-06-03,0.9785239385714156,0.9794315311702728,0.09275119014280353,1,True
2024-06-04,0.9794315311702728,0.9789680192675116,-0.04732458451764954,1,True
2024-06-05,0.9789680192675116,0.9789680192675116,0.0,0,False
2024-06-06,0.9789680192675116,0.9789680192675116,0.0,0,False
2024-06-07,0.9789680192675116,0.9789680192675116,0.0,0,False
2024-06-08,0.9789680192675116,1.0021880104984868,2.3718845533226895,4,True
2024-06-09,1.0021880104984868,1.0021880104984868,0.0,0,False
2024-06-10,1.0021880104984868,1.0021880104984868,0.0,0,False
2024-06-11,1.0021880104984868,1.0021880104984868,0.0,0,False
2024-06-12,1.0021880104984868,1.0021880104984868,0.0,0,False
2024-06-13,1.0021880104984868,1.0021880104984868,0.0,0,False
2024-06-14,1.0021880104984868,1.0017710892821052,-0.04160109799898892,1,True
2024-06-15,1.0017710892821052,1.0089176408192597,0.7133916733688128,1,True
2024-06-16,1.0089176408192597,1.0089176408192597,0.0,0,False
2024-06-17,1.0089176408192597,1.0089176408192597,0.0,0,False
2024-06-18,1.0089176408192597,1.014011020416006,0.5048360134341845,4,True
2024-06-19,1.014011020416006,1.014011020416006,0.0,0,False
2024-06-20,1.014011020416006,1.014011020416006,0.0,0,False
2024-06-21,1.014011020416006,1.014011020416006,0.0,0,False
2024-06-22,1.014011020416006,1.014011020416006,0.0,0,False
2024-06-23,1.014011020416006,1.0193366292685189,0.5252022655856337,1,True
2024-06-24,1.0193366292685189,1.0193366292685189,0.0,0,False
2024-06-25,1.0193366292685189,1.0193366292685189,0.0,0,False
2024-06-26,1.0193366292685189,1.0193366292685189,0.0,0,False
2024-06-27,1.0193366292685189,1.0193366292685189,0.0,0,False
2024-06-28,1.0193366292685189,1.0193366292685189,0.0,0,False
2024-06-29,1.0193366292685189,1.009181651521512,-0.9962339678006193,2,True
2024-06-30,1.009181651521512,1.009181651521512,0.0,0,False
2024-07-01,1.009181651521512,1.009181651521512,0.0,0,False
2024-07-02,1.009181651521512,1.009181651521512,0.0,0,False
2024-07-03,1.009181651521512,1.009181651521512,0.0,0,False
2024-07-04,1.009181651521512,1.009181651521512,0.0,0,False
2024-07-05,1.009181651521512,1.009181651521512,0.0,0,False
2024-07-06,1.009181651521512,1.009181651521512,0.0,0,False
2024-07-07,1.009181651521512,1.009181651521512,0.0,0,False
2024-07-08,1.009181651521512,1.009181651521512,0.0,0,False
2024-07-09,1.009181651521512,1.009181651521512,0.0,0,False
2024-07-10,1.009181651521512,1.009181651521512,0.0,0,False
2024-07-11,1.009181651521512,1.009181651521512,0.0,0,False
2024-07-12,1.009181651521512,1.009181651521512,0.0,0,False
2024-07-13,1.009181651521512,1.009181651521512,0.0,0,False
2024-07-14,1.009181651521512,1.009181651521512,0.0,0,False
2024-07-15,1.009181651521512,1.009181651521512,0.0,0,False
2024-07-16,1.009181651521512,1.0070923607917468,-0.20702821207809752,1,True
2024-07-17,1.0070923607917468,1.0070923607917468,0.0,0,False
2024-07-18,1.0070923607917468,1.0070923607917468,0.0,0,False
2024-07-19,1.0070923607917468,1.0070923607917468,0.0,0,False
2024-07-20,1.0070923607917468,1.0079617964784298,0.08633127611050728,1,True
2024-07-21,1.0079617964784298,1.0079617964784298,0.0,0,False
2024-07-22,1.0079617964784298,1.0079617964784298,0.0,0,False
2024-07-23,1.0079617964784298,1.0039731164860353,-0.39571737801273876,1,True
2024-07-24,1.0039731164860353,1.0039731164860353,0.0,0,False
2024-07-25,1.0039731164860353,1.0039731164860353,0.0,0,False
2024-07-26,1.0039731164860353,1.0039731164860353,0.0,0,False
2024-07-27,1.0039731164860353,1.0039731164860353,0.0,0,False
2024-07-28,1.0039731164860353,1.0039731164860353,0.0,0,False
2024-07-29,1.0039731164860353,1.0039731164860353,0.0,0,False
2024-07-30,1.0039731164860353,1.0039731164860353,0.0,0,False
2024-07-31,1.0039731164860353,0.9989577442000254,-0.49955244853209235,1,True
2024-08-01,0.9989577442000254,0.9989577442000254,0.0,0,False
2024-08-02,0.9989577442000254,0.9989577442000254,0.0,0,False
2024-08-03,0.9989577442000254,0.9939688168487163,-0.49941325148885607,1,True
2024-08-04,0.9939688168487163,0.9939688168487163,0.0,0,False
2024-08-05,0.9939688168487163,0.9939688168487163,0.0,0,False
2024-08-06,0.9939688168487163,0.9939688168487163,0.0,0,False
2024-08-07,0.9939688168487163,0.9939688168487163,0.0,0,False
2024-08-08,0.9939688168487163,0.9939688168487163,0.0,0,False
2024-08-09,0.9939688168487163,0.9939688168487163,0.0,0,False
2024-08-10,0.9939688168487163,0.9939688168487163,0.0,0,False
2024-08-11,0.9939688168487163,0.9939688168487163,0.0,0,False
2024-08-12,0.9939688168487163,0.9939688168487163,0.0,0,False
2024-08-13,0.9939688168487163,0.9939688168487163,0.0,0,False
2024-08-14,0.9939688168487163,0.9939688168487163,0.0,0,False
2024-08-15,0.9939688168487163,0.9939688168487163,0.0,0,False
2024-08-16,0.9939688168487163,0.9939688168487163,0.0,0,False
2024-08-17,0.9939688168487163,0.9939688168487163,0.0,0,False
2024-08-18,0.9939688168487163,0.9939688168487163,0.0,0,False
2024-08-19,0.9939688168487163,0.9939688168487163,0.0,0,False
2024-08-20,0.9939688168487163,0.9939688168487163,0.0,0,False
2024-08-21,0.9939688168487163,0.9939688168487163,0.0,0,False
2024-08-22,0.9939688168487163,0.9939688168487163,0.0,0,False
2024-08-23,0.9939688168487163,0.9939688168487163,0.0,0,False
2024-08-24,0.9939688168487163,0.9939688168487163,0.0,0,False
2024-08-25,0.9939688168487163,0.9939688168487163,0.0,0,False
2024-08-26,0.9939688168487163,0.9939688168487163,0.0,0,False
2024-08-27,0.9939688168487163,0.9939688168487163,0.0,0,False
2024-08-28,0.9939688168487163,0.9939688168487163,0.0,0,False
2024-08-29,0.9939688168487163,0.9890060890297223,-0.4992840554825295,1,True
2024-08-30,0.9890060890297223,0.9890060890297223,0.0,0,False
2024-08-31,0.9890060890297223,0.9890060890297223,0.0,0,False
2024-09-01,0.9890060890297223,0.9853707951600333,-0.36757042347994595,1,True
2024-09-02,0.9853707951600333,0.9853707951600333,0.0,0,False
2024-09-03,0.9853707951600333,0.9853707951600333,0.0,0,False
2024-09-04,0.9853707951600333,0.9853707951600333,0.0,0,False
2024-09-05,0.9853707951600333,0.9853707951600333,0.0,0,False
2024-09-06,0.9853707951600333,0.9853707951600333,0.0,0,False
2024-09-07,0.9853707951600333,0.9853707951600333,0.0,0,False
2024-09-08,0.9853707951600333,0.9853707951600333,0.0,0,False
2024-09-09,0.9853707951600333,0.9853707951600333,0.0,0,False
2024-09-10,0.9853707951600333,0.9853707951600333,0.0,0,False
2024-09-11,0.9853707951600333,0.9853707951600333,0.0,0,False
2024-09-12,0.9853707951600333,0.9853707951600333,0.0,0,False
2024-09-13,0.9853707951600333,0.9853707951600333,0.0,0,False
2024-09-14,0.9853707951600333,0.9853707951600333,0.0,0,False
2024-09-15,0.9853707951600333,0.9853707951600333,0.0,0,False
2024-09-16,0.9853707951600333,0.9853707951600333,0.0,0,False
2024-09-17,0.9853707951600333,0.9853707951600333,0.0,0,False
2024-09-18,0.9853707951600333,0.9853707951600333,0.0,0,False
2024-09-19,0.9853707951600333,0.9853707951600333,0.0,0,False
2024-09-20,0.9853707951600333,0.9853707951600333,0.0,0,False
2024-09-21,0.9853707951600333,0.9853707951600333,0.0,0,False
2024-09-22,0.9853707951600333,0.9853707951600333,0.0,0,False
2024-09-23,0.9853707951600333,0.9853707951600333,0.0,0,False
2024-09-24,0.9853707951600333,0.9853707951600333,0.0,0,False
2024-09-25,0.9853707951600333,0.9853707951600333,0.0,0,False
2024-09-26,0.9853707951600333,0.9853707951600333,0.0,0,False
2024-09-27,0.9853707951600333,0.9853707951600333,0.0,0,False
2024-09-28,0.9853707951600333,0.9853707951600333,0.0,0,False
2024-09-29,0.9853707951600333,0.9853707951600333,0.0,0,False
2024-09-30,0.9853707951600333,0.9853707951600333,0.0,0,False
2024-10-01,0.9853707951600333,0.9853707951600333,0.0,0,False
2024-10-02,0.9853707951600333,0.9853707951600333,0.0,0,False
2024-10-03,0.9853707951600333,0.9853707951600333,0.0,0,False
2024-10-04,0.9853707951600333,0.9853707951600333,0.0,0,False
2024-10-05,0.9853707951600333,0.9853707951600333,0.0,0,False
2024-10-06,0.9853707951600333,0.9853707951600333,0.0,0,False
2024-10-07,0.9853707951600333,0.9853707951600333,0.0,0,False
2024-10-08,0.9853707951600333,0.9853707951600333,0.0,0,False
2024-10-09,0.9853707951600333,0.9853707951600333,0.0,0,False
2024-10-10,0.9853707951600333,0.9853707951600333,0.0,0,False
2024-10-11,0.9853707951600333,0.9853707951600333,0.0,0,False
2024-10-12,0.9853707951600333,0.9853707951600333,0.0,0,False
2024-10-13,0.9853707951600333,0.9853707951600333,0.0,0,False
2024-10-14,0.9853707951600333,0.9853707951600333,0.0,0,False
2024-10-15,0.9853707951600333,0.9853707951600333,0.0,0,False
2024-10-16,0.9853707951600333,0.9853707951600333,0.0,0,False
2024-10-17,0.9853707951600333,0.9853707951600333,0.0,0,False
2024-10-18,0.9853707951600333,0.9853707951600333,0.0,0,False
2024-10-19,0.9853707951600333,0.9853707951600333,0.0,0,False
2024-10-20,0.9853707951600333,0.9853707951600333,0.0,0,False
2024-10-21,0.9853707951600333,0.9853707951600333,0.0,0,False
2024-10-22,0.9853707951600333,0.9853707951600333,0.0,0,False
2024-10-23,0.9853707951600333,0.9853707951600333,0.0,0,False
2024-10-24,0.9853707951600333,0.9853707951600333,0.0,0,False
2024-10-25,0.9853707951600333,0.9853707951600333,0.0,0,False
2024-10-26,0.9853707951600333,0.9853707951600333,0.0,0,False
2024-10-27,0.9853707951600333,0.9853707951600333,0.0,0,False
2024-10-28,0.9853707951600333,0.9853707951600333,0.0,0,False
2024-10-29,0.9853707951600333,0.9853707951600333,0.0,0,False
2024-10-30,0.9853707951600333,0.9853707951600333,0.0,0,False
2024-10-31,0.9853707951600333,0.9853707951600333,0.0,0,False
2024-11-01,0.9853707951600333,0.9853707951600333,0.0,0,False
2024-11-02,0.9853707951600333,0.9853707951600333,0.0,0,False
2024-11-03,0.9853707951600333,0.9853707951600333,0.0,0,False
2024-11-04,0.9853707951600333,0.9853707951600333,0.0,0,False
2024-11-05,0.9853707951600333,0.9853707951600333,0.0,0,False
2024-11-06,0.9853707951600333,0.9853707951600333,0.0,0,False
2024-11-07,0.9853707951600333,0.9853707951600333,0.0,0,False
2024-11-08,0.9853707951600333,0.9853707951600333,0.0,0,False
2024-11-09,0.9853707951600333,0.9841045076368271,-0.12850873289791398,1,True
2024-11-10,0.9841045076368271,0.9860057828929873,0.19319851107337804,0,True
2024-11-11,0.9860057828929873,0.9860057828929873,0.0,0,False
2024-11-12,0.9860057828929873,0.9860057828929873,0.0,0,False
2024-11-13,0.9860057828929873,0.9860057828929873,0.0,0,False
2024-11-14,0.9860057828929873,0.9860057828929873,0.0,0,False
2024-11-15,0.9860057828929873,0.9860057828929873,0.0,0,False
2024-11-16,0.9860057828929873,0.9860057828929873,0.0,0,False
2024-11-17,0.9860057828929873,0.9860057828929873,0.0,0,False
2024-11-18,0.9860057828929873,0.9860057828929873,0.0,0,False
2024-11-19,0.9860057828929873,0.9860057828929873,0.0,0,False
2024-11-20,0.9860057828929873,0.9860057828929873,0.0,0,False
2024-11-21,0.9860057828929873,0.9860057828929873,0.0,0,False
2024-11-22,0.9860057828929873,0.9860057828929873,0.0,0,False
2024-11-23,0.9860057828929873,0.9860057828929873,0.0,0,False
2024-11-24,0.9860057828929873,0.9918636747177627,0.5941031915236872,2,True
2024-11-25,0.9918636747177627,0.9918636747177627,0.0,0,False
2024-11-26,0.9918636747177627,0.9918636747177627,0.0,0,False
2024-11-27,0.9918636747177627,0.9918636747177627,0.0,0,False
2024-11-28,0.9918636747177627,0.9918636747177627,0.0,0,False
2024-11-29,0.9918636747177627,0.9918636747177627,0.0,0,False
2024-11-30,0.9918636747177627,0.9918636747177627,0.0,0,False
2024-12-01,0.9918636747177627,0.9918636747177627,0.0,0,False
2024-12-02,0.9918636747177627,0.9918636747177627,0.0,0,False
2024-12-03,0.9918636747177627,0.9918636747177627,0.0,0,False
2024-12-04,0.9918636747177627,0.9918636747177627,0.0,0,False
2024-12-05,0.9918636747177627,0.9918636747177627,0.0,0,False
2024-12-06,0.9918636747177627,0.9918636747177627,0.0,0,False
2024-12-07,0.9918636747177627,0.9918636747177627,0.0,0,False
2024-12-08,0.9918636747177627,0.9918636747177627,0.0,0,False
2024-12-09,0.9918636747177627,0.9918636747177627,0.0,0,False
2024-12-10,0.9918636747177627,0.9918636747177627,0.0,0,False
2024-12-11,0.9918636747177627,0.9918636747177627,0.0,0,False
2024-12-12,0.9918636747177627,0.9918636747177627,0.0,0,False
2024-12-13,0.9918636747177627,0.9918636747177627,0.0,0,False
2024-12-14,0.9918636747177627,0.9918636747177627,0.0,0,False
2024-12-15,0.9918636747177627,0.9869117465885285,-0.49925491329675387,1,True
2024-12-16,0.9869117465885285,0.9869117465885285,0.0,0,False
2024-12-17,0.9869117465885285,0.9869117465885285,0.0,0,False
2024-12-18,0.9869117465885285,0.9869117465885285,0.0,0,False
2024-12-19,0.9869117465885285,0.9869117465885285,0.0,0,False
2024-12-20,0.9869117465885285,0.987201529560071,0.029362602334415122,1,True
2024-12-21,0.987201529560071,0.987201529560071,0.0,0,False
2024-12-22,0.987201529560071,0.987201529560071,0.0,0,False
2024-12-23,0.987201529560071,0.987201529560071,0.0,0,False
2024-12-24,0.987201529560071,0.987201529560071,0.0,0,False
2024-12-25,0.987201529560071,0.987201529560071,0.0,0,False
2024-12-26,0.987201529560071,0.987201529560071,0.0,0,False
2024-12-27,0.987201529560071,0.987201529560071,0.0,0,False
2024-12-28,0.987201529560071,0.987201529560071,0.0,0,False
2024-12-29,0.987201529560071,0.987201529560071,0.0,0,False
2024-12-30,0.987201529560071,0.987201529560071,0.0,0,False
2024-12-31,0.987201529560071,0.987201529560071,0.0,0,False
