day,start_equity,end_equity,return_pct,entries,active
2021-09-02,1.0,1.0,0.0,0,False
2021-09-03,1.0,1.0,0.0,0,False
2021-09-04,1.0,1.0,0.0,0,False
2021-09-05,1.0,1.0,0.0,0,False
2021-09-06,1.0,1.0,0.0,0,False
2021-09-07,1.0,1.0,0.0,0,False
2021-09-08,1.0,1.0,0.0,0,False
2021-09-09,1.0,1.0,0.0,0,False
2021-09-10,1.0,1.0,0.0,0,False
2021-09-11,1.0,1.0,0.0,0,False
2021-09-12,1.0,1.0,0.0,0,False
2021-09-13,1.0,1.0,0.0,0,False
2021-09-14,1.0,1.0,0.0,0,False
2021-09-15,1.0,1.0,0.0,0,False
2021-09-16,1.0,1.0,0.0,0,False
2021-09-17,1.0,1.0,0.0,0,False
2021-09-18,1.0,1.0,0.0,0,False
2021-09-19,1.0,1.0,0.0,0,False
2021-09-20,1.0,1.0,0.0,0,False
2021-09-21,1.0,1.0,0.0,0,False
2021-09-22,1.0,1.0,0.0,0,False
2021-09-23,1.0,1.0,0.0,0,False
2021-09-24,1.0,1.0,0.0,0,False
2021-09-25,1.0,1.0,0.0,0,False
2021-09-26,1.0,1.0,0.0,0,False
2021-09-27,1.0,1.0,0.0,0,False
2021-09-28,1.0,1.0,0.0,0,False
2021-09-29,1.0,1.0,0.0,0,False
2021-09-30,1.0,1.0,0.0,0,False
2021-10-01,1.0,1.0,0.0,0,False
2021-10-02,1.0,1.0,0.0,0,False
2021-10-03,1.0,1.0,0.0,0,False
2021-10-04,1.0,1.0,0.0,0,False
2021-10-05,1.0,1.0,0.0,0,False
2021-10-06,1.0,0.9950030470865769,-0.49969529134230584,1,True
2021-10-07,0.9950030470865769,0.9950030470865769,0.0,0,False
2021-10-08,0.9950030470865769,0.9950030470865769,0.0,0,False
2021-10-09,0.9950030470865769,0.9950030470865769,0.0,0,False
2021-10-10,0.9950030470865769,0.9950030470865769,0.0,0,False
2021-10-11,0.9950030470865769,0.9950030470865769,0.0,0,False
2021-10-12,0.9950030470865769,0.9950030470865769,0.0,0,False
2021-10-13,0.9950030470865769,1.000771297016294,0.57972183568753,1,True
2021-10-14,1.000771297016294,1.0042313517594972,0.3457388070100542,0,True
2021-10-15,1.0042313517594972,1.0042313517594972,0.0,0,False
2021-10-16,1.0042313517594972,1.0004796510098866,-0.3735892872730351,1,True
2021-10-17,1.0004796510098866,1.0007307413335873,0.025096994571272013,0,True
2021-10-18,1.0007307413335873,1.0007307413335873,0.0,0,False
2021-10-19,1.0007307413335873,1.0007307413335873,0.0,0,False
2021-10-20,1.0007307413335873,1.0007307413335873,0.0,0,False
2021-10-21,1.0007307413335873,1.0007307413335873,0.0,0,False
2021-10-22,1.0007307413335873,1.0007307413335873,0.0,0,False
2021-10-23,1.0007307413335873,1.0007307413335873,0.0,0,False
2021-10-24,1.0007307413335873,1.0007307413335873,0.0,0,False
2021-10-25,1.0007307413335873,1.0053667245443205,0.4632597979907338,1,True
2021-10-26,1.0053667245443205,1.0053667245443205,0.0,0,False
2021-10-27,1.0053667245443205,1.0210607823168372,1.561028169062384,4,True
2021-10-28,1.0210607823168372,1.0179925268272854,-0.30049685020610006,0,True
2021-10-29,1.0179925268272854,1.0179925268272854,0.0,0,False
2021-10-30,1.0179925268272854,1.016858648277937,-0.11138377929770238,1,True
2021-10-31,1.016858648277937,1.0171518072909047,0.028829868680779747,0,True
2021-11-01,1.0171518072909047,1.0171518072909047,0.0,0,False
2021-11-02,1.0171518072909047,1.0171518072909047,0.0,0,False
2021-11-03,1.0171518072909047,1.0171518072909047,0.0,0,False
2021-11-04,1.0171518072909047,1.0171518072909047,0.0,0,False
2021-11-05,1.0171518072909047,1.0171518072909047,0.0,0,False
2021-11-06,1.0171518072909047,1.0171518072909047,0.0,0,False
2021-11-07,1.0171518072909047,1.0171518072909047,0.0,0,False
2021-11-08,1.0171518072909047,1.0171518072909047,0.0,0,False
2021-11-09,1.0171518072909047,1.0171518072909047,0.0,0,False
2021-11-10,1.0171518072909047,1.0171518072909047,0.0,0,False
2021-11-11,1.0171518072909047,1.0331134461066143,1.5692484348252878,6,True
2021-11-12,1.0331134461066143,1.0331134461066143,0.0,0,False
2021-11-13,1.0331134461066143,1.0331134461066143,0.0,0,False
2021-11-14,1.0331134461066143,1.0331134461066143,0.0,0,False
2021-11-15,1.0331134461066143,1.0331134461066143,0.0,0,False
2021-11-16,1.0331134461066143,1.069843480303461,3.555275980122752,4,True
2021-11-17,1.069843480303461,1.0688444735514868,-0.09337877646279358,0,True
2021-11-18,1.0688444735514868,1.0644816115696585,-0.408184922108612,1,True
2021-11-19,1.0644816115696585,1.0635011646708379,-0.09210557403380726,0,True
2021-11-20,1.0635011646708379,1.0635011646708379,0.0,0,False
2021-11-21,1.0635011646708379,1.0635011646708379,0.0,0,False
2021-11-22,1.0635011646708379,1.0635011646708379,0.0,0,False
2021-11-23,1.0635011646708379,1.0635011646708379,0.0,0,False
2021-11-24,1.0635011646708379,1.0635011646708379,0.0,0,False
2021-11-25,1.0635011646708379,1.0635011646708379,0.0,0,False
2021-11-26,1.0635011646708379,1.0696174729391468,0.575110631891218,5,True
2021-11-27,1.0696174729391468,1.0677239392173694,-0.17702905661911572,0,True
2021-11-28,1.0677239392173694,1.0623912795921049,-0.4994417966476705,1,True
2021-11-29,1.0623912795921049,1.0623912795921049,0.0,0,False
2021-11-30,1.0623912795921049,1.0623912795921049,0.0,0,False
2021-12-01,1.0623912795921049,1.0595986158019457,-0.26286584272712243,1,True
2021-12-02,1.0595986158019457,1.0606581521939322,0.0999941276050631,1,True
2021-12-03,1.0606581521939322,1.05745395959909,-0.3020947501524929,1,True
2021-12-04,1.05745395959909,1.0266024824862532,-2.917524383239667,11,True
2021-12-05,1.0266024824862532,1.0262987288522323,-0.029588242694023048,0,True
2021-12-06,1.0262987288522323,1.0262987288522323,0.0,0,False
2021-12-07,1.0262987288522323,1.0262987288522323,0.0,0,False
2021-12-08,1.0262987288522323,1.0262987288522323,0.0,0,False
2021-12-09,1.0262987288522323,1.0262987288522323,0.0,0,False
2021-12-10,1.0262987288522323,1.0262987288522323,0.0,0,False
2021-12-11,1.0262987288522323,1.0262987288522323,0.0,0,False
2021-12-12,1.0262987288522323,1.0262987288522323,0.0,0,False
2021-12-13,1.0262987288522323,1.0262987288522323,0.0,0,False
2021-12-14,1.0262987288522323,1.0262987288522323,0.0,0,False
2021-12-15,1.0262987288522323,1.0262987288522323,0.0,0,False
2021-12-16,1.0262987288522323,1.0262987288522323,0.0,0,False
2021-12-17,1.0262987288522323,1.0256540828451723,-0.06281270637262804,1,True
2021-12-18,1.0256540828451723,1.0256540828451723,0.0,0,False
2021-12-19,1.0256540828451723,1.0256540828451723,0.0,0,False
2021-12-20,1.0256540828451723,1.0256540828451723,0.0,0,False
2021-12-21,1.0256540828451723,1.0256540828451723,0.0,0,False
2021-12-22,1.0256540828451723,1.0256540828451723,0.0,0,False
2021-12-23,1.0256540828451723,1.0256540828451723,0.0,0,False
2021-12-24,1.0256540828451723,1.0256540828451723,0.0,0,False
2021-12-25,1.0256540828451723,1.0256540828451723,0.0,0,False
2021-12-26,1.0256540828451723,1.0256540828451723,0.0,0,False
2021-12-27,1.0256540828451723,1.0256540828451723,0.0,0,False
2021-12-28,1.0256540828451723,1.0256540828451723,0.0,0,False
2021-12-29,1.0256540828451723,1.0256540828451723,0.0,0,False
2021-12-30,1.0256540828451723,1.0256540828451723,0.0,0,False
2021-12-31,1.0256540828451723,1.0256540828451723,0.0,0,False
2022-01-01,1.0256540828451723,1.0256540828451723,0.0,0,False
2022-01-02,1.0256540828451723,1.0256540828451723,0.0,0,False
2022-01-03,1.0256540828451723,1.0256540828451723,0.0,0,False
2022-01-04,1.0256540828451723,1.0256540828451723,0.0,0,False
2022-01-05,1.0256540828451723,1.0256540828451723,0.0,0,False
2022-01-06,1.0256540828451723,1.0270320131980781,0.13434649907340113,1,True
2022-01-07,1.0270320131980781,1.0270320131980781,0.0,0,False
2022-01-08,1.0270320131980781,1.0270320131980781,0.0,0,False
2022-01-09,1.0270320131980781,1.0270320131980781,0.0,0,False
2022-01-10,1.0270320131980781,1.0270320131980781,0.0,0,False
2022-01-11,1.0270320131980781,1.0270320131980781,0.0,0,False
2022-01-12,1.0270320131980781,1.0270320131980781,0.0,0,False
2022-01-13,1.0270320131980781,1.0270320131980781,0.0,0,False
2022-01-14,1.0270320131980781,1.0270320131980781,0.0,0,False
2022-01-15,1.0270320131980781,1.0270320131980781,0.0,0,False
2022-01-16,1.0270320131980781,1.0270320131980781,0.0,0,False
2022-01-17,1.0270320131980781,1.0270320131980781,0.0,0,False
2022-01-18,1.0270320131980781,1.0270320131980781,0.0,0,False
2022-01-19,1.0270320131980781,1.0270320131980781,0.0,0,False
2022-01-20,1.0270320131980781,1.0270320131980781,0.0,0,False
2022-01-21,1.0270320131980781,1.0270320131980781,0.0,0,False
2022-01-22,1.0270320131980781,1.0270320131980781,0.0,0,False
2022-01-23,1.0270320131980781,1.0270320131980781,0.0,0,False
2022-01-24,1.0270320131980781,1.0270320131980781,0.0,0,False
2022-01-25,1.0270320131980781,1.0270320131980781,0.0,0,False
2022-01-26,1.0270320131980781,1.0270320131980781,0.0,0,False
2022-01-27,1.0270320131980781,1.0270320131980781,0.0,0,False
2022-01-28,1.0270320131980781,1.0270320131980781,0.0,0,False
2022-01-29,1.0270320131980781,1.0270320131980781,0.0,0,False
2022-01-30,1.0270320131980781,1.0270320131980781,0.0,0,False
2022-01-31,1.0270320131980781,1.0270320131980781,0.0,0,False
2022-02-01,1.0270320131980781,1.0270320131980781,0.0,0,False
2022-02-02,1.0270320131980781,1.0270320131980781,0.0,0,False
2022-02-03,1.0270320131980781,1.0270320131980781,0.0,0,False
2022-02-04,1.0270320131980781,1.0270320131980781,0.0,0,False
2022-02-05,1.0270320131980781,1.0270320131980781,0.0,0,False
2022-02-06,1.0270320131980781,1.0270320131980781,0.0,0,False
2022-02-07,1.0270320131980781,1.0270320131980781,0.0,0,False
2022-02-08,1.0270320131980781,1.0270320131980781,0.0,0,False
2022-02-09,1.0270320131980781,1.0270320131980781,0.0,0,False
2022-02-10,1.0270320131980781,1.028208375693545,0.11454000268247277,2,True
2022-02-11,1.028208375693545,1.0182280834852975,-0.9706487949503018,0,True
2022-02-12,1.0182280834852975,1.0182280834852975,0.0,0,False
2022-02-13,1.0182280834852975,1.0182280834852975,0.0,0,False
2022-02-14,1.0182280834852975,1.0182280834852975,0.0,0,False
2022-02-15,1.0182280834852975,1.0182280834852975,0.0,0,False
2022-02-16,1.0182280834852975,1.0182280834852975,0.0,0,False
2022-02-17,1.0182280834852975,1.0182280834852975,0.0,0,False
2022-02-18,1.0182280834852975,1.0182280834852975,0.0,0,False
2022-02-19,1.0182280834852975,1.0182280834852975,0.0,0,False
2022-02-20,1.0182280834852975,1.0182280834852975,0.0,0,False
2022-02-21,1.0182280834852975,1.0182280834852975,0.0,0,False
2022-02-22,1.0182280834852975,1.0182280834852975,0.0,0,False
2022-02-23,1.0182280834852975,1.0182280834852975,0.0,0,False
2022-02-24,1.0182280834852975,1.0182280834852975,0.0,0,False
2022-02-25,1.0182280834852975,1.0182280834852975,0.0,0,False
2022-02-26,1.0182280834852975,1.0182280834852975,0.0,0,False
2022-02-27,1.0182280834852975,1.0182280834852975,0.0,0,False
2022-02-28,1.0182280834852975,1.0182280834852975,0.0,0,False
2022-03-01,1.0182280834852975,1.0182280834852975,0.0,0,False
2022-03-02,1.0182280834852975,1.0182280834852975,0.0,0,False
2022-03-03,1.0182280834852975,1.0182280834852975,0.0,0,False
2022-03-04,1.0182280834852975,1.0182280834852975,0.0,0,False
2022-03-05,1.0182280834852975,1.0182280834852975,0.0,0,False
2022-03-06,1.0182280834852975,1.0182280834852975,0.0,0,False
2022-03-07,1.0182280834852975,1.0182280834852975,0.0,0,False
2022-03-08,1.0182280834852975,1.0182280834852975,0.0,0,False
2022-03-09,1.0182280834852975,1.0182280834852975,0.0,0,False
2022-03-10,1.0182280834852975,1.0182280834852975,0.0,0,False
2022-03-11,1.0182280834852975,1.0182280834852975,0.0,0,False
2022-03-12,1.0182280834852975,1.0182280834852975,0.0,0,False
2022-03-13,1.0182280834852975,1.0182280834852975,0.0,0,False
2022-03-14,1.0182280834852975,1.0182280834852975,0.0,0,False
2022-03-15,1.0182280834852975,1.0182280834852975,0.0,0,False
2022-03-16,1.0182280834852975,1.0182280834852975,0.0,0,False
2022-03-17,1.0182280834852975,1.0182280834852975,0.0,0,False
2022-03-18,1.0182280834852975,1.0182280834852975,0.0,0,False
2022-03-19,1.0182280834852975,1.0182280834852975,0.0,0,False
2022-03-20,1.0182280834852975,1.0182280834852975,0.0,0,False
2022-03-21,1.0182280834852975,1.0182280834852975,0.0,0,False
2022-03-22,1.0182280834852975,1.0182280834852975,0.0,0,False
2022-03-23,1.0182280834852975,1.0182280834852975,0.0,0,False
2022-03-24,1.0182280834852975,1.0182280834852975,0.0,0,False
2022-03-25,1.0182280834852975,1.0182280834852975,0.0,0,False
2022-03-26,1.0182280834852975,1.0201463567846671,0.1883932814741751,1,True
2022-03-27,1.0201463567846671,1.0201463567846671,0.0,0,False
2022-03-28,1.0201463567846671,1.0201463567846671,0.0,0,False
2022-03-29,1.0201463567846671,1.0201463567846671,0.0,0,False
2022-03-30,1.0201463567846671,1.0186461171137622,-0.14706121929733973,1,True
2022-03-31,1.0186461171137622,1.0186461171137622,0.0,0,False
2022-04-01,1.0186461171137622,1.0186461171137622,0.0,0,False
2022-04-02,1.0186461171137622,1.0186461171137622,0.0,0,False
2022-04-03,1.0186461171137622,1.0186461171137622,0.0,0,False
2022-04-04,1.0186461171137622,1.0135584349320321,-0.4994553158603865,1,True
2022-04-05,1.0135584349320321,1.0135584349320321,0.0,0,False
2022-04-06,1.0135584349320321,1.015015425686722,0.14375004977267292,1,True
2022-04-07,1.015015425686722,1.012139450261125,-0.28334302640291575,1,True
2022-04-08,1.012139450261125,1.012139450261125,0.0,0,False
2022-04-09,1.012139450261125,1.012139450261125,0.0,0,False
2022-04-10,1.012139450261125,1.012139450261125,0.0,0,False
2022-04-11,1.012139450261125,1.012139450261125,0.0,0,False
2022-04-12,1.012139450261125,1.012139450261125,0.0,0,False
2022-04-13,1.012139450261125,1.012139450261125,0.0,0,False
2022-04-14,1.012139450261125,1.012139450261125,0.0,0,False
2022-04-15,1.012139450261125,1.012139450261125,0.0,0,False
2022-04-16,1.012139450261125,1.012139450261125,0.0,0,False
2022-04-17,1.012139450261125,1.012139450261125,0.0,0,False
2022-04-18,1.012139450261125,1.0151652836026943,0.2989541945814578,1,True
2022-04-19,1.0151652836026943,1.0136807791869402,-0.14623277999478157,0,True
2022-04-20,1.0136807791869402,1.0136807791869402,0.0,0,False
2022-04-21,1.0136807791869402,1.0136807791869402,0.0,0,False
2022-04-22,1.0136807791869402,1.0136807791869402,0.0,0,False
2022-04-23,1.0136807791869402,1.0136807791869402,0.0,0,False
2022-04-24,1.0136807791869402,1.0136807791869402,0.0,0,False
2022-04-25,1.0136807791869402,1.0136807791869402,0.0,0,False
2022-04-26,1.0136807791869402,1.0136807791869402,0.0,0,False
2022-04-27,1.0136807791869402,1.0136807791869402,0.0,0,False
2022-04-28,1.0136807791869402,1.0136807791869402,0.0,0,False
2022-04-29,1.0136807791869402,1.0136807791869402,0.0,0,False
2022-04-30,1.0136807791869402,1.0136807791869402,0.0,0,False
2022-05-01,1.0136807791869402,1.0318677743047124,1.7941540859006677,4,True
2022-05-02,1.0318677743047124,1.0318677743047124,0.0,0,False
2022-05-03,1.0318677743047124,1.0318677743047124,0.0,0,False
2022-05-04,1.0318677743047124,1.0318677743047124,0.0,0,False
2022-05-05,1.0318677743047124,1.0318677743047124,0.0,0,False
2022-05-06,1.0318677743047124,1.0276927151283524,-0.4046118388737585,2,True
2022-05-07,1.0276927151283524,1.0266703948211482,-0.09947723596313018,0,True
2022-05-08,1.0266703948211482,1.0266703948211482,0.0,0,False
2022-05-09,1.0266703948211482,1.0266703948211482,0.0,0,False
2022-05-10,1.0266703948211482,1.0164105301239563,-0.999333841605432,2,True
2022-05-11,1.0164105301239563,1.0016003996697391,-1.457101241602743,5,True
2022-05-12,1.0016003996697391,0.9861927038239245,-1.5383076774824533,1,True
2022-05-13,0.9861927038239245,0.9861927038239245,0.0,0,False
2022-05-14,0.9861927038239245,0.9861927038239245,0.0,0,False
2022-05-15,0.9861927038239245,0.9831828564689116,-0.30519870440558483,1,True
2022-05-16,0.9831828564689116,0.9924445180837181,0.9420080459976443,1,True
2022-05-17,0.9924445180837181,0.9924445180837181,0.0,0,False
2022-05-18,0.9924445180837181,0.9924445180837181,0.0,0,False
2022-05-19,0.9924445180837181,0.9924445180837181,0.0,0,False
2022-05-20,0.9924445180837181,0.9874893220869618,-0.4992919912867433,1,True
2022-05-21,0.9874893220869618,0.9874893220869618,0.0,0,False
2022-05-22,0.9874893220869618,0.9874893220869618,0.0,0,False
2022-05-23,0.9874893220869618,0.9872322378186953,-0.026034131460095367,1,True
2022-05-24,0.9872322378186953,0.9822117111642307,-0.5085456554333678,1,True
2022-05-25,0.9822117111642307,0.9821509652980627,-0.006184600069158996,1,True
2022-05-26,0.9821509652980627,0.9874756827873735,0.5421485777082014,1,True
2022-05-27,0.9874756827873735,0.9913403285551392,0.391366170846541,0,True
2022-05-28,0.9913403285551392,0.9913403285551392,0.0,0,False
2022-05-29,0.9913403285551392,0.9913403285551392,0.0,0,False
2022-05-30,0.9913403285551392,0.9913403285551392,0.0,0,False
2022-05-31,0.9913403285551392,0.9913403285551392,0.0,0,False
2022-06-01,0.9913403285551392,0.9913403285551392,0.0,0,False
2022-06-02,0.9913403285551392,0.9863878825444181,-0.4995707193652832,1,True
2022-06-03,0.9863878825444181,0.9863878825444181,0.0,0,False
2022-06-04,0.9863878825444181,0.9863878825444181,0.0,0,False
2022-06-05,0.9863878825444181,0.9863878825444181,0.0,0,False
2022-06-06,0.9863878825444181,0.9863878825444181,0.0,0,False
2022-06-07,0.9863878825444181,0.9874197119883932,0.10460686533511065,1,True
2022-06-08,0.9874197119883932,0.98765517095124,0.023845884378048687,1,True
2022-06-09,0.98765517095124,0.98765517095124,0.0,0,False
2022-06-10,0.98765517095124,0.9945241553404274,0.6954840708798926,1,True
2022-06-11,0.9945241553404274,0.9945241553404274,0.0,0,False
2022-06-12,0.9945241553404274,0.9955703853392891,0.1051990535618108,4,True
2022-06-13,0.9955703853392891,0.9955703853392891,0.0,0,False
2022-06-14,0.9955703853392891,0.9955703853392891,0.0,0,False
2022-06-15,0.9955703853392891,0.9955703853392891,0.0,0,False
2022-06-16,0.9955703853392891,1.0053201999776111,0.9793194717216513,2,True
2022-06-17,1.0053201999776111,1.0086319818587057,0.32942557815593965,0,True
2022-06-18,1.0086319818587057,0.9984238263472849,-1.0120793009764872,4,True
2022-06-19,0.9984238263472849,1.006300248689498,0.7888856550057444,0,True
2022-06-20,1.006300248689498,1.006300248689498,0.0,0,False
2022-06-21,1.006300248689498,1.006300248689498,0.0,0,False
2022-06-22,1.006300248689498,1.006300248689498,0.0,0,False
2022-06-23,1.006300248689498,1.006300248689498,0.0,0,False
2022-06-24,1.006300248689498,1.006300248689498,0.0,0,False
2022-06-25,1.006300248689498,1.006300248689498,0.0,0,False
2022-06-26,1.006300248689498,1.006300248689498,0.0,0,False
2022-06-27,1.006300248689498,1.006300248689498,0.0,0,False
2022-06-28,1.006300248689498,1.008022993852678,0.17119593932559685,1,True
2022-06-29,1.008022993852678,1.0156732531690573,0.758936984873726,0,True
2022-06-30,1.0156732531690573,1.0156732531690573,0.0,0,False
2022-07-01,1.0156732531690573,1.0156732531690573,0.0,0,False
2022-07-02,1.0156732531690573,1.0156732531690573,0.0,0,False
2022-07-03,1.0156732531690573,1.0156732531690573,0.0,0,False
2022-07-04,1.0156732531690573,1.0156732531690573,0.0,0,False
2022-07-05,1.0156732531690573,1.0156732531690573,0.0,0,False
2022-07-06,1.0156732531690573,1.0156732531690573,0.0,0,False
2022-07-07,1.0156732531690573,1.0156732531690573,0.0,0,False
2022-07-08,1.0156732531690573,1.0156732531690573,0.0,0,False
2022-07-09,1.0156732531690573,1.0156732531690573,0.0,0,False
2022-07-10,1.0156732531690573,1.0156732531690573,0.0,0,False
2022-07-11,1.0156732531690573,1.0156732531690573,0.0,0,False
2022-07-12,1.0156732531690573,1.0156732531690573,0.0,0,False
2022-07-13,1.0156732531690573,1.0281418291843858,1.2276168518196684,4,True
2022-07-14,1.0281418291843858,1.0458859951161106,1.7258480715448554,0,True
2022-07-15,1.0458859951161106,1.0458859951161106,0.0,0,False
2022-07-16,1.0458859951161106,1.0458859951161106,0.0,0,False
2022-07-17,1.0458859951161106,1.0458859951161106,0.0,0,False
2022-07-18,1.0458859951161106,1.0458859951161106,0.0,0,False
2022-07-19,1.0458859951161106,1.0458859951161106,0.0,0,False
2022-07-20,1.0458859951161106,1.0458859951161106,0.0,0,False
2022-07-21,1.0458859951161106,1.0431528459030022,-0.26132381787987713,3,True
2022-07-22,1.0431528459030022,1.0431528459030022,0.0,0,False
2022-07-23,1.0431528459030022,1.0431528459030022,0.0,0,False
2022-07-24,1.0431528459030022,1.0494699672852517,0.60557965278627,1,True
2022-07-25,1.0494699672852517,1.050637581398302,0.11125750611717944,1,True
2022-07-26,1.050637581398302,1.050637581398302,0.0,0,False
2022-07-27,1.050637581398302,1.050637581398302,0.0,0,False
2022-07-28,1.050637581398302,1.050637581398302,0.0,0,False
2022-07-29,1.050637581398302,1.050637581398302,0.0,0,False
2022-07-30,1.050637581398302,1.050637581398302,0.0,0,False
2022-07-31,1.050637581398302,1.050637581398302,0.0,0,False
2022-08-01,1.050637581398302,1.050637581398302,0.0,0,False
2022-08-02,1.050637581398302,1.050637581398302,0.0,0,False
2022-08-03,1.050637581398302,1.050637581398302,0.0,0,False
2022-08-04,1.050637581398302,1.050637581398302,0.0,0,False
2022-08-05,1.050637581398302,1.050637581398302,0.0,0,False
2022-08-06,1.050637581398302,1.050637581398302,0.0,0,False
2022-08-07,1.050637581398302,1.050637581398302,0.0,0,False
2022-08-08,1.050637581398302,1.050637581398302,0.0,0,False
2022-08-09,1.050637581398302,1.0528076159705229,0.20654454120447863,1,True
2022-08-10,1.0528076159705229,1.0528076159705229,0.0,0,False
2022-08-11,1.0528076159705229,1.0528076159705229,0.0,0,False
2022-08-12,1.0528076159705229,1.0531976052073138,0.0370427826390074,1,True
2022-08-13,1.0531976052073138,1.0531976052073138,0.0,0,False
2022-08-14,1.0531976052073138,1.0531976052073138,0.0,0,False
2022-08-15,1.0531976052073138,1.0531976052073138,0.0,0,False
2022-08-16,1.0531976052073138,1.0531976052073138,0.0,0,False
2022-08-17,1.0531976052073138,1.0531976052073138,0.0,0,False
2022-08-18,1.0531976052073138,1.0531976052073138,0.0,0,False
2022-08-19,1.0531976052073138,1.0326231105861796,-1.9535265290585468,8,True
2022-08-20,1.0326231105861796,1.0362251180237416,0.3488211139800246,0,True
2022-08-21,1.0362251180237416,1.0362251180237416,0.0,0,False
2022-08-22,1.0362251180237416,1.0362251180237416,0.0,0,False
2022-08-23,1.0362251180237416,1.0362251180237416,0.0,0,False
2022-08-24,1.0362251180237416,1.0362251180237416,0.0,0,False
2022-08-25,1.0362251180237416,1.0362251180237416,0.0,0,False
2022-08-26,1.0362251180237416,1.0362251180237416,0.0,0,False
2022-08-27,1.0362251180237416,1.0362251180237416,0.0,0,False
2022-08-28,1.0362251180237416,1.0362251180237416,0.0,0,False
2022-08-29,1.0362251180237416,1.0362251180237416,0.0,0,False
2022-08-30,1.0362251180237416,1.0362251180237416,0.0,0,False
2022-08-31,1.0362251180237416,1.0362251180237416,0.0,0,False
2022-09-01,1.0362251180237416,1.0362251180237416,0.0,0,False
2022-09-02,1.0362251180237416,1.0362251180237416,0.0,0,False
2022-09-03,1.0362251180237416,1.0362251180237416,0.0,0,False
2022-09-04,1.0362251180237416,1.0362251180237416,0.0,0,False
2022-09-05,1.0362251180237416,1.0362251180237416,0.0,0,False
2022-09-06,1.0362251180237416,1.0362251180237416,0.0,0,False
2022-09-07,1.0362251180237416,1.0281878915231077,-0.775625523917256,4,True
2022-09-08,1.0281878915231077,1.0281878915231077,0.0,0,False
2022-09-09,1.0281878915231077,1.0281878915231077,0.0,0,False
2022-09-10,1.0281878915231077,1.0281878915231077,0.0,0,False
2022-09-11,1.0281878915231077,1.0281878915231077,0.0,0,False
2022-09-12,1.0281878915231077,1.0281878915231077,0.0,0,False
2022-09-13,1.0281878915231077,1.0197987223540914,-0.8159179113254367,4,True
2022-09-14,1.0197987223540914,1.0150165559867832,-0.46893237483854877,0,True
2022-09-15,1.0150165559867832,1.020205415862157,0.5112093832133846,1,True
2022-09-16,1.020205415862157,1.020205415862157,0.0,0,False
2022-09-17,1.020205415862157,1.020205415862157,0.0,0,False
2022-09-18,1.020205415862157,1.020205415862157,0.0,0,False
2022-09-19,1.020205415862157,1.0205519609047107,0.03396816338803177,5,True
2022-09-20,1.0205519609047107,1.0205519609047107,0.0,0,False
2022-09-21,1.0205519609047107,1.0205519609047107,0.0,0,False
2022-09-22,1.0205519609047107,1.0205519609047107,0.0,0,False
2022-09-23,1.0205519609047107,1.0205519609047107,0.0,0,False
2022-09-24,1.0205519609047107,1.0205519609047107,0.0,0,False
2022-09-25,1.0205519609047107,1.0205519609047107,0.0,0,False
2022-09-26,1.0205519609047107,1.0205519609047107,0.0,0,False
2022-09-27,1.0205519609047107,1.0205519609047107,0.0,0,False
2022-09-28,1.0205519609047107,1.0205519609047107,0.0,0,False
2022-09-29,1.0205519609047107,1.0205519609047107,0.0,0,False
2022-09-30,1.0205519609047107,1.0205519609047107,0.0,0,False
2022-10-01,1.0205519609047107,1.0205519609047107,0.0,0,False
2022-10-02,1.0205519609047107,1.0205519609047107,0.0,0,False
2022-10-03,1.0205519609047107,1.0205519609047107,0.0,0,False
2022-10-04,1.0205519609047107,1.0205519609047107,0.0,0,False
2022-10-05,1.0205519609047107,1.0205519609047107,0.0,0,False
2022-10-06,1.0205519609047107,1.0205519609047107,0.0,0,False
2022-10-07,1.0205519609047107,1.0205519609047107,0.0,0,False
2022-10-08,1.0205519609047107,1.0205519609047107,0.0,0,False
2022-10-09,1.0205519609047107,1.0205519609047107,0.0,0,False
2022-10-10,1.0205519609047107,1.0205519609047107,0.0,0,False
2022-10-11,1.0205519609047107,1.047427532502653,2.6334349085094466,4,True
2022-10-12,1.047427532502653,1.047427532502653,0.0,0,False
2022-10-13,1.047427532502653,1.047427532502653,0.0,0,False
2022-10-14,1.047427532502653,1.047427532502653,0.0,0,False
2022-10-15,1.047427532502653,1.047427532502653,0.0,0,False
2022-10-16,1.047427532502653,1.047427532502653,0.0,0,False
2022-10-17,1.047427532502653,1.047427532502653,0.0,0,False
2022-10-18,1.047427532502653,1.047427532502653,0.0,0,False
2022-10-19,1.047427532502653,1.047427532502653,0.0,0,False
2022-10-20,1.047427532502653,1.0518270876404396,0.42003432230530713,1,True
2022-10-21,1.0518270876404396,1.0518270876404396,0.0,0,False
2022-10-22,1.0518270876404396,1.0518270876404396,0.0,0,False
2022-10-23,1.0518270876404396,1.0518270876404396,0.0,0,False
2022-10-24,1.0518270876404396,1.0518270876404396,0.0,0,False
2022-10-25,1.0518270876404396,1.0518270876404396,0.0,0,False
2022-10-26,1.0518270876404396,1.0518270876404396,0.0,0,False
2022-10-27,1.0518270876404396,1.0518270876404396,0.0,0,False
2022-10-28,1.0518270876404396,1.0518270876404396,0.0,0,False
2022-10-29,1.0518270876404396,1.0518270876404396,0.0,0,False
2022-10-30,1.0518270876404396,1.0518270876404396,0.0,0,False
2022-10-31,1.0518270876404396,1.0518270876404396,0.0,0,False
2022-11-01,1.0518270876404396,1.0518270876404396,0.0,0,False
2022-11-02,1.0518270876404396,1.0615986350897582,0.9290070168509246,1,True
2022-11-03,1.0615986350897582,1.0615986350897582,0.0,0,False
2022-11-04,1.0615986350897582,1.0663262549075576,0.44533024643533814,2,True
2022-11-05,1.0663262549075576,1.0663262549075576,0.0,0,False
2022-11-06,1.0663262549075576,1.0663262549075576,0.0,0,False
2022-11-07,1.0663262549075576,1.0667561436190187,0.04031493264680108,1,True
2022-11-08,1.0667561436190187,1.0588281656914191,-0.7431855888547889,3,True
2022-11-09,1.0588281656914191,1.0555985501034362,-0.3050179143916143,4,True
2022-11-10,1.0555985501034362,1.0646133169910834,0.8539957625712802,1,True
2022-11-11,1.0646133169910834,1.0711364962782575,0.6127275681287347,5,True
2022-11-12,1.0711364962782575,1.0816957082865208,0.9857951852963787,1,True
2022-11-13,1.0816957082865208,1.0751791043916108,-0.6024433530602447,1,True
2022-11-14,1.0751791043916108,1.080575289524122,0.5018870912269824,2,True
2022-11-15,1.080575289524122,1.080575289524122,0.0,0,False
2022-11-16,1.080575289524122,1.080575289524122,0.0,0,False
2022-11-17,1.080575289524122,1.080575289524122,0.0,0,False
2022-11-18,1.080575289524122,1.080575289524122,0.0,0,False
2022-11-19,1.080575289524122,1.0809270043109085,0.03254884598937746,2,True
2022-11-20,1.0809270043109085,1.0761541615181527,-0.4415508886095876,1,True
2022-11-21,1.0761541615181527,1.069872550697522,-0.5837091975529951,1,True
2022-11-22,1.069872550697522,1.069872550697522,0.0,0,False
2022-11-23,1.069872550697522,1.069872550697522,0.0,0,False
2022-11-24,1.069872550697522,1.069872550697522,0.0,0,False
2022-11-25,1.069872550697522,1.069872550697522,0.0,0,False
2022-11-26,1.069872550697522,1.069872550697522,0.0,0,False
2022-11-27,1.069872550697522,1.069872550697522,0.0,0,False
2022-11-28,1.069872550697522,1.0662415429457934,-0.339386943740283,2,True
2022-11-29,1.0662415429457934,1.0662415429457934,0.0,0,False
2022-11-30,1.0662415429457934,1.0662415429457934,0.0,0,False
2022-12-01,1.0662415429457934,1.0661721530227373,-0.006507899032370812,1,True
2022-12-02,1.0661721530227373,1.0661721530227373,0.0,0,False
2022-12-03,1.0661721530227373,1.0661721530227373,0.0,0,False
2022-12-04,1.0661721530227373,1.0661721530227373,0.0,0,False
2022-12-05,1.0661721530227373,1.0661721530227373,0.0,0,False
2022-12-06,1.0661721530227373,1.0661721530227373,0.0,0,False
2022-12-07,1.0661721530227373,1.0661721530227373,0.0,0,False
2022-12-08,1.0661721530227373,1.0608513009687195,-0.4990612481232448,1,True
2022-12-09,1.0608513009687195,1.0608513009687195,0.0,0,False
2022-12-10,1.0608513009687195,1.0608513009687195,0.0,0,False
2022-12-11,1.0608513009687195,1.0608513009687195,0.0,0,False
2022-12-12,1.0608513009687195,1.0608513009687195,0.0,0,False
2022-12-13,1.0608513009687195,1.0608513009687195,0.0,0,False
2022-12-14,1.0608513009687195,1.0608513009687195,0.0,0,False
2022-12-15,1.0608513009687195,1.0608513009687195,0.0,0,False
2022-12-16,1.0608513009687195,1.0608513009687195,0.0,0,False
2022-12-17,1.0608513009687195,1.0776160655547233,1.5803123935178354,4,True
2022-12-18,1.0776160655547233,1.0776160655547233,0.0,0,False
2022-12-19,1.0776160655547233,1.0776160655547233,0.0,0,False
2022-12-20,1.0776160655547233,1.0776160655547233,0.0,0,False
2022-12-21,1.0776160655547233,1.0776160655547233,0.0,0,False
2022-12-22,1.0776160655547233,1.0776160655547233,0.0,0,False
2022-12-23,1.0776160655547233,1.0776160655547233,0.0,0,False
2022-12-24,1.0776160655547233,1.0776160655547233,0.0,0,False
2022-12-25,1.0776160655547233,1.0776160655547233,0.0,0,False
2022-12-26,1.0776160655547233,1.0776160655547233,0.0,0,False
2022-12-27,1.0776160655547233,1.0776160655547233,0.0,0,False
2022-12-28,1.0776160655547233,1.0805234659402538,0.26979927995356423,1,True
2022-12-29,1.0805234659402538,1.079432866216239,-0.10093253486780362,0,True
2022-12-30,1.079432866216239,1.079432866216239,0.0,0,False
2022-12-31,1.079432866216239,1.079432866216239,0.0,0,False
2023-01-01,1.079432866216239,1.079432866216239,0.0,0,False
2023-01-02,1.079432866216239,1.0798276441285697,0.03657271560708608,1,True
2023-01-03,1.0798276441285697,1.0799241056597741,0.00893304887394919,0,True
2023-01-04,1.0799241056597741,1.0799241056597741,0.0,0,False
2023-01-05,1.0799241056597741,1.0799241056597741,0.0,0,False
2023-01-06,1.0799241056597741,1.0799241056597741,0.0,0,False
2023-01-07,1.0799241056597741,1.0799241056597741,0.0,0,False
2023-01-08,1.0799241056597741,1.0799241056597741,0.0,0,False
2023-01-09,1.0799241056597741,1.0799241056597741,0.0,0,False
2023-01-10,1.0799241056597741,1.0777413191637712,-0.20212406451186604,2,True
2023-01-11,1.0777413191637712,1.0784956161047419,0.069988681658395,0,True
2023-01-12,1.0784956161047419,1.0784956161047419,0.0,0,False
2023-01-13,1.0784956161047419,1.0784956161047419,0.0,0,False
2023-01-14,1.0784956161047419,1.0784956161047419,0.0,0,False
2023-01-15,1.0784956161047419,1.0802595932026156,0.16355904201490468,1,True
2023-01-16,1.0802595932026156,1.0802595932026156,0.0,0,False
2023-01-17,1.0802595932026156,1.0802595932026156,0.0,0,False
2023-01-18,1.0802595932026156,1.0802595932026156,0.0,0,False
2023-01-19,1.0802595932026156,1.074864654681449,-0.49941130401557343,1,True
2023-01-20,1.074864654681449,1.074864654681449,0.0,0,False
2023-01-21,1.074864654681449,1.076263717438315,0.1301617604386296,1,True
2023-01-22,1.076263717438315,1.0755210631535472,-0.0690030029568689,0,True
2023-01-23,1.0755210631535472,1.0755210631535472,0.0,0,False
2023-01-24,1.0755210631535472,1.0820892431390543,0.6106974759051642,1,True
2023-01-25,1.0820892431390543,1.0892918162184753,0.6656172885081801,5,True
2023-01-26,1.0892918162184753,1.0892918162184753,0.0,0,False
2023-01-27,1.0892918162184753,1.0892918162184753,0.0,0,False
2023-01-28,1.0892918162184753,1.0892918162184753,0.0,0,False
2023-01-29,1.0892918162184753,1.0892918162184753,0.0,0,False
2023-01-30,1.0892918162184753,1.0894829914400646,0.0175504138324456,2,True
2023-01-31,1.0894829914400646,1.0857942893713213,-0.33857362599737373,2,True
2023-02-01,1.0857942893713213,1.0857942893713213,0.0,0,False
2023-02-02,1.0857942893713213,1.0857942893713213,0.0,0,False
2023-02-03,1.0857942893713213,1.0857942893713213,0.0,0,False
2023-02-04,1.0857942893713213,1.0857942893713213,0.0,0,False
2023-02-05,1.0857942893713213,1.0891594078028635,0.3099222812721347,4,True
2023-02-06,1.0891594078028635,1.1051928260471258,1.4720910575070079,1,True
2023-02-07,1.1051928260471258,1.104691511634121,-0.04535990473244489,0,True
2023-02-08,1.104691511634121,1.104691511634121,0.0,0,False
2023-02-09,1.104691511634121,1.104691511634121,0.0,0,False
2023-02-10,1.104691511634121,1.104691511634121,0.0,0,False
2023-02-11,1.104691511634121,1.104691511634121,0.0,0,False
2023-02-12,1.104691511634121,1.104691511634121,0.0,0,False
2023-02-13,1.104691511634121,1.104691511634121,0.0,0,False
2023-02-14,1.104691511634121,1.104691511634121,0.0,0,False
2023-02-15,1.104691511634121,1.104691511634121,0.0,0,False
2023-02-16,1.104691511634121,1.104691511634121,0.0,0,False
2023-02-17,1.104691511634121,1.104691511634121,0.0,0,False
2023-02-18,1.104691511634121,1.104691511634121,0.0,0,False
2023-02-19,1.104691511634121,1.104691511634121,0.0,0,False
2023-02-20,1.104691511634121,1.104691511634121,0.0,0,False
2023-02-21,1.104691511634121,1.103317681952611,-0.1243631970592185,2,True
2023-02-22,1.103317681952611,1.103710473493766,0.03560094681522852,0,True
2023-02-23,1.103710473493766,1.1139367063696675,0.9265321949451621,1,True
2023-02-24,1.1139367063696675,1.1139367063696675,0.0,0,False
2023-02-25,1.1139367063696675,1.1139367063696675,0.0,0,False
2023-02-26,1.1139367063696675,1.1139367063696675,0.0,0,False
2023-02-27,1.1139367063696675,1.1083729856074729,-0.49946471198770714,1,True
2023-02-28,1.1083729856074729,1.1083729856074729,0.0,0,False
2023-03-01,1.1083729856074729,1.1083729856074729,0.0,0,False
2023-03-02,1.1083729856074729,1.1083729856074729,0.0,0,False
2023-03-03,1.1083729856074729,1.1031209443240826,-0.4738514337311983,5,True
2023-03-04,1.1031209443240826,1.1031209443240826,0.0,0,False
2023-03-05,1.1031209443240826,1.1031209443240826,0.0,0,False
2023-03-06,1.1031209443240826,1.1031209443240826,0.0,0,False
2023-03-07,1.1031209443240826,1.1031209443240826,0.0,0,False
2023-03-08,1.1031209443240826,1.1031209443240826,0.0,0,False
2023-03-09,1.1031209443240826,1.1031209443240826,0.0,0,False
2023-03-10,1.1031209443240826,1.1031209443240826,0.0,0,False
2023-03-11,1.1031209443240826,1.1090135441977818,0.5341753235688751,1,True
2023-03-12,1.1090135441977818,1.1056866822840818,-0.2999838848772973,0,True
2023-03-13,1.1056866822840818,1.1056866822840818,0.0,0,False
2023-03-14,1.1056866822840818,1.1056866822840818,0.0,0,False
2023-03-15,1.1056866822840818,1.1056866822840818,0.0,0,False
2023-03-16,1.1056866822840818,1.1084985832353813,0.2543126363329984,1,True
2023-03-17,1.1084985832353813,1.1029630390621725,-0.4993731392107126,1,True
2023-03-18,1.1029630390621725,1.1029630390621725,0.0,0,False
2023-03-19,1.1029630390621725,1.1029630390621725,0.0,0,False
2023-03-20,1.1029630390621725,1.1029630390621725,0.0,0,False
2023-03-21,1.1029630390621725,1.0974561506743208,-0.49928131703617096,1,True
2023-03-22,1.0974561506743208,1.0974561506743208,0.0,0,False
2023-03-23,1.0974561506743208,1.1082448129942823,0.9830609007323465,3,True
2023-03-24,1.1082448129942823,1.109592145056779,0.1215735049421296,0,True
2023-03-25,1.109592145056779,1.1040493562861893,-0.4995338868684973,1,True
2023-03-26,1.1040493562861893,1.1040493562861893,0.0,0,False
2023-03-27,1.1040493562861893,1.1040493562861893,0.0,0,False
2023-03-28,1.1040493562861893,1.1040493562861893,0.0,0,False
2023-03-29,1.1040493562861893,1.1040493562861893,0.0,0,False
2023-03-30,1.1040493562861893,1.1040493562861893,0.0,0,False
2023-03-31,1.1040493562861893,1.1040493562861893,0.0,0,False
2023-04-01,1.1040493562861893,1.1040493562861893,0.0,0,False
2023-04-02,1.1040493562861893,1.1040493562861893,0.0,0,False
2023-04-03,1.1040493562861893,1.1040493562861893,0.0,0,False
2023-04-04,1.1040493562861893,1.1040493562861893,0.0,0,False
2023-04-05,1.1040493562861893,1.1040493562861893,0.0,0,False
2023-04-06,1.1040493562861893,1.0985306117223312,-0.49986393565066845,1,True
2023-04-07,1.0985306117223312,1.0943847557336048,-0.37740013291266417,1,True
2023-04-08,1.0943847557336048,1.0943847557336048,0.0,0,False
2023-04-09,1.0943847557336048,1.0943847557336048,0.0,0,False
2023-04-10,1.0943847557336048,1.0943847557336048,0.0,0,False
2023-04-11,1.0943847557336048,1.0943847557336048,0.0,0,False
2023-04-12,1.0943847557336048,1.0943847557336048,0.0,0,False
2023-04-13,1.0943847557336048,1.0943847557336048,0.0,0,False
2023-04-14,1.0943847557336048,1.0943847557336048,0.0,0,False
2023-04-15,1.0943847557336048,1.0943847557336048,0.0,0,False
2023-04-16,1.0943847557336048,1.0943847557336048,0.0,0,False
2023-04-17,1.0943847557336048,1.0943847557336048,0.0,0,False
2023-04-18,1.0943847557336048,1.0943847557336048,0.0,0,False
2023-04-19,1.0943847557336048,1.0834664653243544,-0.9976647017466478,2,True
2023-04-20,1.0834664653243544,1.0834664653243544,0.0,0,False
2023-04-21,1.0834664653243544,1.0834664653243544,0.0,0,False
2023-04-22,1.0834664653243544,1.0834664653243544,0.0,0,False
2023-04-23,1.0834664653243544,1.0834664653243544,0.0,0,False
2023-04-24,1.0834664653243544,1.0834664653243544,0.0,0,False
2023-04-25,1.0834664653243544,1.0834664653243544,0.0,0,False
2023-04-26,1.0834664653243544,1.0834664653243544,0.0,0,False
2023-04-27,1.0834664653243544,1.0834664653243544,0.0,0,False
2023-04-28,1.0834664653243544,1.0834664653243544,0.0,0,False
2023-04-29,1.0834664653243544,1.0834664653243544,0.0,0,False
2023-04-30,1.0834664653243544,1.0834664653243544,0.0,0,False
2023-05-01,1.0834664653243544,1.0834664653243544,0.0,0,False
2023-05-02,1.0834664653243544,1.0834664653243544,0.0,0,False
2023-05-03,1.0834664653243544,1.0834664653243544,0.0,0,False
2023-05-04,1.0834664653243544,1.0834664653243544,0.0,0,False
2023-05-05,1.0834664653243544,1.0834664653243544,0.0,0,False
2023-05-06,1.0834664653243544,1.0834664653243544,0.0,0,False
2023-05-07,1.0834664653243544,1.0834664653243544,0.0,0,False
2023-05-08,1.0834664653243544,1.0818265247403267,-0.15136052997605232,5,True
2023-05-09,1.0818265247403267,1.0796416715198662,-0.20195966455758274,2,True
2023-05-10,1.0796416715198662,1.0812639765604697,0.15026328488410012,1,True
2023-05-11,1.0812639765604697,1.0828658500221924,0.1481482317406302,0,True
2023-05-12,1.0828658500221924,1.0828658500221924,0.0,0,False
2023-05-13,1.0828658500221924,1.0828658500221924,0.0,0,False
2023-05-14,1.0828658500221924,1.0828658500221924,0.0,0,False
2023-05-15,1.0828658500221924,1.0828658500221924,0.0,0,False
2023-05-16,1.0828658500221924,1.0828658500221924,0.0,0,False
2023-05-17,1.0828658500221924,1.0828658500221924,0.0,0,False
2023-05-18,1.0828658500221924,1.0828658500221924,0.0,0,False
2023-05-19,1.0828658500221924,1.0828658500221924,0.0,0,False
2023-05-20,1.0828658500221924,1.0828658500221924,0.0,0,False
2023-05-21,1.0828658500221924,1.0828658500221924,0.0,0,False
2023-05-22,1.0828658500221924,1.0828658500221924,0.0,0,False
2023-05-23,1.0828658500221924,1.0828658500221924,0.0,0,False
2023-05-24,1.0828658500221924,1.0828658500221924,0.0,0,False
2023-05-25,1.0828658500221924,1.0828658500221924,0.0,0,False
2023-05-26,1.0828658500221924,1.0850097566903465,0.19798451194210642,1,True
2023-05-27,1.0850097566903465,1.088732653695525,0.34312106248102214,0,True
2023-05-28,1.088732653695525,1.088732653695525,0.0,0,False
2023-05-29,1.088732653695525,1.088732653695525,0.0,0,False
2023-05-30,1.088732653695525,1.088732653695525,0.0,0,False
2023-05-31,1.088732653695525,1.088732653695525,0.0,0,False
2023-06-01,1.088732653695525,1.088732653695525,0.0,0,False
2023-06-02,1.088732653695525,1.0990310605532803,0.9459077784430336,1,True
2023-06-03,1.0990310605532803,1.0990310605532803,0.0,0,False
2023-06-04,1.0990310605532803,1.0990310605532803,0.0,0,False
2023-06-05,1.0990310605532803,1.0990310605532803,0.0,0,False
2023-06-06,1.0990310605532803,1.0913065678447629,-0.702845714353939,4,True
2023-06-07,1.0913065678447629,1.0913065678447629,0.0,0,False
2023-06-08,1.0913065678447629,1.0910085957068152,-0.027304164267627495,1,True
2023-06-09,1.0910085957068152,1.0910085957068152,0.0,0,False
2023-06-10,1.0910085957068152,1.108975943681246,1.6468566833601095,5,True
2023-06-11,1.108975943681246,1.1081625188097683,-0.07334918995425266,0,True
2023-06-12,1.1081625188097683,1.1081625188097683,0.0,0,False
2023-06-13,1.1081625188097683,1.1081625188097683,0.0,0,False
2023-06-14,1.1081625188097683,1.1081625188097683,0.0,0,False
2023-06-15,1.1081625188097683,1.1081625188097683,0.0,0,False
2023-06-16,1.1081625188097683,1.1081625188097683,0.0,0,False
2023-06-17,1.1081625188097683,1.1081625188097683,0.0,0,False
2023-06-18,1.1081625188097683,1.1081625188097683,0.0,0,False
2023-06-19,1.1081625188097683,1.1140282616237236,0.5293215313089128,1,True
2023-06-20,1.1140282616237236,1.1149483784351089,0.08259366867804374,0,True
2023-06-21,1.1149483784351089,1.1149483784351089,0.0,0,False
2023-06-22,1.1149483784351089,1.1093739951189499,-0.4999678392270446,1,True
2023-06-23,1.1093739951189499,1.1093739951189499,0.0,0,False
2023-06-24,1.1093739951189499,1.1093739951189499,0.0,0,False
2023-06-25,1.1093739951189499,1.1093739951189499,0.0,0,False
2023-06-26,1.1093739951189499,1.1093739951189499,0.0,0,False
2023-06-27,1.1093739951189499,1.1093739951189499,0.0,0,False
2023-06-28,1.1093739951189499,1.1093739951189499,0.0,0,False
2023-06-29,1.1093739951189499,1.1093739951189499,0.0,0,False
2023-06-30,1.1093739951189499,1.087248085539763,-1.994449994008951,4,True
2023-07-01,1.087248085539763,1.0818184516411207,-0.4993923623187513,1,True
2023-07-02,1.0818184516411207,1.0818184516411207,0.0,0,False
2023-07-03,1.0818184516411207,1.0818184516411207,0.0,0,False
2023-07-04,1.0818184516411207,1.0818184516411207,0.0,0,False
2023-07-05,1.0818184516411207,1.0818184516411207,0.0,0,False
2023-07-06,1.0818184516411207,1.0818184516411207,0.0,0,False
2023-07-07,1.0818184516411207,1.0818184516411207,0.0,0,False
2023-07-08,1.0818184516411207,1.0818184516411207,0.0,0,False
2023-07-09,1.0818184516411207,1.0818184516411207,0.0,0,False
2023-07-10,1.0818184516411207,1.0818184516411207,0.0,0,False
2023-07-11,1.0818184516411207,1.0818184516411207,0.0,0,False
2023-07-12,1.0818184516411207,1.0818184516411207,0.0,0,False
2023-07-13,1.0818184516411207,1.0818184516411207,0.0,0,False
2023-07-14,1.0818184516411207,1.0818184516411207,0.0,0,False
2023-07-15,1.0818184516411207,1.0818184516411207,0.0,0,False
2023-07-16,1.0818184516411207,1.0818184516411207,0.0,0,False
2023-07-17,1.0818184516411207,1.0818184516411207,0.0,0,False
2023-07-18,1.0818184516411207,1.0818184516411207,0.0,0,False
2023-07-19,1.0818184516411207,1.0818184516411207,0.0,0,False
2023-07-20,1.0818184516411207,1.0818184516411207,0.0,0,False
2023-07-21,1.0818184516411207,1.0818184516411207,0.0,0,False
2023-07-22,1.0818184516411207,1.0818184516411207,0.0,0,False
2023-07-23,1.0818184516411207,1.0818184516411207,0.0,0,False
2023-07-24,1.0818184516411207,1.081780155309007,-0.003539996203205664,1,True
2023-07-25,1.081780155309007,1.0821559840317048,0.034741691355066884,0,True
2023-07-26,1.0821559840317048,1.0821559840317048,0.0,0,False
2023-07-27,1.0821559840317048,1.0821559840317048,0.0,0,False
2023-07-28,1.0821559840317048,1.0821559840317048,0.0,0,False
2023-07-29,1.0821559840317048,1.0821559840317048,0.0,0,False
2023-07-30,1.0821559840317048,1.0821559840317048,0.0,0,False
2023-07-31,1.0821559840317048,1.0821559840317048,0.0,0,False
2023-08-01,1.0821559840317048,1.0821559840317048,0.0,0,False
2023-08-02,1.0821559840317048,1.0821559840317048,0.0,0,False
2023-08-03,1.0821559840317048,1.0821559840317048,0.0,0,False
2023-08-04,1.0821559840317048,1.0821559840317048,0.0,0,False
2023-08-05,1.0821559840317048,1.0821559840317048,0.0,0,False
2023-08-06,1.0821559840317048,1.0821559840317048,0.0,0,False
2023-08-07,1.0821559840317048,1.0821559840317048,0.0,0,False
2023-08-08,1.0821559840317048,1.0821559840317048,0.0,0,False
2023-08-09,1.0821559840317048,1.0821559840317048,0.0,0,False
2023-08-10,1.0821559840317048,1.0821559840317048,0.0,0,False
2023-08-11,1.0821559840317048,1.0821559840317048,0.0,0,False
2023-08-12,1.0821559840317048,1.0821559840317048,0.0,0,False
2023-08-13,1.0821559840317048,1.0821559840317048,0.0,0,False
2023-08-14,1.0821559840317048,1.0821559840317048,0.0,0,False
2023-08-15,1.0821559840317048,1.0821559840317048,0.0,0,False
2023-08-16,1.0821559840317048,1.090947059363452,0.8123667439323246,4,True
2023-08-17,1.090947059363452,1.090947059363452,0.0,0,False
2023-08-18,1.090947059363452,1.1314315906283712,3.7109528750681298,4,True
2023-08-19,1.1314315906283712,1.1314315906283712,0.0,0,False
2023-08-20,1.1314315906283712,1.1314315906283712,0.0,0,False
2023-08-21,1.1314315906283712,1.1314315906283712,0.0,0,False
2023-08-22,1.1314315906283712,1.1314315906283712,0.0,0,False
2023-08-23,1.1314315906283712,1.1314315906283712,0.0,0,False
2023-08-24,1.1314315906283712,1.1314315906283712,0.0,0,False
2023-08-25,1.1314315906283712,1.1145404218122574,-1.492902350970493,3,True
2023-08-26,1.1145404218122574,1.1145404218122574,0.0,0,False
2023-08-27,1.1145404218122574,1.1145404218122574,0.0,0,False
2023-08-28,1.1145404218122574,1.1145404218122574,0.0,0,False
2023-08-29,1.1145404218122574,1.1145404218122574,0.0,0,False
2023-08-30,1.1145404218122574,1.1145404218122574,0.0,0,False
2023-08-31,1.1145404218122574,1.1145404218122574,0.0,0,False
2023-09-01,1.1145404218122574,1.1145404218122574,0.0,0,False
2023-09-02,1.1145404218122574,1.1166882160539942,0.19270671567428455,1,True
2023-09-03,1.1166882160539942,1.117340210792128,0.05838646175007067,0,True
2023-09-04,1.117340210792128,1.117340210792128,0.0,0,False
2023-09-05,1.117340210792128,1.117340210792128,0.0,0,False
2023-09-06,1.117340210792128,1.117340210792128,0.0,0,False
2023-09-07,1.117340210792128,1.117340210792128,0.0,0,False
2023-09-08,1.117340210792128,1.117340210792128,0.0,0,False
2023-09-09,1.117340210792128,1.117340210792128,0.0,0,False
2023-09-10,1.117340210792128,1.1157947527042316,-0.13831580327721138,2,True
2023-09-11,1.1157947527042316,1.1128435892323032,-0.26448981452690257,1,True
2023-09-12,1.1128435892323032,1.1128435892323032,0.0,0,False
2023-09-13,1.1128435892323032,1.1233089329597723,0.9404146125053137,1,True
2023-09-14,1.1233089329597723,1.1233089329597723,0.0,0,False
2023-09-15,1.1233089329597723,1.1233089329597723,0.0,0,False
2023-09-16,1.1233089329597723,1.1233089329597723,0.0,0,False
2023-09-17,1.1233089329597723,1.1233089329597723,0.0,0,False
2023-09-18,1.1233089329597723,1.1176984925243678,-0.4994565849860799,1,True
2023-09-19,1.1176984925243678,1.1176984925243678,0.0,0,False
2023-09-20,1.1176984925243678,1.1204896633777266,0.24972484726670796,1,True
2023-09-21,1.1204896633777266,1.1238773430425146,0.3023392161044969,0,True
2023-09-22,1.1238773430425146,1.1238773430425146,0.0,0,False
2023-09-23,1.1238773430425146,1.1238773430425146,0.0,0,False
2023-09-24,1.1238773430425146,1.1238773430425146,0.0,0,False
2023-09-25,1.1238773430425146,1.1238773430425146,0.0,0,False
2023-09-26,1.1238773430425146,1.124952693597353,0.09568219890681018,1,True
2023-09-27,1.124952693597353,1.1234597256756162,-0.1327138403449335,0,True
2023-09-28,1.1234597256756162,1.1234597256756162,0.0,0,False
2023-09-29,1.1234597256756162,1.1234597256756162,0.0,0,False
2023-09-30,1.1234597256756162,1.1234597256756162,0.0,0,False
2023-10-01,1.1234597256756162,1.1234597256756162,0.0,0,False
2023-10-02,1.1234597256756162,1.1234597256756162,0.0,0,False
2023-10-03,1.1234597256756162,1.1238922399555007,0.03849842321890229,1,True
2023-10-04,1.1238922399555007,1.1178439807242728,-0.5381529488509784,0,True
2023-10-05,1.1178439807242728,1.1178439807242728,0.0,0,False
2023-10-06,1.1178439807242728,1.1178439807242728,0.0,0,False
2023-10-07,1.1178439807242728,1.1178439807242728,0.0,0,False
2023-10-08,1.1178439807242728,1.1178439807242728,0.0,0,False
2023-10-09,1.1178439807242728,1.1178439807242728,0.0,0,False
2023-10-10,1.1178439807242728,1.1178439807242728,0.0,0,False
2023-10-11,1.1178439807242728,1.1178439807242728,0.0,0,False
2023-10-12,1.1178439807242728,1.1178439807242728,0.0,0,False
2023-10-13,1.1178439807242728,1.1178439807242728,0.0,0,False
2023-10-14,1.1178439807242728,1.1178439807242728,0.0,0,False
2023-10-15,1.1178439807242728,1.1178957094666158,0.004627545814517298,1,True
2023-10-16,1.1178957094666158,1.1188185942669144,0.08255553648550684,1,True
2023-10-17,1.1188185942669144,1.1126940127453913,-0.5474150637920117,1,True
2023-10-18,1.1126940127453913,1.1126940127453913,0.0,0,False
2023-10-19,1.1126940127453913,1.1016071742432367,-0.9963959880398332,2,True
2023-10-20,1.1016071742432367,1.1016071742432367,0.0,0,False
2023-10-21,1.1016071742432367,1.1026966142925956,0.09889551147006514,1,True
2023-10-22,1.1026966142925956,1.1026966142925956,0.0,0,False
2023-10-23,1.1026966142925956,1.1026966142925956,0.0,0,False
2023-10-24,1.1026966142925956,1.1026966142925956,0.0,0,False
2023-10-25,1.1026966142925956,1.1026966142925956,0.0,0,False
2023-10-26,1.1026966142925956,1.1137634261539144,1.0036134797075213,2,True
2023-10-27,1.1137634261539144,1.1148483813313141,0.09741343196609797,1,True
2023-10-28,1.1148483813313141,1.1162953957921358,0.1297947312883574,0,True
2023-10-29,1.1162953957921358,1.1162953957921358,0.0,0,False
2023-10-30,1.1162953957921358,1.1162953957921358,0.0,0,False
2023-10-31,1.1162953957921358,1.1162953957921358,0.0,0,False
2023-11-01,1.1162953957921358,1.1162953957921358,0.0,0,False
2023-11-02,1.1162953957921358,1.1162953957921358,0.0,0,False
2023-11-03,1.1162953957921358,1.1162953957921358,0.0,0,False
2023-11-04,1.1162953957921358,1.1162953957921358,0.0,0,False
2023-11-05,1.1162953957921358,1.1162953957921358,0.0,0,False
2023-11-06,1.1162953957921358,1.1162953957921358,0.0,0,False
2023-11-07,1.1162953957921358,1.1107185290176036,-0.4995870085601095,1,True
2023-11-08,1.1107185290176036,1.1107185290176036,0.0,0,False
2023-11-09,1.1107185290176036,1.1100316733966626,-0.06183885502913933,3,True
2023-11-10,1.1100316733966626,1.1247440598158196,1.3254023981259522,4,True
2023-11-11,1.1247440598158196,1.1247440598158196,0.0,0,False
2023-11-12,1.1247440598158196,1.1247440598158196,0.0,0,False
2023-11-13,1.1247440598158196,1.1247440598158196,0.0,0,False
2023-11-14,1.1247440598158196,1.1247440598158196,0.0,0,False
2023-11-15,1.1247440598158196,1.1247440598158196,0.0,0,False
2023-11-16,1.1247440598158196,1.1247440598158196,0.0,0,False
2023-11-17,1.1247440598158196,1.1247440598158196,0.0,0,False
2023-11-18,1.1247440598158196,1.1247440598158196,0.0,0,False
2023-11-19,1.1247440598158196,1.1247440598158196,0.0,0,False
2023-11-20,1.1247440598158196,1.126691820468717,0.17317367768241443,1,True
2023-11-21,1.126691820468717,1.1226855167423908,-0.3555811494805772,0,True
2023-11-22,1.1226855167423908,1.1210133718700053,-0.1489415199046551,1,True
2023-11-23,1.1210133718700053,1.1210133718700053,0.0,0,False
2023-11-24,1.1210133718700053,1.1210133718700053,0.0,0,False
2023-11-25,1.1210133718700053,1.13154874498099,0.9398079786872016,1,True
2023-11-26,1.13154874498099,1.13154874498099,0.0,0,False
2023-11-27,1.13154874498099,1.1258982539593854,-0.4993590463219122,1,True
2023-11-28,1.1258982539593854,1.1258982539593854,0.0,0,False
2023-11-29,1.1258982539593854,1.1202746142515512,-0.4994802761313366,1,True
2023-11-30,1.1202746142515512,1.1202746142515512,0.0,0,False
2023-12-01,1.1202746142515512,1.1202746142515512,0.0,0,False
2023-12-02,1.1202746142515512,1.1202746142515512,0.0,0,False
2023-12-03,1.1202746142515512,1.1211871596578367,0.08145729579842609,1,True
2023-12-04,1.1211871596578367,1.1317770388640653,0.9445237679550633,4,True
2023-12-05,1.1317770388640653,1.1380230299832867,0.5518746983496303,0,True
2023-12-06,1.1380230299832867,1.1380230299832867,0.0,0,False
2023-12-07,1.1380230299832867,1.1323388944300645,-0.49947456276923097,1,True
2023-12-08,1.1323388944300645,1.1323388944300645,0.0,0,False
2023-12-09,1.1323388944300645,1.1323388944300645,0.0,0,False
2023-12-10,1.1323388944300645,1.1323388944300645,0.0,0,False
2023-12-11,1.1323388944300645,1.1499070355985277,1.5514914532107182,4,True
2023-12-12,1.1499070355985277,1.1499070355985277,0.0,0,False
2023-12-13,1.1499070355985277,1.1492273205135397,-0.059110437969811525,1,True
2023-12-14,1.1492273205135397,1.1492273205135397,0.0,0,False
2023-12-15,1.1492273205135397,1.1492273205135397,0.0,0,False
2023-12-16,1.1492273205135397,1.1492273205135397,0.0,0,False
2023-12-17,1.1492273205135397,1.1492273205135397,0.0,0,False
2023-12-18,1.1492273205135397,1.1533914511449026,0.362341771469743,1,True
2023-12-19,1.1533914511449026,1.1504868862914974,-0.2518281933269084,0,True
2023-12-20,1.1504868862914974,1.1504868862914974,0.0,0,False
2023-12-21,1.1504868862914974,1.1504868862914974,0.0,0,False
2023-12-22,1.1504868862914974,1.1504868862914974,0.0,0,False
2023-12-23,1.1504868862914974,1.1504868862914974,0.0,0,False
2023-12-24,1.1504868862914974,1.148853083663347,-0.14200966978570317,1,True
2023-12-25,1.148853083663347,1.1524689409613478,0.31473626605682536,0,True
2023-12-26,1.1524689409613478,1.1524689409613478,0.0,0,False
2023-12-27,1.1524689409613478,1.1440294576384737,-0.7322959450719924,2,True
2023-12-28,1.1440294576384737,1.1440294576384737,0.0,0,False
2023-12-29,1.1440294576384737,1.1440294576384737,0.0,0,False
2023-12-30,1.1440294576384737,1.1440294576384737,0.0,0,False
2023-12-31,1.1440294576384737,1.1440294576384737,0.0,0,False
