day,start_equity,end_equity,return_pct,entries,active
2024-01-02,1.0,1.0,0.0,0,False
2024-01-03,1.0,0.9927723563112387,-0.7227643688761276,6,True
2024-01-04,0.9927723563112387,0.9977689116012648,0.5032931525804418,2,True
2024-01-05,0.9977689116012648,0.995757222950537,-0.20161869420237677,1,True
2024-01-06,0.995757222950537,0.9954222019823338,-0.0336448443939541,2,True
2024-01-07,0.9954222019823338,0.9935288530021682,-0.19020562093100546,1,True
2024-01-08,0.9935288530021682,0.9995498522803958,0.6060215825674176,3,True
2024-01-09,0.9995498522803958,1.0032134967392028,0.3665294382715123,0,True
2024-01-10,1.0032134967392028,1.0032134967392028,0.0,0,False
2024-01-11,1.0032134967392028,1.0038804441115108,0.06648110043134814,1,True
2024-01-12,1.0038804441115108,1.0018668785090477,-0.20057822764395494,2,True
2024-01-13,1.0018668785090477,1.0054629019375318,0.35893225992615907,4,True
2024-01-14,1.0054629019375318,1.0102419882627551,0.47531204940669536,0,True
2024-01-15,1.0102419882627551,1.0102419882627551,0.0,0,False
2024-01-16,1.0102419882627551,1.009793746914751,-0.04436970084512604,1,True
2024-01-17,1.009793746914751,1.0140040809693134,0.41694990362399764,0,True
2024-01-18,1.0140040809693134,1.0140040809693134,0.0,0,False
2024-01-19,1.0140040809693134,1.0140040809693134,0.0,0,False
2024-01-20,1.0140040809693134,1.0272522444372767,1.3065197385891292,6,True
2024-01-21,1.0272522444372767,1.0290582442964713,0.17580880148710953,0,True
2024-01-22,1.0290582442964713,1.0290582442964713,0.0,0,False
2024-01-23,1.0290582442964713,1.006613451070223,-2.181100375090339,8,True
2024-01-24,1.006613451070223,1.006613451070223,0.0,0,False
2024-01-25,1.006613451070223,1.001589424673471,-0.499101853984818,1,True
2024-01-26,1.001589424673471,1.001589424673471,0.0,0,False
2024-01-27,1.001589424673471,1.001589424673471,0.0,0,False
2024-01-28,1.001589424673471,1.0005771776706909,-0.10106406655701061,1,True
2024-01-29,1.0005771776706909,1.0005771776706909,0.0,0,False
2024-01-30,1.0005771776706909,1.0005771776706909,0.0,0,False
2024-01-31,1.0005771776706909,0.995578875268925,-0.49954191573725604,1,True
2024-02-01,0.995578875268925,0.995578875268925,0.0,0,False
2024-02-02,0.995578875268925,0.9951063047097907,-0.04746691305664852,2,True
2024-02-03,0.9951063047097907,1.0029065531573425,0.7838608207619169,1,True
2024-02-04,1.0029065531573425,1.0012028873245218,-0.1698728388459747,1,True
2024-02-05,1.0012028873245218,1.0012028873245218,0.0,0,False
2024-02-06,1.0012028873245218,0.9962043792147901,-0.49925026915264015,1,True
2024-02-07,0.9962043792147901,0.9953256153831577,-0.08821119942526989,3,True
2024-02-08,0.9953256153831577,1.0096980373722795,1.4439919727765815,0,True
2024-02-09,1.0096980373722795,1.0096980373722795,0.0,0,False
2024-02-10,1.0096980373722795,1.0096980373722795,0.0,0,False
2024-02-11,1.0096980373722795,1.0096980373722795,0.0,0,False
2024-02-12,1.0096980373722795,1.0096980373722795,0.0,0,False
2024-02-13,1.0096980373722795,1.0096980373722795,0.0,0,False
2024-02-14,1.0096980373722795,1.0108373727075086,0.11283921460263358,1,True
2024-02-15,1.0108373727075086,1.0083849442605533,-0.24261355121710793,0,True
2024-02-16,1.0083849442605533,1.0132867393671392,0.486103559408102,1,True
2024-02-17,1.0132867393671392,1.0092451488792928,-0.39885950647795543,2,True
2024-02-18,1.0092451488792928,1.0096083892000827,0.035991287269809824,0,True
2024-02-19,1.0096083892000827,1.0096083892000827,0.0,0,False
2024-02-20,1.0096083892000827,1.0070529165616278,-0.2531152341631815,7,True
2024-02-21,1.0070529165616278,0.9887372476121044,-1.818739477172504,4,True
2024-02-22,0.9887372476121044,1.0117932602706867,2.3318644780769393,3,True
2024-02-23,1.0117932602706867,1.0178587721260786,0.5994813459984094,1,True
2024-02-24,1.0178587721260786,1.0290048735181938,1.0950538225291906,3,True
2024-02-25,1.0290048735181938,1.0263079671691864,-0.26208878290212567,1,True
2024-02-26,1.0263079671691864,1.0314102818203943,0.4971523962033819,0,True
2024-02-27,1.0314102818203943,1.030479773301595,-0.09021710712027176,1,True
2024-02-28,1.030479773301595,1.0303703871970544,-0.010615065659169698,1,True
2024-02-29,1.0303703871970544,1.0489101398297447,1.799328946469858,5,True
2024-03-01,1.0489101398297447,1.047440856773223,-0.14007711439992798,1,True
2024-03-02,1.047440856773223,1.0469048679916264,-0.051171269301808486,1,True
2024-03-03,1.0469048679916264,1.0492250604739688,0.22162400360152823,6,True
2024-03-04,1.0492250604739688,1.0705559403547875,2.033012809585655,0,True
2024-03-05,1.0705559403547875,1.0629918916997698,-0.70655333083397,5,True
2024-03-06,1.0629918916997698,1.0383565570345064,-2.3175468089291384,3,True
2024-03-07,1.0383565570345064,1.0383565570345064,0.0,0,False
2024-03-08,1.0383565570345064,1.0389375244091814,0.05595066268317961,2,True
2024-03-09,1.0389375244091814,1.0361445821234812,-0.2688267792895993,3,True
2024-03-10,1.0361445821234812,1.0415033708338612,0.5171854201464487,2,True
2024-03-11,1.0415033708338612,1.034402793600206,-0.6817622902142162,0,True
2024-03-12,1.034402793600206,1.0305470968017347,-0.3727461702855317,1,True
2024-03-13,1.0305470968017347,1.0351011512215416,0.44190648190074455,2,True
2024-03-14,1.0351011512215416,1.0327665309748884,-0.22554513091769257,1,True
2024-03-15,1.0327665309748884,1.0116166110651101,-2.0478897481131186,6,True
2024-03-16,1.0116166110651101,1.0095756501129576,-0.20175241586866122,1,True
2024-03-17,1.0095756501129576,0.987523444024266,-2.18430447349085,4,True
2024-03-18,0.987523444024266,0.987523444024266,0.0,0,False
2024-03-19,0.987523444024266,0.9667694384748425,-2.10162155389938,7,True
2024-03-20,0.9667694384748425,0.9667694384748425,0.0,0,False
2024-03-21,0.9667694384748425,0.9707048873716547,0.4070721249753939,2,True
2024-03-22,0.9707048873716547,0.9707048873716547,0.0,0,False
2024-03-23,0.9707048873716547,0.972189493953927,0.15294108452386102,1,True
2024-03-24,0.972189493953927,0.9697536388855454,-0.25055352722181956,2,True
2024-03-25,0.9697536388855454,0.9772453420532063,0.7725367420400087,2,True
2024-03-26,0.9772453420532063,0.9805146070666345,0.3345388177097286,2,True
2024-03-27,0.9805146070666345,0.9747250668330142,-0.5904593559233784,3,True
2024-03-28,0.9747250668330142,0.9707612369428165,-0.40666132687822154,0,True
2024-03-29,0.9707612369428165,0.9597665655495388,-1.1325824492027348,3,True
2024-03-30,0.9597665655495388,0.9598908266930558,0.012947017324571597,0,True
2024-03-31,0.9598908266930558,0.9598908266930558,0.0,0,False
2024-04-01,0.9598908266930558,0.9590782520393086,-0.08465282000315044,4,True
2024-04-02,0.9590782520393086,0.9464074300825147,-1.321145790747702,5,True
2024-04-03,0.9464074300825147,0.9384655086504967,-0.8391651607516981,1,True
2024-04-04,0.9384655086504967,0.9381922955930448,-0.029112743615344883,1,True
2024-04-05,0.9381922955930448,0.9313533441908525,-0.7289498575416609,3,True
2024-04-06,0.9313533441908525,0.9311531015902567,-0.021500175185362735,1,True
2024-04-07,0.9311531015902567,0.9370541685388194,0.6337375602878392,1,True
2024-04-08,0.9370541685388194,0.9370541685388194,0.0,0,False
2024-04-09,0.9370541685388194,0.9347169280195836,-0.24942426998434408,1,True
2024-04-10,0.9347169280195836,0.9294243324556457,-0.5662244263781036,5,True
2024-04-11,0.9294243324556457,0.9318280692801547,0.25862641428355815,1,True
2024-04-12,0.9318280692801547,0.9301243208130898,-0.18283935880800684,3,True
2024-04-13,0.9301243208130898,0.9175421867668934,-1.3527368078277369,7,True
2024-04-14,0.9175421867668934,0.9109523548529296,-0.71820478763861,3,True
2024-04-15,0.9109523548529296,0.9109523548529296,0.0,0,False
2024-04-16,0.9109523548529296,0.9109523548529296,0.0,0,False
2024-04-17,0.9109523548529296,0.9109523548529296,0.0,0,False
2024-04-18,0.9109523548529296,0.9109523548529296,0.0,0,False
2024-04-19,0.9109523548529296,0.9109523548529296,0.0,0,False
2024-04-20,0.9109523548529296,0.9109523548529296,0.0,0,False
2024-04-21,0.9109523548529296,0.9109523548529296,0.0,0,False
2024-04-22,0.9109523548529296,0.9109523548529296,0.0,0,False
2024-04-23,0.9109523548529296,0.9109523548529296,0.0,0,False
2024-04-24,0.9109523548529296,0.9109523548529296,0.0,0,False
2024-04-25,0.9109523548529296,0.9109523548529296,0.0,0,False
2024-04-26,0.9109523548529296,0.9109523548529296,0.0,0,False
2024-04-27,0.9109523548529296,0.9109523548529296,0.0,0,False
2024-04-28,0.9109523548529296,0.9109523548529296,0.0,0,False
2024-04-29,0.9109523548529296,0.9109523548529296,0.0,0,False
2024-04-30,0.9109523548529296,0.9109523548529296,0.0,0,False
2024-05-01,0.9109523548529296,0.9109523548529296,0.0,0,False
2024-05-02,0.9109523548529296,0.9109523548529296,0.0,0,False
2024-05-03,0.9109523548529296,0.9109523548529296,0.0,0,False
2024-05-04,0.9109523548529296,0.9109523548529296,0.0,0,False
2024-05-05,0.9109523548529296,0.9109523548529296,0.0,0,False
2024-05-06,0.9109523548529296,0.9109523548529296,0.0,0,False
2024-05-07,0.9109523548529296,0.9109523548529296,0.0,0,False
2024-05-08,0.9109523548529296,0.9109523548529296,0.0,0,False
2024-05-09,0.9109523548529296,0.9109523548529296,0.0,0,False
2024-05-10,0.9109523548529296,0.9109523548529296,0.0,0,False
2024-05-11,0.9109523548529296,0.9109523548529296,0.0,0,False
2024-05-12,0.9109523548529296,0.9109523548529296,0.0,0,False
2024-05-13,0.9109523548529296,0.9109523548529296,0.0,0,False
2024-05-14,0.9109523548529296,0.9109523548529296,0.0,0,False
2024-05-15,0.9109523548529296,0.9109523548529296,0.0,0,False
2024-05-16,0.9109523548529296,0.9109523548529296,0.0,0,False
2024-05-17,0.9109523548529296,0.9109523548529296,0.0,0,False
2024-05-18,0.9109523548529296,0.9109523548529296,0.0,0,False
2024-05-19,0.9109523548529296,0.9109523548529296,0.0,0,False
2024-05-20,0.9109523548529296,0.9109523548529296,0.0,0,False
2024-05-21,0.9109523548529296,0.9109523548529296,0.0,0,False
2024-05-22,0.9109523548529296,0.9109523548529296,0.0,0,False
2024-05-23,0.9109523548529296,0.9109523548529296,0.0,0,False
2024-05-24,0.9109523548529296,0.9109523548529296,0.0,0,False
2024-05-25,0.9109523548529296,0.9109523548529296,0.0,0,False
2024-05-26,0.9109523548529296,0.9109523548529296,0.0,0,False
2024-05-27,0.9109523548529296,0.9109523548529296,0.0,0,False
2024-05-28,0.9109523548529296,0.9109523548529296,0.0,0,False
2024-05-29,0.9109523548529296,0.9109523548529296,0.0,0,False
2024-05-30,0.9109523548529296,0.9109523548529296,0.0,0,False
2024-05-31,0.9109523548529296,0.9109523548529296,0.0,0,False
2024-06-01,0.9109523548529296,0.9109523548529296,0.0,0,False
2024-06-02,0.9109523548529296,0.9109523548529296,0.0,0,False
2024-06-03,0.9109523548529296,0.9109523548529296,0.0,0,False
2024-06-04,0.9109523548529296,0.9109523548529296,0.0,0,False
2024-06-05,0.9109523548529296,0.9109523548529296,0.0,0,False
2024-06-06,0.9109523548529296,0.9109523548529296,0.0,0,False
2024-06-07,0.9109523548529296,0.9109523548529296,0.0,0,False
2024-06-08,0.9109523548529296,0.9109523548529296,0.0,0,False
2024-06-09,0.9109523548529296,0.9109523548529296,0.0,0,False
2024-06-10,0.9109523548529296,0.9109523548529296,0.0,0,False
2024-06-11,0.9109523548529296,0.9109523548529296,0.0,0,False
2024-06-12,0.9109523548529296,0.9109523548529296,0.0,0,False
2024-06-13,0.9109523548529296,0.9109523548529296,0.0,0,False
2024-06-14,0.9109523548529296,0.9109523548529296,0.0,0,False
2024-06-15,0.9109523548529296,0.9109523548529296,0.0,0,False
2024-06-16,0.9109523548529296,0.9109523548529296,0.0,0,False
2024-06-17,0.9109523548529296,0.9109523548529296,0.0,0,False
2024-06-18,0.9109523548529296,0.9109523548529296,0.0,0,False
2024-06-19,0.9109523548529296,0.9109523548529296,0.0,0,False
2024-06-20,0.9109523548529296,0.9109523548529296,0.0,0,False
2024-06-21,0.9109523548529296,0.9109523548529296,0.0,0,False
2024-06-22,0.9109523548529296,0.9109523548529296,0.0,0,False
2024-06-23,0.9109523548529296,0.9109523548529296,0.0,0,False
2024-06-24,0.9109523548529296,0.9109523548529296,0.0,0,False
2024-06-25,0.9109523548529296,0.9109523548529296,0.0,0,False
2024-06-26,0.9109523548529296,0.9109523548529296,0.0,0,False
2024-06-27,0.9109523548529296,0.9109523548529296,0.0,0,False
2024-06-28,0.9109523548529296,0.9109523548529296,0.0,0,False
2024-06-29,0.9109523548529296,0.9109523548529296,0.0,0,False
2024-06-30,0.9109523548529296,0.9109523548529296,0.0,0,False
2024-07-01,0.9109523548529296,0.9109523548529296,0.0,0,False
2024-07-02,0.9109523548529296,0.9109523548529296,0.0,0,False
2024-07-03,0.9109523548529296,0.9109523548529296,0.0,0,False
2024-07-04,0.9109523548529296,0.9109523548529296,0.0,0,False
2024-07-05,0.9109523548529296,0.9109523548529296,0.0,0,False
2024-07-06,0.9109523548529296,0.9109523548529296,0.0,0,False
2024-07-07,0.9109523548529296,0.9109523548529296,0.0,0,False
2024-07-08,0.9109523548529296,0.9109523548529296,0.0,0,False
2024-07-09,0.9109523548529296,0.9109523548529296,0.0,0,False
2024-07-10,0.9109523548529296,0.9109523548529296,0.0,0,False
2024-07-11,0.9109523548529296,0.9109523548529296,0.0,0,False
2024-07-12,0.9109523548529296,0.9109523548529296,0.0,0,False
2024-07-13,0.9109523548529296,0.9109523548529296,0.0,0,False
2024-07-14,0.9109523548529296,0.9109523548529296,0.0,0,False
2024-07-15,0.9109523548529296,0.9109523548529296,0.0,0,False
2024-07-16,0.9109523548529296,0.9109523548529296,0.0,0,False
2024-07-17,0.9109523548529296,0.9109523548529296,0.0,0,False
2024-07-18,0.9109523548529296,0.9109523548529296,0.0,0,False
2024-07-19,0.9109523548529296,0.9109523548529296,0.0,0,False
2024-07-20,0.9109523548529296,0.9109523548529296,0.0,0,False
2024-07-21,0.9109523548529296,0.9109523548529296,0.0,0,False
2024-07-22,0.9109523548529296,0.9109523548529296,0.0,0,False
2024-07-23,0.9109523548529296,0.9109523548529296,0.0,0,False
2024-07-24,0.9109523548529296,0.9109523548529296,0.0,0,False
2024-07-25,0.9109523548529296,0.9109523548529296,0.0,0,False
2024-07-26,0.9109523548529296,0.9109523548529296,0.0,0,False
2024-07-27,0.9109523548529296,0.9109523548529296,0.0,0,False
2024-07-28,0.9109523548529296,0.9109523548529296,0.0,0,False
2024-07-29,0.9109523548529296,0.9109523548529296,0.0,0,False
2024-07-30,0.9109523548529296,0.9109523548529296,0.0,0,False
2024-07-31,0.9109523548529296,0.9109523548529296,0.0,0,False
2024-08-01,0.9109523548529296,0.9109523548529296,0.0,0,False
2024-08-02,0.9109523548529296,0.9109523548529296,0.0,0,False
2024-08-03,0.9109523548529296,0.9109523548529296,0.0,0,False
2024-08-04,0.9109523548529296,0.9109523548529296,0.0,0,False
2024-08-05,0.9109523548529296,0.9109523548529296,0.0,0,False
2024-08-06,0.9109523548529296,0.9109523548529296,0.0,0,False
2024-08-07,0.9109523548529296,0.9109523548529296,0.0,0,False
2024-08-08,0.9109523548529296,0.9109523548529296,0.0,0,False
2024-08-09,0.9109523548529296,0.9109523548529296,0.0,0,False
2024-08-10,0.9109523548529296,0.9109523548529296,0.0,0,False
2024-08-11,0.9109523548529296,0.9109523548529296,0.0,0,False
2024-08-12,0.9109523548529296,0.9109523548529296,0.0,0,False
2024-08-13,0.9109523548529296,0.9109523548529296,0.0,0,False
2024-08-14,0.9109523548529296,0.9109523548529296,0.0,0,False
2024-08-15,0.9109523548529296,0.9109523548529296,0.0,0,False
2024-08-16,0.9109523548529296,0.9109523548529296,0.0,0,False
2024-08-17,0.9109523548529296,0.9109523548529296,0.0,0,False
2024-08-18,0.9109523548529296,0.9109523548529296,0.0,0,False
2024-08-19,0.9109523548529296,0.9109523548529296,0.0,0,False
2024-08-20,0.9109523548529296,0.9109523548529296,0.0,0,False
2024-08-21,0.9109523548529296,0.9109523548529296,0.0,0,False
2024-08-22,0.9109523548529296,0.9109523548529296,0.0,0,False
2024-08-23,0.9109523548529296,0.9109523548529296,0.0,0,False
2024-08-24,0.9109523548529296,0.9109523548529296,0.0,0,False
2024-08-25,0.9109523548529296,0.9109523548529296,0.0,0,False
2024-08-26,0.9109523548529296,0.9109523548529296,0.0,0,False
2024-08-27,0.9109523548529296,0.9109523548529296,0.0,0,False
2024-08-28,0.9109523548529296,0.9109523548529296,0.0,0,False
2024-08-29,0.9109523548529296,0.9109523548529296,0.0,0,False
2024-08-30,0.9109523548529296,0.9109523548529296,0.0,0,False
2024-08-31,0.9109523548529296,0.9109523548529296,0.0,0,False
2024-09-01,0.9109523548529296,0.9109523548529296,0.0,0,False
2024-09-02,0.9109523548529296,0.9109523548529296,0.0,0,False
2024-09-03,0.9109523548529296,0.9109523548529296,0.0,0,False
2024-09-04,0.9109523548529296,0.9109523548529296,0.0,0,False
2024-09-05,0.9109523548529296,0.9109523548529296,0.0,0,False
2024-09-06,0.9109523548529296,0.9109523548529296,0.0,0,False
2024-09-07,0.9109523548529296,0.9109523548529296,0.0,0,False
2024-09-08,0.9109523548529296,0.9109523548529296,0.0,0,False
2024-09-09,0.9109523548529296,0.9109523548529296,0.0,0,False
2024-09-10,0.9109523548529296,0.9109523548529296,0.0,0,False
2024-09-11,0.9109523548529296,0.9109523548529296,0.0,0,False
2024-09-12,0.9109523548529296,0.9109523548529296,0.0,0,False
2024-09-13,0.9109523548529296,0.9109523548529296,0.0,0,False
2024-09-14,0.9109523548529296,0.9109523548529296,0.0,0,False
2024-09-15,0.9109523548529296,0.9109523548529296,0.0,0,False
2024-09-16,0.9109523548529296,0.9109523548529296,0.0,0,False
2024-09-17,0.9109523548529296,0.9109523548529296,0.0,0,False
2024-09-18,0.9109523548529296,0.9109523548529296,0.0,0,False
2024-09-19,0.9109523548529296,0.9109523548529296,0.0,0,False
2024-09-20,0.9109523548529296,0.9109523548529296,0.0,0,False
2024-09-21,0.9109523548529296,0.9109523548529296,0.0,0,False
2024-09-22,0.9109523548529296,0.9109523548529296,0.0,0,False
2024-09-23,0.9109523548529296,0.9109523548529296,0.0,0,False
2024-09-24,0.9109523548529296,0.9109523548529296,0.0,0,False
2024-09-25,0.9109523548529296,0.9109523548529296,0.0,0,False
2024-09-26,0.9109523548529296,0.9109523548529296,0.0,0,False
2024-09-27,0.9109523548529296,0.9109523548529296,0.0,0,False
2024-09-28,0.9109523548529296,0.9109523548529296,0.0,0,False
2024-09-29,0.9109523548529296,0.9109523548529296,0.0,0,False
2024-09-30,0.9109523548529296,0.9109523548529296,0.0,0,False
2024-10-01,0.9109523548529296,0.9109523548529296,0.0,0,False
2024-10-02,0.9109523548529296,0.9109523548529296,0.0,0,False
2024-10-03,0.9109523548529296,0.9109523548529296,0.0,0,False
2024-10-04,0.9109523548529296,0.9109523548529296,0.0,0,False
2024-10-05,0.9109523548529296,0.9109523548529296,0.0,0,False
2024-10-06,0.9109523548529296,0.9109523548529296,0.0,0,False
2024-10-07,0.9109523548529296,0.9109523548529296,0.0,0,False
2024-10-08,0.9109523548529296,0.9109523548529296,0.0,0,False
2024-10-09,0.9109523548529296,0.9109523548529296,0.0,0,False
2024-10-10,0.9109523548529296,0.9109523548529296,0.0,0,False
2024-10-11,0.9109523548529296,0.9109523548529296,0.0,0,False
2024-10-12,0.9109523548529296,0.9109523548529296,0.0,0,False
2024-10-13,0.9109523548529296,0.9109523548529296,0.0,0,False
2024-10-14,0.9109523548529296,0.9109523548529296,0.0,0,False
2024-10-15,0.9109523548529296,0.9109523548529296,0.0,0,False
2024-10-16,0.9109523548529296,0.9109523548529296,0.0,0,False
2024-10-17,0.9109523548529296,0.9109523548529296,0.0,0,False
2024-10-18,0.9109523548529296,0.9109523548529296,0.0,0,False
2024-10-19,0.9109523548529296,0.9109523548529296,0.0,0,False
2024-10-20,0.9109523548529296,0.9109523548529296,0.0,0,False
2024-10-21,0.9109523548529296,0.9109523548529296,0.0,0,False
2024-10-22,0.9109523548529296,0.9109523548529296,0.0,0,False
2024-10-23,0.9109523548529296,0.9109523548529296,0.0,0,False
2024-10-24,0.9109523548529296,0.9109523548529296,0.0,0,False
2024-10-25,0.9109523548529296,0.9109523548529296,0.0,0,False
2024-10-26,0.9109523548529296,0.9109523548529296,0.0,0,False
2024-10-27,0.9109523548529296,0.9109523548529296,0.0,0,False
2024-10-28,0.9109523548529296,0.9109523548529296,0.0,0,False
2024-10-29,0.9109523548529296,0.9109523548529296,0.0,0,False
2024-10-30,0.9109523548529296,0.9109523548529296,0.0,0,False
2024-10-31,0.9109523548529296,0.9109523548529296,0.0,0,False
2024-11-01,0.9109523548529296,0.9109523548529296,0.0,0,False
2024-11-02,0.9109523548529296,0.9109523548529296,0.0,0,False
2024-11-03,0.9109523548529296,0.9109523548529296,0.0,0,False
2024-11-04,0.9109523548529296,0.9109523548529296,0.0,0,False
2024-11-05,0.9109523548529296,0.9109523548529296,0.0,0,False
2024-11-06,0.9109523548529296,0.9109523548529296,0.0,0,False
2024-11-07,0.9109523548529296,0.9109523548529296,0.0,0,False
2024-11-08,0.9109523548529296,0.9109523548529296,0.0,0,False
2024-11-09,0.9109523548529296,0.9109523548529296,0.0,0,False
2024-11-10,0.9109523548529296,0.9109523548529296,0.0,0,False
2024-11-11,0.9109523548529296,0.9109523548529296,0.0,0,False
2024-11-12,0.9109523548529296,0.9109523548529296,0.0,0,False
2024-11-13,0.9109523548529296,0.9109523548529296,0.0,0,False
2024-11-14,0.9109523548529296,0.9109523548529296,0.0,0,False
2024-11-15,0.9109523548529296,0.9109523548529296,0.0,0,False
2024-11-16,0.9109523548529296,0.9109523548529296,0.0,0,False
2024-11-17,0.9109523548529296,0.9109523548529296,0.0,0,False
2024-11-18,0.9109523548529296,0.9109523548529296,0.0,0,False
2024-11-19,0.9109523548529296,0.9109523548529296,0.0,0,False
2024-11-20,0.9109523548529296,0.9109523548529296,0.0,0,False
2024-11-21,0.9109523548529296,0.9109523548529296,0.0,0,False
2024-11-22,0.9109523548529296,0.9109523548529296,0.0,0,False
2024-11-23,0.9109523548529296,0.9109523548529296,0.0,0,False
2024-11-24,0.9109523548529296,0.9109523548529296,0.0,0,False
2024-11-25,0.9109523548529296,0.9109523548529296,0.0,0,False
2024-11-26,0.9109523548529296,0.9109523548529296,0.0,0,False
2024-11-27,0.9109523548529296,0.9109523548529296,0.0,0,False
2024-11-28,0.9109523548529296,0.9109523548529296,0.0,0,False
2024-11-29,0.9109523548529296,0.9109523548529296,0.0,0,False
2024-11-30,0.9109523548529296,0.9109523548529296,0.0,0,False
2024-12-01,0.9109523548529296,0.9109523548529296,0.0,0,False
2024-12-02,0.9109523548529296,0.9109523548529296,0.0,0,False
2024-12-03,0.9109523548529296,0.9109523548529296,0.0,0,False
2024-12-04,0.9109523548529296,0.9109523548529296,0.0,0,False
2024-12-05,0.9109523548529296,0.9109523548529296,0.0,0,False
2024-12-06,0.9109523548529296,0.9109523548529296,0.0,0,False
2024-12-07,0.9109523548529296,0.9109523548529296,0.0,0,False
2024-12-08,0.9109523548529296,0.9109523548529296,0.0,0,False
2024-12-09,0.9109523548529296,0.9109523548529296,0.0,0,False
2024-12-10,0.9109523548529296,0.9109523548529296,0.0,0,False
2024-12-11,0.9109523548529296,0.9109523548529296,0.0,0,False
2024-12-12,0.9109523548529296,0.9109523548529296,0.0,0,False
2024-12-13,0.9109523548529296,0.9109523548529296,0.0,0,False
2024-12-14,0.9109523548529296,0.9109523548529296,0.0,0,False
2024-12-15,0.9109523548529296,0.9109523548529296,0.0,0,False
2024-12-16,0.9109523548529296,0.9109523548529296,0.0,0,False
2024-12-17,0.9109523548529296,0.9109523548529296,0.0,0,False
2024-12-18,0.9109523548529296,0.9109523548529296,0.0,0,False
2024-12-19,0.9109523548529296,0.9109523548529296,0.0,0,False
2024-12-20,0.9109523548529296,0.9109523548529296,0.0,0,False
2024-12-21,0.9109523548529296,0.9109523548529296,0.0,0,False
2024-12-22,0.9109523548529296,0.9109523548529296,0.0,0,False
2024-12-23,0.9109523548529296,0.9109523548529296,0.0,0,False
2024-12-24,0.9109523548529296,0.9109523548529296,0.0,0,False
2024-12-25,0.9109523548529296,0.9109523548529296,0.0,0,False
2024-12-26,0.9109523548529296,0.9109523548529296,0.0,0,False
2024-12-27,0.9109523548529296,0.9109523548529296,0.0,0,False
2024-12-28,0.9109523548529296,0.9109523548529296,0.0,0,False
2024-12-29,0.9109523548529296,0.9109523548529296,0.0,0,False
2024-12-30,0.9109523548529296,0.9109523548529296,0.0,0,False
2024-12-31,0.9109523548529296,0.9109523548529296,0.0,0,False
