day,start_equity,end_equity,return_pct,entries,active
2024-01-02,1.0,1.0,0.0,0,False
2024-01-03,1.0,0.9935163439506344,-0.6483656049365627,6,True
2024-01-04,0.9935163439506344,0.9997726322242819,0.6297116611861497,1,True
2024-01-05,0.9997726322242819,0.9986514516674994,-0.1121435535085813,1,True
2024-01-06,0.9986514516674994,0.9986013913468252,-0.005012792059788662,2,True
2024-01-07,0.9986013913468252,0.9967887408016007,-0.18151892846651752,1,True
2024-01-08,0.9967887408016007,1.003426838977386,0.6659483503442143,3,True
2024-01-09,1.003426838977386,1.0071998323031455,0.3760108040965493,0,True
2024-01-10,1.0071998323031455,1.0071998323031455,0.0,0,False
2024-01-11,1.0071998323031455,1.0080218159581553,0.08161078155963786,1,True
2024-01-12,1.0080218159581553,1.0062131270947323,-0.17942953563001574,2,True
2024-01-13,1.0062131270947323,1.010462584067265,0.4223217584928829,4,True
2024-01-14,1.010462584067265,1.015388566611623,0.48749776805492306,0,True
2024-01-15,1.015388566611623,1.015388566611623,0.0,0,False
2024-01-16,1.015388566611623,1.0150664884380574,-0.03171969669112373,1,True
2024-01-17,1.0150664884380574,1.0194157842712146,0.42847398497509737,0,True
2024-01-18,1.0194157842712146,1.0194157842712146,0.0,0,False
2024-01-19,1.0194157842712146,1.0194157842712146,0.0,0,False
2024-01-20,1.0194157842712146,1.0338102457854297,1.412030472385295,6,True
2024-01-21,1.0338102457854297,1.035704370308794,0.1832178130451112,0,True
2024-01-22,1.035704370308794,1.035704370308794,0.0,0,False
2024-01-23,1.035704370308794,1.0137395538948317,-2.1207611982378305,8,True
2024-01-24,1.0137395538948317,1.0137395538948317,0.0,0,False
2024-01-25,1.0137395538948317,1.0086801852827831,-0.4990797283789816,1,True
2024-01-26,1.0086801852827831,1.0086801852827831,0.0,0,False
2024-01-27,1.0086801852827831,1.0086801852827831,0.0,0,False
2024-01-28,1.0086801852827831,1.0086801852827831,0.0,0,False
2024-01-29,1.0086801852827831,1.0086801852827831,0.0,0,False
2024-01-30,1.0086801852827831,1.0086801852827831,0.0,0,False
2024-01-31,1.0086801852827831,1.0036415194566,-0.49953056476177427,1,True
2024-02-01,1.0036415194566,1.0036415194566,0.0,0,False
2024-02-02,1.0036415194566,1.0034388830527272,-0.02019011768090717,2,True
2024-02-03,1.0034388830527272,1.0116841445563147,0.8217004187144106,1,True
2024-02-04,1.0116841445563147,1.0100656744570253,-0.1599778061164736,1,True
2024-02-05,1.0100656744570253,1.0100656744570253,0.0,0,False
2024-02-06,1.0100656744570253,1.0050325793600081,-0.4982938460633135,1,True
2024-02-07,1.0050325793600081,1.004699729060227,-0.03311835920711825,3,True
2024-02-08,1.004699729060227,1.0197591485189215,1.4988975335725963,0,True
2024-02-09,1.0197591485189215,1.0197591485189215,0.0,0,False
2024-02-10,1.0197591485189215,1.0197591485189215,0.0,0,False
2024-02-11,1.0197591485189215,1.0197591485189215,0.0,0,False
2024-02-12,1.0197591485189215,1.0197591485189215,0.0,0,False
2024-02-13,1.0197591485189215,1.0197591485189215,0.0,0,False
2024-02-14,1.0197591485189215,1.0210925204979278,0.1307536177481472,1,True
2024-02-15,1.0210925204979278,1.0185432578878406,-0.24966029609579943,0,True
2024-02-16,1.0185432578878406,1.023738229571103,0.5100393766323874,1,True
2024-02-17,1.023738229571103,1.0198336529298513,-0.38140381285629577,2,True
2024-02-18,1.0198336529298513,1.020210111687733,0.03691374145187165,0,True
2024-02-19,1.020210111687733,1.020210111687733,0.0,0,False
2024-02-20,1.020210111687733,1.0187111795740231,-0.1469238636764847,7,True
2024-02-21,1.0187111795740231,1.0008947580014247,-1.748917841467923,4,True
2024-02-22,1.0008947580014247,1.024861947648931,2.3945763983581614,3,True
2024-02-23,1.024861947648931,1.031389219187699,0.6368927594337936,1,True
2024-02-24,1.031389219187699,1.0434008626211382,1.1646082012471748,3,True
2024-02-25,1.0434008626211382,1.0407347463074499,-0.25552176629323187,1,True
2024-02-26,1.0407347463074499,1.0460506016093825,0.5107790741870843,0,True
2024-02-27,1.0460506016093825,1.0459563983272648,-0.009005614257351358,1,True
2024-02-28,1.0459563983272648,1.04586386178575,-0.008847074472961847,1,True
2024-02-29,1.04586386178575,1.065732887577493,1.8997717119528135,5,True
2024-03-01,1.065732887577493,1.0643249881709698,-0.132106217508543,1,True
2024-03-02,1.0643249881709698,1.063896772644273,-0.04023353124806839,1,True
2024-03-03,1.063896772644273,1.0666074499727745,0.25478762584871806,6,True
2024-03-04,1.0666074499727745,1.08298568047645,1.5355443564634363,0,True
2024-03-05,1.08298568047645,1.077007473762144,-0.5520116121642382,5,True
2024-03-06,1.077007473762144,1.0507716512886074,-2.435992610328974,3,True
2024-03-07,1.0507716512886074,1.0507716512886074,0.0,0,False
2024-03-08,1.0507716512886074,1.0516707516638755,0.08556572440505672,2,True
2024-03-09,1.0516707516638755,1.0492011420462748,-0.23482726068909665,3,True
2024-03-10,1.0492011420462748,1.0550613686989858,0.5585417721983843,2,True
2024-03-11,1.0550613686989858,1.0476695636005424,-0.7006042793092027,0,True
2024-03-12,1.0476695636005424,1.0438009747883297,-0.3692565811416304,1,True
2024-03-13,1.0438009747883297,1.0488412739713617,0.4828793328205183,2,True
2024-03-14,1.0488412739713617,1.0465643065772263,-0.21709361088678714,1,True
2024-03-15,1.0465643065772263,1.0253844541503907,-2.0237506948907913,6,True
2024-03-16,1.0253844541503907,1.0234060189306788,-0.1929457006787927,1,True
2024-03-17,1.0234060189306788,1.0009817328598571,-2.1911426800334866,4,True
2024-03-18,1.0009817328598571,1.0009817328598571,0.0,0,False
2024-03-19,1.0009817328598571,0.980292496664169,-2.0668944813386325,7,True
2024-03-20,0.980292496664169,0.980292496664169,0.0,0,False
2024-03-21,0.980292496664169,0.9846375370885774,0.4432391800604618,2,True
2024-03-22,0.9846375370885774,0.9846375370885774,0.0,0,False
2024-03-23,0.9846375370885774,0.9863597460536101,0.1749079128269937,1,True
2024-03-24,0.9863597460536101,0.9840800858570684,-0.23111853516554204,2,True
2024-03-25,0.9840800858570684,0.9921281830714821,0.8178294968142152,2,True
2024-03-26,0.9921281830714821,0.9958032358565345,0.37042116611132325,2,True
2024-03-27,0.9958032358565345,0.9951597745904232,-0.06461731022172623,2,True
2024-03-28,0.9951597745904232,0.9910194895662879,-0.4160422406381148,0,True
2024-03-29,0.9910194895662879,0.9804284711870004,-1.0686993031713832,4,True
2024-03-30,0.9804284711870004,0.9803210666661143,-0.010954855355849169,0,True
2024-03-31,0.9803210666661143,0.9803210666661143,0.0,0,False
2024-04-01,0.9803210666661143,0.979260801559377,-0.10815488341416879,4,True
2024-04-02,0.979260801559377,0.9595911717868074,-2.0086201491214206,4,True
2024-04-03,0.9595911717868074,0.9571959915134445,-0.24960424228402944,1,True
2024-04-04,0.9571959915134445,0.9569689005940604,-0.0237245999144875,1,True
2024-04-05,0.9569689005940604,0.9500119775859888,-0.7269748268468268,3,True
2024-04-06,0.9500119775859888,0.9493967111837355,-0.06476406790330014,1,True
2024-04-07,0.9493967111837355,0.9556375162159012,0.6573442859713063,1,True
2024-04-08,0.9556375162159012,0.9556375162159012,0.0,0,False
2024-04-09,0.9556375162159012,0.9532540772331886,-0.24940826853998566,1,True
2024-04-10,0.9532540772331886,0.9504123897888784,-0.2981038856459062,4,True
2024-04-11,0.9504123897888784,0.953007964360006,0.2730998247722827,1,True
2024-04-12,0.953007964360006,0.9502159325394424,-0.292970460371611,2,True
2024-04-13,0.9502159325394424,0.9374131025393382,-1.347360064347558,7,True
2024-04-14,0.9374131025393382,0.9224785286628282,-1.593168885313645,6,True
2024-04-15,0.9224785286628282,0.9224785286628282,0.0,0,False
2024-04-16,0.9224785286628282,0.9224785286628282,0.0,0,False
2024-04-17,0.9224785286628282,0.9224785286628282,0.0,0,False
2024-04-18,0.9224785286628282,0.9224785286628282,0.0,0,False
2024-04-19,0.9224785286628282,0.9224785286628282,0.0,0,False
2024-04-20,0.9224785286628282,0.9224785286628282,0.0,0,False
2024-04-21,0.9224785286628282,0.9224785286628282,0.0,0,False
2024-04-22,0.9224785286628282,0.9224785286628282,0.0,0,False
2024-04-23,0.9224785286628282,0.9224785286628282,0.0,0,False
2024-04-24,0.9224785286628282,0.9224785286628282,0.0,0,False
2024-04-25,0.9224785286628282,0.9224785286628282,0.0,0,False
2024-04-26,0.9224785286628282,0.9224785286628282,0.0,0,False
2024-04-27,0.9224785286628282,0.9224785286628282,0.0,0,False
2024-04-28,0.9224785286628282,0.9224785286628282,0.0,0,False
2024-04-29,0.9224785286628282,0.9224785286628282,0.0,0,False
2024-04-30,0.9224785286628282,0.9224785286628282,0.0,0,False
2024-05-01,0.9224785286628282,0.9224785286628282,0.0,0,False
2024-05-02,0.9224785286628282,0.9224785286628282,0.0,0,False
2024-05-03,0.9224785286628282,0.9224785286628282,0.0,0,False
2024-05-04,0.9224785286628282,0.9224785286628282,0.0,0,False
2024-05-05,0.9224785286628282,0.9224785286628282,0.0,0,False
2024-05-06,0.9224785286628282,0.9224785286628282,0.0,0,False
2024-05-07,0.9224785286628282,0.9224785286628282,0.0,0,False
2024-05-08,0.9224785286628282,0.9224785286628282,0.0,0,False
2024-05-09,0.9224785286628282,0.9224785286628282,0.0,0,False
2024-05-10,0.9224785286628282,0.9224785286628282,0.0,0,False
2024-05-11,0.9224785286628282,0.9224785286628282,0.0,0,False
2024-05-12,0.9224785286628282,0.9224785286628282,0.0,0,False
2024-05-13,0.9224785286628282,0.9224785286628282,0.0,0,False
2024-05-14,0.9224785286628282,0.9224785286628282,0.0,0,False
2024-05-15,0.9224785286628282,0.9224785286628282,0.0,0,False
2024-05-16,0.9224785286628282,0.9224785286628282,0.0,0,False
2024-05-17,0.9224785286628282,0.9224785286628282,0.0,0,False
2024-05-18,0.9224785286628282,0.9224785286628282,0.0,0,False
2024-05-19,0.9224785286628282,0.9224785286628282,0.0,0,False
2024-05-20,0.9224785286628282,0.9224785286628282,0.0,0,False
2024-05-21,0.9224785286628282,0.9224785286628282,0.0,0,False
2024-05-22,0.9224785286628282,0.9224785286628282,0.0,0,False
2024-05-23,0.9224785286628282,0.9224785286628282,0.0,0,False
2024-05-24,0.9224785286628282,0.9224785286628282,0.0,0,False
2024-05-25,0.9224785286628282,0.9224785286628282,0.0,0,False
2024-05-26,0.9224785286628282,0.9224785286628282,0.0,0,False
2024-05-27,0.9224785286628282,0.9224785286628282,0.0,0,False
2024-05-28,0.9224785286628282,0.9224785286628282,0.0,0,False
2024-05-29,0.9224785286628282,0.9224785286628282,0.0,0,False
2024-05-30,0.9224785286628282,0.9224785286628282,0.0,0,False
2024-05-31,0.9224785286628282,0.9224785286628282,0.0,0,False
2024-06-01,0.9224785286628282,0.9224785286628282,0.0,0,False
2024-06-02,0.9224785286628282,0.9224785286628282,0.0,0,False
2024-06-03,0.9224785286628282,0.9224785286628282,0.0,0,False
2024-06-04,0.9224785286628282,0.9224785286628282,0.0,0,False
2024-06-05,0.9224785286628282,0.9224785286628282,0.0,0,False
2024-06-06,0.9224785286628282,0.9224785286628282,0.0,0,False
2024-06-07,0.9224785286628282,0.9224785286628282,0.0,0,False
2024-06-08,0.9224785286628282,0.9224785286628282,0.0,0,False
2024-06-09,0.9224785286628282,0.9224785286628282,0.0,0,False
2024-06-10,0.9224785286628282,0.9224785286628282,0.0,0,False
2024-06-11,0.9224785286628282,0.9224785286628282,0.0,0,False
2024-06-12,0.9224785286628282,0.9224785286628282,0.0,0,False
2024-06-13,0.9224785286628282,0.9224785286628282,0.0,0,False
2024-06-14,0.9224785286628282,0.9224785286628282,0.0,0,False
2024-06-15,0.9224785286628282,0.9224785286628282,0.0,0,False
2024-06-16,0.9224785286628282,0.9224785286628282,0.0,0,False
2024-06-17,0.9224785286628282,0.9224785286628282,0.0,0,False
2024-06-18,0.9224785286628282,0.9224785286628282,0.0,0,False
2024-06-19,0.9224785286628282,0.9224785286628282,0.0,0,False
2024-06-20,0.9224785286628282,0.9224785286628282,0.0,0,False
2024-06-21,0.9224785286628282,0.9224785286628282,0.0,0,False
2024-06-22,0.9224785286628282,0.9224785286628282,0.0,0,False
2024-06-23,0.9224785286628282,0.9224785286628282,0.0,0,False
2024-06-24,0.9224785286628282,0.9224785286628282,0.0,0,False
2024-06-25,0.9224785286628282,0.9224785286628282,0.0,0,False
2024-06-26,0.9224785286628282,0.9224785286628282,0.0,0,False
2024-06-27,0.9224785286628282,0.9224785286628282,0.0,0,False
2024-06-28,0.9224785286628282,0.9224785286628282,0.0,0,False
2024-06-29,0.9224785286628282,0.9224785286628282,0.0,0,False
2024-06-30,0.9224785286628282,0.9224785286628282,0.0,0,False
2024-07-01,0.9224785286628282,0.9224785286628282,0.0,0,False
2024-07-02,0.9224785286628282,0.9224785286628282,0.0,0,False
2024-07-03,0.9224785286628282,0.9224785286628282,0.0,0,False
2024-07-04,0.9224785286628282,0.9224785286628282,0.0,0,False
2024-07-05,0.9224785286628282,0.9224785286628282,0.0,0,False
2024-07-06,0.9224785286628282,0.9224785286628282,0.0,0,False
2024-07-07,0.9224785286628282,0.9224785286628282,0.0,0,False
2024-07-08,0.9224785286628282,0.9224785286628282,0.0,0,False
2024-07-09,0.9224785286628282,0.9224785286628282,0.0,0,False
2024-07-10,0.9224785286628282,0.9224785286628282,0.0,0,False
2024-07-11,0.9224785286628282,0.9224785286628282,0.0,0,False
2024-07-12,0.9224785286628282,0.9224785286628282,0.0,0,False
2024-07-13,0.9224785286628282,0.9224785286628282,0.0,0,False
2024-07-14,0.9224785286628282,0.9224785286628282,0.0,0,False
2024-07-15,0.9224785286628282,0.9224785286628282,0.0,0,False
2024-07-16,0.9224785286628282,0.9224785286628282,0.0,0,False
2024-07-17,0.9224785286628282,0.9224785286628282,0.0,0,False
2024-07-18,0.9224785286628282,0.9224785286628282,0.0,0,False
2024-07-19,0.9224785286628282,0.9224785286628282,0.0,0,False
2024-07-20,0.9224785286628282,0.9224785286628282,0.0,0,False
2024-07-21,0.9224785286628282,0.9224785286628282,0.0,0,False
2024-07-22,0.9224785286628282,0.9224785286628282,0.0,0,False
2024-07-23,0.9224785286628282,0.9224785286628282,0.0,0,False
2024-07-24,0.9224785286628282,0.9224785286628282,0.0,0,False
2024-07-25,0.9224785286628282,0.9224785286628282,0.0,0,False
2024-07-26,0.9224785286628282,0.9224785286628282,0.0,0,False
2024-07-27,0.9224785286628282,0.9224785286628282,0.0,0,False
2024-07-28,0.9224785286628282,0.9224785286628282,0.0,0,False
2024-07-29,0.9224785286628282,0.9224785286628282,0.0,0,False
2024-07-30,0.9224785286628282,0.9224785286628282,0.0,0,False
2024-07-31,0.9224785286628282,0.9224785286628282,0.0,0,False
2024-08-01,0.9224785286628282,0.9224785286628282,0.0,0,False
2024-08-02,0.9224785286628282,0.9224785286628282,0.0,0,False
2024-08-03,0.9224785286628282,0.9224785286628282,0.0,0,False
2024-08-04,0.9224785286628282,0.9224785286628282,0.0,0,False
2024-08-05,0.9224785286628282,0.9224785286628282,0.0,0,False
2024-08-06,0.9224785286628282,0.9224785286628282,0.0,0,False
2024-08-07,0.9224785286628282,0.9224785286628282,0.0,0,False
2024-08-08,0.9224785286628282,0.9224785286628282,0.0,0,False
2024-08-09,0.9224785286628282,0.9224785286628282,0.0,0,False
2024-08-10,0.9224785286628282,0.9224785286628282,0.0,0,False
2024-08-11,0.9224785286628282,0.9224785286628282,0.0,0,False
2024-08-12,0.9224785286628282,0.9224785286628282,0.0,0,False
2024-08-13,0.9224785286628282,0.9224785286628282,0.0,0,False
2024-08-14,0.9224785286628282,0.9224785286628282,0.0,0,False
2024-08-15,0.9224785286628282,0.9224785286628282,0.0,0,False
2024-08-16,0.9224785286628282,0.9224785286628282,0.0,0,False
2024-08-17,0.9224785286628282,0.9224785286628282,0.0,0,False
2024-08-18,0.9224785286628282,0.9224785286628282,0.0,0,False
2024-08-19,0.9224785286628282,0.9224785286628282,0.0,0,False
2024-08-20,0.9224785286628282,0.9224785286628282,0.0,0,False
2024-08-21,0.9224785286628282,0.9224785286628282,0.0,0,False
2024-08-22,0.9224785286628282,0.9224785286628282,0.0,0,False
2024-08-23,0.9224785286628282,0.9224785286628282,0.0,0,False
2024-08-24,0.9224785286628282,0.9224785286628282,0.0,0,False
2024-08-25,0.9224785286628282,0.9224785286628282,0.0,0,False
2024-08-26,0.9224785286628282,0.9224785286628282,0.0,0,False
2024-08-27,0.9224785286628282,0.9224785286628282,0.0,0,False
2024-08-28,0.9224785286628282,0.9224785286628282,0.0,0,False
2024-08-29,0.9224785286628282,0.9224785286628282,0.0,0,False
2024-08-30,0.9224785286628282,0.9224785286628282,0.0,0,False
2024-08-31,0.9224785286628282,0.9224785286628282,0.0,0,False
2024-09-01,0.9224785286628282,0.9224785286628282,0.0,0,False
2024-09-02,0.9224785286628282,0.9224785286628282,0.0,0,False
2024-09-03,0.9224785286628282,0.9224785286628282,0.0,0,False
2024-09-04,0.9224785286628282,0.9224785286628282,0.0,0,False
2024-09-05,0.9224785286628282,0.9224785286628282,0.0,0,False
2024-09-06,0.9224785286628282,0.9224785286628282,0.0,0,False
2024-09-07,0.9224785286628282,0.9224785286628282,0.0,0,False
2024-09-08,0.9224785286628282,0.9224785286628282,0.0,0,False
2024-09-09,0.9224785286628282,0.9224785286628282,0.0,0,False
2024-09-10,0.9224785286628282,0.9224785286628282,0.0,0,False
2024-09-11,0.9224785286628282,0.9224785286628282,0.0,0,False
2024-09-12,0.9224785286628282,0.9224785286628282,0.0,0,False
2024-09-13,0.9224785286628282,0.9224785286628282,0.0,0,False
2024-09-14,0.9224785286628282,0.9224785286628282,0.0,0,False
2024-09-15,0.9224785286628282,0.9224785286628282,0.0,0,False
2024-09-16,0.9224785286628282,0.9224785286628282,0.0,0,False
2024-09-17,0.9224785286628282,0.9224785286628282,0.0,0,False
2024-09-18,0.9224785286628282,0.9224785286628282,0.0,0,False
2024-09-19,0.9224785286628282,0.9224785286628282,0.0,0,False
2024-09-20,0.9224785286628282,0.9224785286628282,0.0,0,False
2024-09-21,0.9224785286628282,0.9224785286628282,0.0,0,False
2024-09-22,0.9224785286628282,0.9224785286628282,0.0,0,False
2024-09-23,0.9224785286628282,0.9224785286628282,0.0,0,False
2024-09-24,0.9224785286628282,0.9224785286628282,0.0,0,False
2024-09-25,0.9224785286628282,0.9224785286628282,0.0,0,False
2024-09-26,0.9224785286628282,0.9224785286628282,0.0,0,False
2024-09-27,0.9224785286628282,0.9224785286628282,0.0,0,False
2024-09-28,0.9224785286628282,0.9224785286628282,0.0,0,False
2024-09-29,0.9224785286628282,0.9224785286628282,0.0,0,False
2024-09-30,0.9224785286628282,0.9224785286628282,0.0,0,False
2024-10-01,0.9224785286628282,0.9224785286628282,0.0,0,False
2024-10-02,0.9224785286628282,0.9224785286628282,0.0,0,False
2024-10-03,0.9224785286628282,0.9224785286628282,0.0,0,False
2024-10-04,0.9224785286628282,0.9224785286628282,0.0,0,False
2024-10-05,0.9224785286628282,0.9224785286628282,0.0,0,False
2024-10-06,0.9224785286628282,0.9224785286628282,0.0,0,False
2024-10-07,0.9224785286628282,0.9224785286628282,0.0,0,False
2024-10-08,0.9224785286628282,0.9224785286628282,0.0,0,False
2024-10-09,0.9224785286628282,0.9224785286628282,0.0,0,False
2024-10-10,0.9224785286628282,0.9224785286628282,0.0,0,False
2024-10-11,0.9224785286628282,0.9224785286628282,0.0,0,False
2024-10-12,0.9224785286628282,0.9224785286628282,0.0,0,False
2024-10-13,0.9224785286628282,0.9224785286628282,0.0,0,False
2024-10-14,0.9224785286628282,0.9224785286628282,0.0,0,False
2024-10-15,0.9224785286628282,0.9224785286628282,0.0,0,False
2024-10-16,0.9224785286628282,0.9224785286628282,0.0,0,False
2024-10-17,0.9224785286628282,0.9224785286628282,0.0,0,False
2024-10-18,0.9224785286628282,0.9224785286628282,0.0,0,False
2024-10-19,0.9224785286628282,0.9224785286628282,0.0,0,False
2024-10-20,0.9224785286628282,0.9224785286628282,0.0,0,False
2024-10-21,0.9224785286628282,0.9224785286628282,0.0,0,False
2024-10-22,0.9224785286628282,0.9224785286628282,0.0,0,False
2024-10-23,0.9224785286628282,0.9224785286628282,0.0,0,False
2024-10-24,0.9224785286628282,0.9224785286628282,0.0,0,False
2024-10-25,0.9224785286628282,0.9224785286628282,0.0,0,False
2024-10-26,0.9224785286628282,0.9224785286628282,0.0,0,False
2024-10-27,0.9224785286628282,0.9224785286628282,0.0,0,False
2024-10-28,0.9224785286628282,0.9224785286628282,0.0,0,False
2024-10-29,0.9224785286628282,0.9224785286628282,0.0,0,False
2024-10-30,0.9224785286628282,0.9224785286628282,0.0,0,False
2024-10-31,0.9224785286628282,0.9224785286628282,0.0,0,False
2024-11-01,0.9224785286628282,0.9224785286628282,0.0,0,False
2024-11-02,0.9224785286628282,0.9224785286628282,0.0,0,False
2024-11-03,0.9224785286628282,0.9224785286628282,0.0,0,False
2024-11-04,0.9224785286628282,0.9224785286628282,0.0,0,False
2024-11-05,0.9224785286628282,0.9224785286628282,0.0,0,False
2024-11-06,0.9224785286628282,0.9224785286628282,0.0,0,False
2024-11-07,0.9224785286628282,0.9224785286628282,0.0,0,False
2024-11-08,0.9224785286628282,0.9224785286628282,0.0,0,False
2024-11-09,0.9224785286628282,0.9224785286628282,0.0,0,False
2024-11-10,0.9224785286628282,0.9224785286628282,0.0,0,False
2024-11-11,0.9224785286628282,0.9224785286628282,0.0,0,False
2024-11-12,0.9224785286628282,0.9224785286628282,0.0,0,False
2024-11-13,0.9224785286628282,0.9224785286628282,0.0,0,False
2024-11-14,0.9224785286628282,0.9224785286628282,0.0,0,False
2024-11-15,0.9224785286628282,0.9224785286628282,0.0,0,False
2024-11-16,0.9224785286628282,0.9224785286628282,0.0,0,False
2024-11-17,0.9224785286628282,0.9224785286628282,0.0,0,False
2024-11-18,0.9224785286628282,0.9224785286628282,0.0,0,False
2024-11-19,0.9224785286628282,0.9224785286628282,0.0,0,False
2024-11-20,0.9224785286628282,0.9224785286628282,0.0,0,False
2024-11-21,0.9224785286628282,0.9224785286628282,0.0,0,False
2024-11-22,0.9224785286628282,0.9224785286628282,0.0,0,False
2024-11-23,0.9224785286628282,0.9224785286628282,0.0,0,False
2024-11-24,0.9224785286628282,0.9224785286628282,0.0,0,False
2024-11-25,0.9224785286628282,0.9224785286628282,0.0,0,False
2024-11-26,0.9224785286628282,0.9224785286628282,0.0,0,False
2024-11-27,0.9224785286628282,0.9224785286628282,0.0,0,False
2024-11-28,0.9224785286628282,0.9224785286628282,0.0,0,False
2024-11-29,0.9224785286628282,0.9224785286628282,0.0,0,False
2024-11-30,0.9224785286628282,0.9224785286628282,0.0,0,False
2024-12-01,0.9224785286628282,0.9224785286628282,0.0,0,False
2024-12-02,0.9224785286628282,0.9224785286628282,0.0,0,False
2024-12-03,0.9224785286628282,0.9224785286628282,0.0,0,False
2024-12-04,0.9224785286628282,0.9224785286628282,0.0,0,False
2024-12-05,0.9224785286628282,0.9224785286628282,0.0,0,False
2024-12-06,0.9224785286628282,0.9224785286628282,0.0,0,False
2024-12-07,0.9224785286628282,0.9224785286628282,0.0,0,False
2024-12-08,0.9224785286628282,0.9224785286628282,0.0,0,False
2024-12-09,0.9224785286628282,0.9224785286628282,0.0,0,False
2024-12-10,0.9224785286628282,0.9224785286628282,0.0,0,False
2024-12-11,0.9224785286628282,0.9224785286628282,0.0,0,False
2024-12-12,0.9224785286628282,0.9224785286628282,0.0,0,False
2024-12-13,0.9224785286628282,0.9224785286628282,0.0,0,False
2024-12-14,0.9224785286628282,0.9224785286628282,0.0,0,False
2024-12-15,0.9224785286628282,0.9224785286628282,0.0,0,False
2024-12-16,0.9224785286628282,0.9224785286628282,0.0,0,False
2024-12-17,0.9224785286628282,0.9224785286628282,0.0,0,False
2024-12-18,0.9224785286628282,0.9224785286628282,0.0,0,False
2024-12-19,0.9224785286628282,0.9224785286628282,0.0,0,False
2024-12-20,0.9224785286628282,0.9224785286628282,0.0,0,False
2024-12-21,0.9224785286628282,0.9224785286628282,0.0,0,False
2024-12-22,0.9224785286628282,0.9224785286628282,0.0,0,False
2024-12-23,0.9224785286628282,0.9224785286628282,0.0,0,False
2024-12-24,0.9224785286628282,0.9224785286628282,0.0,0,False
2024-12-25,0.9224785286628282,0.9224785286628282,0.0,0,False
2024-12-26,0.9224785286628282,0.9224785286628282,0.0,0,False
2024-12-27,0.9224785286628282,0.9224785286628282,0.0,0,False
2024-12-28,0.9224785286628282,0.9224785286628282,0.0,0,False
2024-12-29,0.9224785286628282,0.9224785286628282,0.0,0,False
2024-12-30,0.9224785286628282,0.9224785286628282,0.0,0,False
2024-12-31,0.9224785286628282,0.9224785286628282,0.0,0,False
