day,start_equity,end_equity,return_pct,entries,active
2021-09-02,1.0,1.0,0.0,0,False
2021-09-03,1.0,1.0,0.0,0,False
2021-09-04,1.0,1.0,0.0,0,False
2021-09-05,1.0,1.0,0.0,0,False
2021-09-06,1.0,1.0,0.0,0,False
2021-09-07,1.0,1.0,0.0,0,False
2021-09-08,1.0,1.0,0.0,0,False
2021-09-09,1.0,1.0,0.0,0,False
2021-09-10,1.0,1.0,0.0,0,False
2021-09-11,1.0,1.0,0.0,0,False
2021-09-12,1.0,1.0,0.0,0,False
2021-09-13,1.0,1.0,0.0,0,False
2021-09-14,1.0,1.0,0.0,0,False
2021-09-15,1.0,1.0,0.0,0,False
2021-09-16,1.0,1.0,0.0,0,False
2021-09-17,1.0,1.0,0.0,0,False
2021-09-18,1.0,1.0,0.0,0,False
2021-09-19,1.0,1.0,0.0,0,False
2021-09-20,1.0,1.0,0.0,0,False
2021-09-21,1.0,1.0,0.0,0,False
2021-09-22,1.0,1.0,0.0,0,False
2021-09-23,1.0,1.0,0.0,0,False
2021-09-24,1.0,1.0,0.0,0,False
2021-09-25,1.0,1.0,0.0,0,False
2021-09-26,1.0,1.0,0.0,0,False
2021-09-27,1.0,1.0,0.0,0,False
2021-09-28,1.0,1.0,0.0,0,False
2021-09-29,1.0,1.0,0.0,0,False
2021-09-30,1.0,1.0,0.0,0,False
2021-10-01,1.0,1.0,0.0,0,False
2021-10-02,1.0,1.0,0.0,0,False
2021-10-03,1.0,1.0,0.0,0,False
2021-10-04,1.0,1.0,0.0,0,False
2021-10-05,1.0,1.0,0.0,0,False
2021-10-06,1.0,1.001489821323389,0.1489821323388929,1,True
2021-10-07,1.001489821323389,1.0006266840307554,-0.08618532852315841,0,True
2021-10-08,1.0006266840307554,1.0006266840307554,0.0,0,False
2021-10-09,1.0006266840307554,0.9986866545947173,-0.19388144120074946,3,True
2021-10-10,0.9986866545947173,1.0011029499451742,0.24194729541444637,1,True
2021-10-11,1.0011029499451742,0.9973633736513651,-0.3735456272518145,0,True
2021-10-12,0.9973633736513651,0.9973633736513651,0.0,0,False
2021-10-13,0.9973633736513651,1.0110936133521444,1.376653691473817,4,True
2021-10-14,1.0110936133521444,1.0244328406068035,1.319287064867769,0,True
2021-10-15,1.0244328406068035,1.0275945664412545,0.3086318311094072,1,True
2021-10-16,1.0275945664412545,1.0436681398378378,1.5641940821319311,0,True
2021-10-17,1.0436681398378378,1.0436681398378378,0.0,0,False
2021-10-18,1.0436681398378378,1.0427058494593981,-0.09220271671693814,1,True
2021-10-19,1.0427058494593981,1.0448361766498737,0.20430758987111108,0,True
2021-10-20,1.0448361766498737,1.0448361766498737,0.0,0,False
2021-10-21,1.0448361766498737,1.0448361766498737,0.0,0,False
2021-10-22,1.0448361766498737,1.0448361766498737,0.0,0,False
2021-10-23,1.0448361766498737,1.0448361766498737,0.0,0,False
2021-10-24,1.0448361766498737,1.0448361766498737,0.0,0,False
2021-10-25,1.0448361766498737,1.0485201893257912,0.3525923736417358,1,True
2021-10-26,1.0485201893257912,1.0485201893257912,0.0,0,False
2021-10-27,1.0485201893257912,1.0426326053674393,-0.5615136473564375,6,True
2021-10-28,1.0426326053674393,1.045998795374134,0.32285485696166294,0,True
2021-10-29,1.045998795374134,1.045998795374134,0.0,0,False
2021-10-30,1.045998795374134,1.045998795374134,0.0,0,False
2021-10-31,1.045998795374134,1.045998795374134,0.0,0,False
2021-11-01,1.045998795374134,1.047374151683937,0.13148737033783497,1,True
2021-11-02,1.047374151683937,1.0469076720768313,-0.04453801025695592,0,True
2021-11-03,1.0469076720768313,1.0470652448432294,0.015051257202602919,1,True
2021-11-04,1.0470652448432294,1.066729826354878,1.878066491892083,1,True
2021-11-05,1.066729826354878,1.059616517660216,-0.6668332054582948,0,True
2021-11-06,1.059616517660216,1.0565212765193943,-0.2921095593768519,1,True
2021-11-07,1.0565212765193943,1.0567007810458955,0.016990147807760536,0,True
2021-11-08,1.0567007810458955,1.0567007810458955,0.0,0,False
2021-11-09,1.0567007810458955,1.0567007810458955,0.0,0,False
2021-11-10,1.0567007810458955,1.0567007810458955,0.0,0,False
2021-11-11,1.0567007810458955,1.0304519991145418,-2.4840316579848976,5,True
2021-11-12,1.0304519991145418,1.0304519991145418,0.0,0,False
2021-11-13,1.0304519991145418,1.0293797758241297,-0.1040536862787822,1,True
2021-11-14,1.0293797758241297,1.0297156657979998,0.032630325731930476,0,True
2021-11-15,1.0297156657979998,1.0297156657979998,0.0,0,False
2021-11-16,1.0297156657979998,1.0458561236775248,1.5674674490862017,5,True
2021-11-17,1.0458561236775248,1.0311445489702487,-1.4066537809757307,0,True
2021-11-18,1.0311445489702487,1.0284366193396646,-0.2626139694273055,2,True
2021-11-19,1.0284366193396646,1.0322102389013217,0.36692777082170114,1,True
2021-11-20,1.0322102389013217,1.0327401600878556,0.05133849351253161,0,True
2021-11-21,1.0327401600878556,1.0327401600878556,0.0,0,False
2021-11-22,1.0327401600878556,1.027584844037481,-0.4991881065161685,1,True
2021-11-23,1.027584844037481,1.027584844037481,0.0,0,False
2021-11-24,1.027584844037481,1.027584844037481,0.0,0,False
2021-11-25,1.027584844037481,1.0301721221217794,0.2517824293839066,2,True
2021-11-26,1.0301721221217794,1.0070613614313932,-2.243388283774017,2,True
2021-11-27,1.0070613614313932,1.0070613614313932,0.0,0,False
2021-11-28,1.0070613614313932,1.0020347565787744,-0.4991359062246459,1,True
2021-11-29,1.0020347565787744,1.0020347565787744,0.0,0,False
2021-11-30,1.0020347565787744,1.0020347565787744,0.0,0,False
2021-12-01,1.0020347565787744,1.000033663272044,-0.19970298371313477,1,True
2021-12-02,1.000033663272044,0.9980757295373776,-0.19578678264290383,2,True
2021-12-03,0.9980757295373776,0.9929914016888151,-0.5094130333095248,1,True
2021-12-04,0.9929914016888151,0.9586984833712653,-3.4534959979740654,8,True
2021-12-05,0.9586984833712653,0.9573013167775467,-0.14573576760082974,1,True
2021-12-06,0.9573013167775467,0.9512228223736311,-0.6349614585694829,7,True
2021-12-07,0.9512228223736311,0.9600414420305707,0.9270824300592562,0,True
2021-12-08,0.9600414420305707,0.9617715792792818,0.18021485041850305,1,True
2021-12-09,0.9617715792792818,0.960611255865105,-0.12064438575387637,0,True
2021-12-10,0.960611255865105,0.9582117486844463,-0.24978961739291483,1,True
2021-12-11,0.9582117486844463,0.9580794133698496,-0.013810654563395364,1,True
2021-12-12,0.9580794133698496,0.9588462336473551,0.08003723562000076,0,True
2021-12-13,0.9588462336473551,0.9571816263598476,-0.17360523815956874,1,True
2021-12-14,0.9571816263598476,0.9564518750497009,-0.07623958609840331,0,True
2021-12-15,0.9564518750497009,0.9564518750497009,0.0,0,False
2021-12-16,0.9564518750497009,0.9564518750497009,0.0,0,False
2021-12-17,0.9564518750497009,0.9567092454308809,0.026908868903263716,2,True
2021-12-18,0.9567092454308809,0.9595383226570832,0.29570919688646224,0,True
2021-12-19,0.9595383226570832,0.9580783361496163,-0.15215510136415977,1,True
2021-12-20,0.9580783361496163,0.957141226198888,-0.09781141221650858,0,True
2021-12-21,0.957141226198888,0.9558814470584206,-0.1316189404431345,1,True
2021-12-22,0.9558814470584206,0.9561026030507978,0.023136341128671134,0,True
2021-12-23,0.9561026030507978,0.9561026030507978,0.0,0,False
2021-12-24,0.9561026030507978,0.9561026030507978,0.0,0,False
2021-12-25,0.9561026030507978,0.9569572647636333,0.08939016692439683,1,True
2021-12-26,0.9569572647636333,0.9567934309305614,-0.017120287300642634,0,True
2021-12-27,0.9567934309305614,0.9567934309305614,0.0,0,False
2021-12-28,0.9567934309305614,0.9567934309305614,0.0,0,False
2021-12-29,0.9567934309305614,0.9567934309305614,0.0,0,False
2021-12-30,0.9567934309305614,0.9567934309305614,0.0,0,False
2021-12-31,0.9567934309305614,0.9567934309305614,0.0,0,False
2022-01-01,0.9567934309305614,0.9567934309305614,0.0,0,False
2022-01-02,0.9567934309305614,0.9567934309305614,0.0,0,False
2022-01-03,0.9567934309305614,0.9567934309305614,0.0,0,False
2022-01-04,0.9567934309305614,0.9567934309305614,0.0,0,False
2022-01-05,0.9567934309305614,0.9574952165796725,0.07334766590407771,1,True
2022-01-06,0.9574952165796725,0.9496908714149687,-0.8150792849474731,9,True
2022-01-07,0.9496908714149687,0.955432884234361,0.6046191442102833,4,True
2022-01-08,0.955432884234361,0.9558654824053066,0.0452777142260663,0,True
2022-01-09,0.9558654824053066,0.9561944521826522,0.03441590719626131,1,True
2022-01-10,0.9561944521826522,0.9569234718049,0.07624177494272022,0,True
2022-01-11,0.9569234718049,0.9569234718049,0.0,0,False
2022-01-12,0.9569234718049,0.9569234718049,0.0,0,False
2022-01-13,0.9569234718049,0.9569234718049,0.0,0,False
2022-01-14,0.9569234718049,0.9569234718049,0.0,0,False
2022-01-15,0.9569234718049,0.9571542455111353,0.02411621336866343,1,True
2022-01-16,0.9571542455111353,0.9566565197468673,-0.05200058053361767,0,True
2022-01-17,0.9566565197468673,0.957726837149777,0.11188105457045072,1,True
2022-01-18,0.957726837149777,0.9607150086498251,0.3120066582806613,0,True
2022-01-19,0.9607150086498251,0.9607150086498251,0.0,0,False
2022-01-20,0.9607150086498251,0.9607150086498251,0.0,0,False
2022-01-21,0.9607150086498251,0.9451475047536478,-1.6204081081293342,7,True
2022-01-22,0.9451475047536478,0.9340151782540177,-1.1778401195199462,8,True
2022-01-23,0.9340151782540177,0.9386598945894944,0.49728488825622197,0,True
2022-01-24,0.9386598945894944,0.9358609207806177,-0.29818828150751653,2,True
2022-01-25,0.9358609207806177,0.9435835495856989,0.8251897940817488,0,True
2022-01-26,0.9435835495856989,0.9435835495856989,0.0,0,False
2022-01-27,0.9435835495856989,0.950392087547353,0.7215617487867032,4,True
2022-01-28,0.950392087547353,0.9440493556822946,-0.6673805420062906,0,True
2022-01-29,0.9440493556822946,0.9440493556822946,0.0,0,False
2022-01-30,0.9440493556822946,0.9474385063521858,0.3590014282083498,1,True
2022-01-31,0.9474385063521858,0.9468100651967254,-0.06633054823579343,0,True
2022-02-01,0.9468100651967254,0.9468100651967254,0.0,0,False
2022-02-02,0.9468100651967254,0.9468100651967254,0.0,0,False
2022-02-03,0.9468100651967254,0.945600095770933,-0.12779431379841277,3,True
2022-02-04,0.945600095770933,0.9486242041344893,0.3198083816913,0,True
2022-02-05,0.9486242041344893,0.9486242041344893,0.0,0,False
2022-02-06,0.9486242041344893,0.9486242041344893,0.0,0,False
2022-02-07,0.9486242041344893,0.9486242041344893,0.0,0,False
2022-02-08,0.9486242041344893,0.9486242041344893,0.0,0,False
2022-02-09,0.9486242041344893,0.9498938365967028,0.13383934931028296,2,True
2022-02-10,0.9498938365967028,0.9508265745488806,0.09819391559795498,5,True
2022-02-11,0.9508265745488806,0.9462776390868228,-0.47841904967960147,0,True
2022-02-12,0.9462776390868228,0.9368404386883497,-0.9972971999613445,4,True
2022-02-13,0.9368404386883497,0.9368404386883497,0.0,0,False
2022-02-14,0.9368404386883497,0.9368404386883497,0.0,0,False
2022-02-15,0.9368404386883497,0.9368404386883497,0.0,0,False
2022-02-16,0.9368404386883497,0.9368404386883497,0.0,0,False
2022-02-17,0.9368404386883497,0.9368404386883497,0.0,0,False
2022-02-18,0.9368404386883497,0.9368404386883497,0.0,0,False
2022-02-19,0.9368404386883497,0.9368404386883497,0.0,0,False
2022-02-20,0.9368404386883497,0.9368404386883497,0.0,0,False
2022-02-21,0.9368404386883497,0.9368404386883497,0.0,0,False
2022-02-22,0.9368404386883497,0.9361438184608242,-0.07435847117154282,2,True
2022-02-23,0.9361438184608242,0.9357452033371579,-0.04258054326755634,0,True
2022-02-24,0.9357452033371579,0.9264181030719129,-0.9967564067634771,4,True
2022-02-25,0.9264181030719129,0.9264181030719129,0.0,0,False
2022-02-26,0.9264181030719129,0.9264181030719129,0.0,0,False
2022-02-27,0.9264181030719129,0.9264181030719129,0.0,0,False
2022-02-28,0.9264181030719129,0.9275994601943808,0.12751878644756687,1,True
2022-03-01,0.9275994601943808,0.9290101022370819,0.15207447861229628,0,True
2022-03-02,0.9290101022370819,0.9290101022370819,0.0,0,False
2022-03-03,0.9290101022370819,0.9290101022370819,0.0,0,False
2022-03-04,0.9290101022370819,0.9281619895232394,-0.09129208733040794,1,True
2022-03-05,0.9281619895232394,0.9278438241840962,-0.03427907442176137,0,True
2022-03-06,0.9278438241840962,0.9248623838804658,-0.321329972342288,3,True
2022-03-07,0.9248623838804658,0.9222585553838789,-0.28153685802010386,0,True
2022-03-08,0.9222585553838789,0.9228153297101809,0.060370741268989114,1,True
2022-03-09,0.9228153297101809,0.9271311575959218,0.4676805582647159,1,True
2022-03-10,0.9271311575959218,0.9259880644749705,-0.12329357195969282,3,True
2022-03-11,0.9259880644749705,0.9238911057899273,-0.2264563405827702,0,True
2022-03-12,0.9238911057899273,0.9238911057899273,0.0,0,False
2022-03-13,0.9238911057899273,0.9238911057899273,0.0,0,False
2022-03-14,0.9238911057899273,0.9215857090656978,-0.24953121745429074,1,True
2022-03-15,0.9215857090656978,0.9220888433866845,0.05459441439221724,1,True
2022-03-16,0.9220888433866845,0.9237647019672193,0.18174589059982704,1,True
2022-03-17,0.9237647019672193,0.9244412318193443,0.07323616616703443,1,True
2022-03-18,0.9244412318193443,0.923988852035631,-0.04893548320243912,0,True
2022-03-19,0.923988852035631,0.923988852035631,0.0,0,False
2022-03-20,0.923988852035631,0.9216811425261696,-0.24975512468329297,1,True
2022-03-21,0.9216811425261696,0.9217149223829822,0.0036650263582460596,3,True
2022-03-22,0.9217149223829822,0.9198374961912072,-0.2036883797998157,0,True
2022-03-23,0.9198374961912072,0.9198374961912072,0.0,0,False
2022-03-24,0.9198374961912072,0.9198374961912072,0.0,0,False
2022-03-25,0.9198374961912072,0.9198374961912072,0.0,0,False
2022-03-26,0.9198374961912072,0.9198374961912072,0.0,0,False
2022-03-27,0.9198374961912072,0.9198374961912072,0.0,0,False
2022-03-28,0.9198374961912072,0.9198374961912072,0.0,0,False
2022-03-29,0.9198374961912072,0.9198374961912072,0.0,0,False
2022-03-30,0.9198374961912072,0.9236187831955369,0.411082068298696,4,True
2022-03-31,0.9236187831955369,0.9267457665933713,0.33855779621714266,5,True
2022-04-01,0.9267457665933713,0.9161025386343536,-1.1484517483301926,0,True
2022-04-02,0.9161025386343536,0.9161025386343536,0.0,0,False
2022-04-03,0.9161025386343536,0.9138161151938203,-0.24958160731021195,1,True
2022-04-04,0.9138161151938203,0.9138161151938203,0.0,0,False
2022-04-05,0.9138161151938203,0.9138276864003144,0.0012662510872507582,3,True
2022-04-06,0.9138276864003144,0.9068427040359957,-0.7643653686871255,5,True
2022-04-07,0.9068427040359957,0.9068427040359957,0.0,0,False
2022-04-08,0.9068427040359957,0.9068427040359957,0.0,0,False
2022-04-09,0.9068427040359957,0.9068427040359957,0.0,0,False
2022-04-10,0.9068427040359957,0.9068427040359957,0.0,0,False
2022-04-11,0.9068427040359957,0.9068427040359957,0.0,0,False
2022-04-12,0.9068427040359957,0.9068427040359957,0.0,0,False
2022-04-13,0.9068427040359957,0.9068427040359957,0.0,0,False
2022-04-14,0.9068427040359957,0.9068427040359957,0.0,0,False
2022-04-15,0.9068427040359957,0.9068427040359957,0.0,0,False
2022-04-16,0.9068427040359957,0.9068427040359957,0.0,0,False
2022-04-17,0.9068427040359957,0.9068427040359957,0.0,0,False
2022-04-18,0.9068427040359957,0.9068427040359957,0.0,0,False
2022-04-19,0.9068427040359957,0.9068427040359957,0.0,0,False
2022-04-20,0.9068427040359957,0.9068427040359957,0.0,0,False
2022-04-21,0.9068427040359957,0.9068427040359957,0.0,0,False
2022-04-22,0.9068427040359957,0.9068427040359957,0.0,0,False
2022-04-23,0.9068427040359957,0.9068427040359957,0.0,0,False
2022-04-24,0.9068427040359957,0.9068427040359957,0.0,0,False
2022-04-25,0.9068427040359957,0.9068427040359957,0.0,0,False
2022-04-26,0.9068427040359957,0.9068427040359957,0.0,0,False
2022-04-27,0.9068427040359957,0.9068427040359957,0.0,0,False
2022-04-28,0.9068427040359957,0.9068427040359957,0.0,0,False
2022-04-29,0.9068427040359957,0.9068427040359957,0.0,0,False
2022-04-30,0.9068427040359957,0.9068427040359957,0.0,0,False
2022-05-01,0.9068427040359957,0.9068427040359957,0.0,0,False
2022-05-02,0.9068427040359957,0.9068427040359957,0.0,0,False
2022-05-03,0.9068427040359957,0.9068427040359957,0.0,0,False
2022-05-04,0.9068427040359957,0.9068427040359957,0.0,0,False
2022-05-05,0.9068427040359957,0.9068427040359957,0.0,0,False
2022-05-06,0.9068427040359957,0.9068427040359957,0.0,0,False
2022-05-07,0.9068427040359957,0.9068427040359957,0.0,0,False
2022-05-08,0.9068427040359957,0.9068427040359957,0.0,0,False
2022-05-09,0.9068427040359957,0.9068427040359957,0.0,0,False
2022-05-10,0.9068427040359957,0.9068427040359957,0.0,0,False
2022-05-11,0.9068427040359957,0.9068427040359957,0.0,0,False
2022-05-12,0.9068427040359957,0.9068427040359957,0.0,0,False
2022-05-13,0.9068427040359957,0.9068427040359957,0.0,0,False
2022-05-14,0.9068427040359957,0.9068427040359957,0.0,0,False
2022-05-15,0.9068427040359957,0.9068427040359957,0.0,0,False
2022-05-16,0.9068427040359957,0.9068427040359957,0.0,0,False
2022-05-17,0.9068427040359957,0.9068427040359957,0.0,0,False
2022-05-18,0.9068427040359957,0.9068427040359957,0.0,0,False
2022-05-19,0.9068427040359957,0.9068427040359957,0.0,0,False
2022-05-20,0.9068427040359957,0.9068427040359957,0.0,0,False
2022-05-21,0.9068427040359957,0.9068427040359957,0.0,0,False
2022-05-22,0.9068427040359957,0.9068427040359957,0.0,0,False
2022-05-23,0.9068427040359957,0.9068427040359957,0.0,0,False
2022-05-24,0.9068427040359957,0.9068427040359957,0.0,0,False
2022-05-25,0.9068427040359957,0.9068427040359957,0.0,0,False
2022-05-26,0.9068427040359957,0.9068427040359957,0.0,0,False
2022-05-27,0.9068427040359957,0.9068427040359957,0.0,0,False
2022-05-28,0.9068427040359957,0.9068427040359957,0.0,0,False
2022-05-29,0.9068427040359957,0.9068427040359957,0.0,0,False
2022-05-30,0.9068427040359957,0.9068427040359957,0.0,0,False
2022-05-31,0.9068427040359957,0.9068427040359957,0.0,0,False
2022-06-01,0.9068427040359957,0.9068427040359957,0.0,0,False
2022-06-02,0.9068427040359957,0.9068427040359957,0.0,0,False
2022-06-03,0.9068427040359957,0.9068427040359957,0.0,0,False
2022-06-04,0.9068427040359957,0.9068427040359957,0.0,0,False
2022-06-05,0.9068427040359957,0.9068427040359957,0.0,0,False
2022-06-06,0.9068427040359957,0.9068427040359957,0.0,0,False
2022-06-07,0.9068427040359957,0.9068427040359957,0.0,0,False
2022-06-08,0.9068427040359957,0.9068427040359957,0.0,0,False
2022-06-09,0.9068427040359957,0.9068427040359957,0.0,0,False
2022-06-10,0.9068427040359957,0.9068427040359957,0.0,0,False
2022-06-11,0.9068427040359957,0.9068427040359957,0.0,0,False
2022-06-12,0.9068427040359957,0.9068427040359957,0.0,0,False
2022-06-13,0.9068427040359957,0.9068427040359957,0.0,0,False
2022-06-14,0.9068427040359957,0.9068427040359957,0.0,0,False
2022-06-15,0.9068427040359957,0.9068427040359957,0.0,0,False
2022-06-16,0.9068427040359957,0.9068427040359957,0.0,0,False
2022-06-17,0.9068427040359957,0.9068427040359957,0.0,0,False
2022-06-18,0.9068427040359957,0.9068427040359957,0.0,0,False
2022-06-19,0.9068427040359957,0.9068427040359957,0.0,0,False
2022-06-20,0.9068427040359957,0.9068427040359957,0.0,0,False
2022-06-21,0.9068427040359957,0.9068427040359957,0.0,0,False
2022-06-22,0.9068427040359957,0.9068427040359957,0.0,0,False
2022-06-23,0.9068427040359957,0.9068427040359957,0.0,0,False
2022-06-24,0.9068427040359957,0.9068427040359957,0.0,0,False
2022-06-25,0.9068427040359957,0.9068427040359957,0.0,0,False
2022-06-26,0.9068427040359957,0.9068427040359957,0.0,0,False
2022-06-27,0.9068427040359957,0.9068427040359957,0.0,0,False
2022-06-28,0.9068427040359957,0.9068427040359957,0.0,0,False
2022-06-29,0.9068427040359957,0.9068427040359957,0.0,0,False
2022-06-30,0.9068427040359957,0.9068427040359957,0.0,0,False
2022-07-01,0.9068427040359957,0.9068427040359957,0.0,0,False
2022-07-02,0.9068427040359957,0.9068427040359957,0.0,0,False
2022-07-03,0.9068427040359957,0.9068427040359957,0.0,0,False
2022-07-04,0.9068427040359957,0.9068427040359957,0.0,0,False
2022-07-05,0.9068427040359957,0.9068427040359957,0.0,0,False
2022-07-06,0.9068427040359957,0.9068427040359957,0.0,0,False
2022-07-07,0.9068427040359957,0.9068427040359957,0.0,0,False
2022-07-08,0.9068427040359957,0.9068427040359957,0.0,0,False
2022-07-09,0.9068427040359957,0.9068427040359957,0.0,0,False
2022-07-10,0.9068427040359957,0.9068427040359957,0.0,0,False
2022-07-11,0.9068427040359957,0.9068427040359957,0.0,0,False
2022-07-12,0.9068427040359957,0.9068427040359957,0.0,0,False
2022-07-13,0.9068427040359957,0.9068427040359957,0.0,0,False
2022-07-14,0.9068427040359957,0.9068427040359957,0.0,0,False
2022-07-15,0.9068427040359957,0.9068427040359957,0.0,0,False
2022-07-16,0.9068427040359957,0.9068427040359957,0.0,0,False
2022-07-17,0.9068427040359957,0.9068427040359957,0.0,0,False
2022-07-18,0.9068427040359957,0.9068427040359957,0.0,0,False
2022-07-19,0.9068427040359957,0.9068427040359957,0.0,0,False
2022-07-20,0.9068427040359957,0.9068427040359957,0.0,0,False
2022-07-21,0.9068427040359957,0.9068427040359957,0.0,0,False
2022-07-22,0.9068427040359957,0.9068427040359957,0.0,0,False
2022-07-23,0.9068427040359957,0.9068427040359957,0.0,0,False
2022-07-24,0.9068427040359957,0.9068427040359957,0.0,0,False
2022-07-25,0.9068427040359957,0.9068427040359957,0.0,0,False
2022-07-26,0.9068427040359957,0.9068427040359957,0.0,0,False
2022-07-27,0.9068427040359957,0.9068427040359957,0.0,0,False
2022-07-28,0.9068427040359957,0.9068427040359957,0.0,0,False
2022-07-29,0.9068427040359957,0.9068427040359957,0.0,0,False
2022-07-30,0.9068427040359957,0.9068427040359957,0.0,0,False
2022-07-31,0.9068427040359957,0.9068427040359957,0.0,0,False
2022-08-01,0.9068427040359957,0.9068427040359957,0.0,0,False
2022-08-02,0.9068427040359957,0.9068427040359957,0.0,0,False
2022-08-03,0.9068427040359957,0.9068427040359957,0.0,0,False
2022-08-04,0.9068427040359957,0.9068427040359957,0.0,0,False
2022-08-05,0.9068427040359957,0.9068427040359957,0.0,0,False
2022-08-06,0.9068427040359957,0.9068427040359957,0.0,0,False
2022-08-07,0.9068427040359957,0.9068427040359957,0.0,0,False
2022-08-08,0.9068427040359957,0.9068427040359957,0.0,0,False
2022-08-09,0.9068427040359957,0.9068427040359957,0.0,0,False
2022-08-10,0.9068427040359957,0.9068427040359957,0.0,0,False
2022-08-11,0.9068427040359957,0.9068427040359957,0.0,0,False
2022-08-12,0.9068427040359957,0.9068427040359957,0.0,0,False
2022-08-13,0.9068427040359957,0.9068427040359957,0.0,0,False
2022-08-14,0.9068427040359957,0.9068427040359957,0.0,0,False
2022-08-15,0.9068427040359957,0.9068427040359957,0.0,0,False
2022-08-16,0.9068427040359957,0.9068427040359957,0.0,0,False
2022-08-17,0.9068427040359957,0.9068427040359957,0.0,0,False
2022-08-18,0.9068427040359957,0.9068427040359957,0.0,0,False
2022-08-19,0.9068427040359957,0.9068427040359957,0.0,0,False
2022-08-20,0.9068427040359957,0.9068427040359957,0.0,0,False
2022-08-21,0.9068427040359957,0.9068427040359957,0.0,0,False
2022-08-22,0.9068427040359957,0.9068427040359957,0.0,0,False
2022-08-23,0.9068427040359957,0.9068427040359957,0.0,0,False
2022-08-24,0.9068427040359957,0.9068427040359957,0.0,0,False
2022-08-25,0.9068427040359957,0.9068427040359957,0.0,0,False
2022-08-26,0.9068427040359957,0.9068427040359957,0.0,0,False
2022-08-27,0.9068427040359957,0.9068427040359957,0.0,0,False
2022-08-28,0.9068427040359957,0.9068427040359957,0.0,0,False
2022-08-29,0.9068427040359957,0.9068427040359957,0.0,0,False
2022-08-30,0.9068427040359957,0.9068427040359957,0.0,0,False
2022-08-31,0.9068427040359957,0.9068427040359957,0.0,0,False
2022-09-01,0.9068427040359957,0.9068427040359957,0.0,0,False
2022-09-02,0.9068427040359957,0.9068427040359957,0.0,0,False
2022-09-03,0.9068427040359957,0.9068427040359957,0.0,0,False
2022-09-04,0.9068427040359957,0.9068427040359957,0.0,0,False
2022-09-05,0.9068427040359957,0.9068427040359957,0.0,0,False
2022-09-06,0.9068427040359957,0.9068427040359957,0.0,0,False
2022-09-07,0.9068427040359957,0.9068427040359957,0.0,0,False
2022-09-08,0.9068427040359957,0.9068427040359957,0.0,0,False
2022-09-09,0.9068427040359957,0.9068427040359957,0.0,0,False
2022-09-10,0.9068427040359957,0.9068427040359957,0.0,0,False
2022-09-11,0.9068427040359957,0.9068427040359957,0.0,0,False
2022-09-12,0.9068427040359957,0.9068427040359957,0.0,0,False
2022-09-13,0.9068427040359957,0.9068427040359957,0.0,0,False
2022-09-14,0.9068427040359957,0.9068427040359957,0.0,0,False
2022-09-15,0.9068427040359957,0.9068427040359957,0.0,0,False
2022-09-16,0.9068427040359957,0.9068427040359957,0.0,0,False
2022-09-17,0.9068427040359957,0.9068427040359957,0.0,0,False
2022-09-18,0.9068427040359957,0.9068427040359957,0.0,0,False
2022-09-19,0.9068427040359957,0.9068427040359957,0.0,0,False
2022-09-20,0.9068427040359957,0.9068427040359957,0.0,0,False
2022-09-21,0.9068427040359957,0.9068427040359957,0.0,0,False
2022-09-22,0.9068427040359957,0.9068427040359957,0.0,0,False
2022-09-23,0.9068427040359957,0.9068427040359957,0.0,0,False
2022-09-24,0.9068427040359957,0.9068427040359957,0.0,0,False
2022-09-25,0.9068427040359957,0.9068427040359957,0.0,0,False
2022-09-26,0.9068427040359957,0.9068427040359957,0.0,0,False
2022-09-27,0.9068427040359957,0.9068427040359957,0.0,0,False
2022-09-28,0.9068427040359957,0.9068427040359957,0.0,0,False
2022-09-29,0.9068427040359957,0.9068427040359957,0.0,0,False
2022-09-30,0.9068427040359957,0.9068427040359957,0.0,0,False
2022-10-01,0.9068427040359957,0.9068427040359957,0.0,0,False
2022-10-02,0.9068427040359957,0.9068427040359957,0.0,0,False
2022-10-03,0.9068427040359957,0.9068427040359957,0.0,0,False
2022-10-04,0.9068427040359957,0.9068427040359957,0.0,0,False
2022-10-05,0.9068427040359957,0.9068427040359957,0.0,0,False
2022-10-06,0.9068427040359957,0.9068427040359957,0.0,0,False
2022-10-07,0.9068427040359957,0.9068427040359957,0.0,0,False
2022-10-08,0.9068427040359957,0.9068427040359957,0.0,0,False
2022-10-09,0.9068427040359957,0.9068427040359957,0.0,0,False
2022-10-10,0.9068427040359957,0.9068427040359957,0.0,0,False
2022-10-11,0.9068427040359957,0.9068427040359957,0.0,0,False
2022-10-12,0.9068427040359957,0.9068427040359957,0.0,0,False
2022-10-13,0.9068427040359957,0.9068427040359957,0.0,0,False
2022-10-14,0.9068427040359957,0.9068427040359957,0.0,0,False
2022-10-15,0.9068427040359957,0.9068427040359957,0.0,0,False
2022-10-16,0.9068427040359957,0.9068427040359957,0.0,0,False
2022-10-17,0.9068427040359957,0.9068427040359957,0.0,0,False
2022-10-18,0.9068427040359957,0.9068427040359957,0.0,0,False
2022-10-19,0.9068427040359957,0.9068427040359957,0.0,0,False
2022-10-20,0.9068427040359957,0.9068427040359957,0.0,0,False
2022-10-21,0.9068427040359957,0.9068427040359957,0.0,0,False
2022-10-22,0.9068427040359957,0.9068427040359957,0.0,0,False
2022-10-23,0.9068427040359957,0.9068427040359957,0.0,0,False
2022-10-24,0.9068427040359957,0.9068427040359957,0.0,0,False
2022-10-25,0.9068427040359957,0.9068427040359957,0.0,0,False
2022-10-26,0.9068427040359957,0.9068427040359957,0.0,0,False
2022-10-27,0.9068427040359957,0.9068427040359957,0.0,0,False
2022-10-28,0.9068427040359957,0.9068427040359957,0.0,0,False
2022-10-29,0.9068427040359957,0.9068427040359957,0.0,0,False
2022-10-30,0.9068427040359957,0.9068427040359957,0.0,0,False
2022-10-31,0.9068427040359957,0.9068427040359957,0.0,0,False
2022-11-01,0.9068427040359957,0.9068427040359957,0.0,0,False
2022-11-02,0.9068427040359957,0.9068427040359957,0.0,0,False
2022-11-03,0.9068427040359957,0.9068427040359957,0.0,0,False
2022-11-04,0.9068427040359957,0.9068427040359957,0.0,0,False
2022-11-05,0.9068427040359957,0.9068427040359957,0.0,0,False
2022-11-06,0.9068427040359957,0.9068427040359957,0.0,0,False
2022-11-07,0.9068427040359957,0.9068427040359957,0.0,0,False
2022-11-08,0.9068427040359957,0.9068427040359957,0.0,0,False
2022-11-09,0.9068427040359957,0.9068427040359957,0.0,0,False
2022-11-10,0.9068427040359957,0.9068427040359957,0.0,0,False
2022-11-11,0.9068427040359957,0.9068427040359957,0.0,0,False
2022-11-12,0.9068427040359957,0.9068427040359957,0.0,0,False
2022-11-13,0.9068427040359957,0.9068427040359957,0.0,0,False
2022-11-14,0.9068427040359957,0.9068427040359957,0.0,0,False
2022-11-15,0.9068427040359957,0.9068427040359957,0.0,0,False
2022-11-16,0.9068427040359957,0.9068427040359957,0.0,0,False
2022-11-17,0.9068427040359957,0.9068427040359957,0.0,0,False
2022-11-18,0.9068427040359957,0.9068427040359957,0.0,0,False
2022-11-19,0.9068427040359957,0.9068427040359957,0.0,0,False
2022-11-20,0.9068427040359957,0.9068427040359957,0.0,0,False
2022-11-21,0.9068427040359957,0.9068427040359957,0.0,0,False
2022-11-22,0.9068427040359957,0.9068427040359957,0.0,0,False
2022-11-23,0.9068427040359957,0.9068427040359957,0.0,0,False
2022-11-24,0.9068427040359957,0.9068427040359957,0.0,0,False
2022-11-25,0.9068427040359957,0.9068427040359957,0.0,0,False
2022-11-26,0.9068427040359957,0.9068427040359957,0.0,0,False
2022-11-27,0.9068427040359957,0.9068427040359957,0.0,0,False
2022-11-28,0.9068427040359957,0.9068427040359957,0.0,0,False
2022-11-29,0.9068427040359957,0.9068427040359957,0.0,0,False
2022-11-30,0.9068427040359957,0.9068427040359957,0.0,0,False
2022-12-01,0.9068427040359957,0.9068427040359957,0.0,0,False
2022-12-02,0.9068427040359957,0.9068427040359957,0.0,0,False
2022-12-03,0.9068427040359957,0.9068427040359957,0.0,0,False
2022-12-04,0.9068427040359957,0.9068427040359957,0.0,0,False
2022-12-05,0.9068427040359957,0.9068427040359957,0.0,0,False
2022-12-06,0.9068427040359957,0.9068427040359957,0.0,0,False
2022-12-07,0.9068427040359957,0.9068427040359957,0.0,0,False
2022-12-08,0.9068427040359957,0.9068427040359957,0.0,0,False
2022-12-09,0.9068427040359957,0.9068427040359957,0.0,0,False
2022-12-10,0.9068427040359957,0.9068427040359957,0.0,0,False
2022-12-11,0.9068427040359957,0.9068427040359957,0.0,0,False
2022-12-12,0.9068427040359957,0.9068427040359957,0.0,0,False
2022-12-13,0.9068427040359957,0.9068427040359957,0.0,0,False
2022-12-14,0.9068427040359957,0.9068427040359957,0.0,0,False
2022-12-15,0.9068427040359957,0.9068427040359957,0.0,0,False
2022-12-16,0.9068427040359957,0.9068427040359957,0.0,0,False
2022-12-17,0.9068427040359957,0.9068427040359957,0.0,0,False
2022-12-18,0.9068427040359957,0.9068427040359957,0.0,0,False
2022-12-19,0.9068427040359957,0.9068427040359957,0.0,0,False
2022-12-20,0.9068427040359957,0.9068427040359957,0.0,0,False
2022-12-21,0.9068427040359957,0.9068427040359957,0.0,0,False
2022-12-22,0.9068427040359957,0.9068427040359957,0.0,0,False
2022-12-23,0.9068427040359957,0.9068427040359957,0.0,0,False
2022-12-24,0.9068427040359957,0.9068427040359957,0.0,0,False
2022-12-25,0.9068427040359957,0.9068427040359957,0.0,0,False
2022-12-26,0.9068427040359957,0.9068427040359957,0.0,0,False
2022-12-27,0.9068427040359957,0.9068427040359957,0.0,0,False
2022-12-28,0.9068427040359957,0.9068427040359957,0.0,0,False
2022-12-29,0.9068427040359957,0.9068427040359957,0.0,0,False
2022-12-30,0.9068427040359957,0.9068427040359957,0.0,0,False
2022-12-31,0.9068427040359957,0.9068427040359957,0.0,0,False
2023-01-01,0.9068427040359957,0.9068427040359957,0.0,0,False
2023-01-02,0.9068427040359957,0.9068427040359957,0.0,0,False
2023-01-03,0.9068427040359957,0.9068427040359957,0.0,0,False
2023-01-04,0.9068427040359957,0.9068427040359957,0.0,0,False
2023-01-05,0.9068427040359957,0.9068427040359957,0.0,0,False
2023-01-06,0.9068427040359957,0.9068427040359957,0.0,0,False
2023-01-07,0.9068427040359957,0.9068427040359957,0.0,0,False
2023-01-08,0.9068427040359957,0.9068427040359957,0.0,0,False
2023-01-09,0.9068427040359957,0.9068427040359957,0.0,0,False
2023-01-10,0.9068427040359957,0.9068427040359957,0.0,0,False
2023-01-11,0.9068427040359957,0.9068427040359957,0.0,0,False
2023-01-12,0.9068427040359957,0.9068427040359957,0.0,0,False
2023-01-13,0.9068427040359957,0.9068427040359957,0.0,0,False
2023-01-14,0.9068427040359957,0.9068427040359957,0.0,0,False
2023-01-15,0.9068427040359957,0.9068427040359957,0.0,0,False
2023-01-16,0.9068427040359957,0.9068427040359957,0.0,0,False
2023-01-17,0.9068427040359957,0.9068427040359957,0.0,0,False
2023-01-18,0.9068427040359957,0.9068427040359957,0.0,0,False
2023-01-19,0.9068427040359957,0.9068427040359957,0.0,0,False
2023-01-20,0.9068427040359957,0.9068427040359957,0.0,0,False
2023-01-21,0.9068427040359957,0.9068427040359957,0.0,0,False
2023-01-22,0.9068427040359957,0.9068427040359957,0.0,0,False
2023-01-23,0.9068427040359957,0.9068427040359957,0.0,0,False
2023-01-24,0.9068427040359957,0.9068427040359957,0.0,0,False
2023-01-25,0.9068427040359957,0.9068427040359957,0.0,0,False
2023-01-26,0.9068427040359957,0.9068427040359957,0.0,0,False
2023-01-27,0.9068427040359957,0.9068427040359957,0.0,0,False
2023-01-28,0.9068427040359957,0.9068427040359957,0.0,0,False
2023-01-29,0.9068427040359957,0.9068427040359957,0.0,0,False
2023-01-30,0.9068427040359957,0.9068427040359957,0.0,0,False
2023-01-31,0.9068427040359957,0.9068427040359957,0.0,0,False
2023-02-01,0.9068427040359957,0.9068427040359957,0.0,0,False
2023-02-02,0.9068427040359957,0.9068427040359957,0.0,0,False
2023-02-03,0.9068427040359957,0.9068427040359957,0.0,0,False
2023-02-04,0.9068427040359957,0.9068427040359957,0.0,0,False
2023-02-05,0.9068427040359957,0.9068427040359957,0.0,0,False
2023-02-06,0.9068427040359957,0.9068427040359957,0.0,0,False
2023-02-07,0.9068427040359957,0.9068427040359957,0.0,0,False
2023-02-08,0.9068427040359957,0.9068427040359957,0.0,0,False
2023-02-09,0.9068427040359957,0.9068427040359957,0.0,0,False
2023-02-10,0.9068427040359957,0.9068427040359957,0.0,0,False
2023-02-11,0.9068427040359957,0.9068427040359957,0.0,0,False
2023-02-12,0.9068427040359957,0.9068427040359957,0.0,0,False
2023-02-13,0.9068427040359957,0.9068427040359957,0.0,0,False
2023-02-14,0.9068427040359957,0.9068427040359957,0.0,0,False
2023-02-15,0.9068427040359957,0.9068427040359957,0.0,0,False
2023-02-16,0.9068427040359957,0.9068427040359957,0.0,0,False
2023-02-17,0.9068427040359957,0.9068427040359957,0.0,0,False
2023-02-18,0.9068427040359957,0.9068427040359957,0.0,0,False
2023-02-19,0.9068427040359957,0.9068427040359957,0.0,0,False
2023-02-20,0.9068427040359957,0.9068427040359957,0.0,0,False
2023-02-21,0.9068427040359957,0.9068427040359957,0.0,0,False
2023-02-22,0.9068427040359957,0.9068427040359957,0.0,0,False
2023-02-23,0.9068427040359957,0.9068427040359957,0.0,0,False
2023-02-24,0.9068427040359957,0.9068427040359957,0.0,0,False
2023-02-25,0.9068427040359957,0.9068427040359957,0.0,0,False
2023-02-26,0.9068427040359957,0.9068427040359957,0.0,0,False
2023-02-27,0.9068427040359957,0.9068427040359957,0.0,0,False
2023-02-28,0.9068427040359957,0.9068427040359957,0.0,0,False
2023-03-01,0.9068427040359957,0.9068427040359957,0.0,0,False
2023-03-02,0.9068427040359957,0.9068427040359957,0.0,0,False
2023-03-03,0.9068427040359957,0.9068427040359957,0.0,0,False
2023-03-04,0.9068427040359957,0.9068427040359957,0.0,0,False
2023-03-05,0.9068427040359957,0.9068427040359957,0.0,0,False
2023-03-06,0.9068427040359957,0.9068427040359957,0.0,0,False
2023-03-07,0.9068427040359957,0.9068427040359957,0.0,0,False
2023-03-08,0.9068427040359957,0.9068427040359957,0.0,0,False
2023-03-09,0.9068427040359957,0.9068427040359957,0.0,0,False
2023-03-10,0.9068427040359957,0.9068427040359957,0.0,0,False
2023-03-11,0.9068427040359957,0.9068427040359957,0.0,0,False
2023-03-12,0.9068427040359957,0.9068427040359957,0.0,0,False
2023-03-13,0.9068427040359957,0.9068427040359957,0.0,0,False
2023-03-14,0.9068427040359957,0.9068427040359957,0.0,0,False
2023-03-15,0.9068427040359957,0.9068427040359957,0.0,0,False
2023-03-16,0.9068427040359957,0.9068427040359957,0.0,0,False
2023-03-17,0.9068427040359957,0.9068427040359957,0.0,0,False
2023-03-18,0.9068427040359957,0.9068427040359957,0.0,0,False
2023-03-19,0.9068427040359957,0.9068427040359957,0.0,0,False
2023-03-20,0.9068427040359957,0.9068427040359957,0.0,0,False
2023-03-21,0.9068427040359957,0.9068427040359957,0.0,0,False
2023-03-22,0.9068427040359957,0.9068427040359957,0.0,0,False
2023-03-23,0.9068427040359957,0.9068427040359957,0.0,0,False
2023-03-24,0.9068427040359957,0.9068427040359957,0.0,0,False
2023-03-25,0.9068427040359957,0.9068427040359957,0.0,0,False
2023-03-26,0.9068427040359957,0.9068427040359957,0.0,0,False
2023-03-27,0.9068427040359957,0.9068427040359957,0.0,0,False
2023-03-28,0.9068427040359957,0.9068427040359957,0.0,0,False
2023-03-29,0.9068427040359957,0.9068427040359957,0.0,0,False
2023-03-30,0.9068427040359957,0.9068427040359957,0.0,0,False
2023-03-31,0.9068427040359957,0.9068427040359957,0.0,0,False
2023-04-01,0.9068427040359957,0.9068427040359957,0.0,0,False
2023-04-02,0.9068427040359957,0.9068427040359957,0.0,0,False
2023-04-03,0.9068427040359957,0.9068427040359957,0.0,0,False
2023-04-04,0.9068427040359957,0.9068427040359957,0.0,0,False
2023-04-05,0.9068427040359957,0.9068427040359957,0.0,0,False
2023-04-06,0.9068427040359957,0.9068427040359957,0.0,0,False
2023-04-07,0.9068427040359957,0.9068427040359957,0.0,0,False
2023-04-08,0.9068427040359957,0.9068427040359957,0.0,0,False
2023-04-09,0.9068427040359957,0.9068427040359957,0.0,0,False
2023-04-10,0.9068427040359957,0.9068427040359957,0.0,0,False
2023-04-11,0.9068427040359957,0.9068427040359957,0.0,0,False
2023-04-12,0.9068427040359957,0.9068427040359957,0.0,0,False
2023-04-13,0.9068427040359957,0.9068427040359957,0.0,0,False
2023-04-14,0.9068427040359957,0.9068427040359957,0.0,0,False
2023-04-15,0.9068427040359957,0.9068427040359957,0.0,0,False
2023-04-16,0.9068427040359957,0.9068427040359957,0.0,0,False
2023-04-17,0.9068427040359957,0.9068427040359957,0.0,0,False
2023-04-18,0.9068427040359957,0.9068427040359957,0.0,0,False
2023-04-19,0.9068427040359957,0.9068427040359957,0.0,0,False
2023-04-20,0.9068427040359957,0.9068427040359957,0.0,0,False
2023-04-21,0.9068427040359957,0.9068427040359957,0.0,0,False
2023-04-22,0.9068427040359957,0.9068427040359957,0.0,0,False
2023-04-23,0.9068427040359957,0.9068427040359957,0.0,0,False
2023-04-24,0.9068427040359957,0.9068427040359957,0.0,0,False
2023-04-25,0.9068427040359957,0.9068427040359957,0.0,0,False
2023-04-26,0.9068427040359957,0.9068427040359957,0.0,0,False
2023-04-27,0.9068427040359957,0.9068427040359957,0.0,0,False
2023-04-28,0.9068427040359957,0.9068427040359957,0.0,0,False
2023-04-29,0.9068427040359957,0.9068427040359957,0.0,0,False
2023-04-30,0.9068427040359957,0.9068427040359957,0.0,0,False
2023-05-01,0.9068427040359957,0.9068427040359957,0.0,0,False
2023-05-02,0.9068427040359957,0.9068427040359957,0.0,0,False
2023-05-03,0.9068427040359957,0.9068427040359957,0.0,0,False
2023-05-04,0.9068427040359957,0.9068427040359957,0.0,0,False
2023-05-05,0.9068427040359957,0.9068427040359957,0.0,0,False
2023-05-06,0.9068427040359957,0.9068427040359957,0.0,0,False
2023-05-07,0.9068427040359957,0.9068427040359957,0.0,0,False
2023-05-08,0.9068427040359957,0.9068427040359957,0.0,0,False
2023-05-09,0.9068427040359957,0.9068427040359957,0.0,0,False
2023-05-10,0.9068427040359957,0.9068427040359957,0.0,0,False
2023-05-11,0.9068427040359957,0.9068427040359957,0.0,0,False
2023-05-12,0.9068427040359957,0.9068427040359957,0.0,0,False
2023-05-13,0.9068427040359957,0.9068427040359957,0.0,0,False
2023-05-14,0.9068427040359957,0.9068427040359957,0.0,0,False
2023-05-15,0.9068427040359957,0.9068427040359957,0.0,0,False
2023-05-16,0.9068427040359957,0.9068427040359957,0.0,0,False
2023-05-17,0.9068427040359957,0.9068427040359957,0.0,0,False
2023-05-18,0.9068427040359957,0.9068427040359957,0.0,0,False
2023-05-19,0.9068427040359957,0.9068427040359957,0.0,0,False
2023-05-20,0.9068427040359957,0.9068427040359957,0.0,0,False
2023-05-21,0.9068427040359957,0.9068427040359957,0.0,0,False
2023-05-22,0.9068427040359957,0.9068427040359957,0.0,0,False
2023-05-23,0.9068427040359957,0.9068427040359957,0.0,0,False
2023-05-24,0.9068427040359957,0.9068427040359957,0.0,0,False
2023-05-25,0.9068427040359957,0.9068427040359957,0.0,0,False
2023-05-26,0.9068427040359957,0.9068427040359957,0.0,0,False
2023-05-27,0.9068427040359957,0.9068427040359957,0.0,0,False
2023-05-28,0.9068427040359957,0.9068427040359957,0.0,0,False
2023-05-29,0.9068427040359957,0.9068427040359957,0.0,0,False
2023-05-30,0.9068427040359957,0.9068427040359957,0.0,0,False
2023-05-31,0.9068427040359957,0.9068427040359957,0.0,0,False
2023-06-01,0.9068427040359957,0.9068427040359957,0.0,0,False
2023-06-02,0.9068427040359957,0.9068427040359957,0.0,0,False
2023-06-03,0.9068427040359957,0.9068427040359957,0.0,0,False
2023-06-04,0.9068427040359957,0.9068427040359957,0.0,0,False
2023-06-05,0.9068427040359957,0.9068427040359957,0.0,0,False
2023-06-06,0.9068427040359957,0.9068427040359957,0.0,0,False
2023-06-07,0.9068427040359957,0.9068427040359957,0.0,0,False
2023-06-08,0.9068427040359957,0.9068427040359957,0.0,0,False
2023-06-09,0.9068427040359957,0.9068427040359957,0.0,0,False
2023-06-10,0.9068427040359957,0.9068427040359957,0.0,0,False
2023-06-11,0.9068427040359957,0.9068427040359957,0.0,0,False
2023-06-12,0.9068427040359957,0.9068427040359957,0.0,0,False
2023-06-13,0.9068427040359957,0.9068427040359957,0.0,0,False
2023-06-14,0.9068427040359957,0.9068427040359957,0.0,0,False
2023-06-15,0.9068427040359957,0.9068427040359957,0.0,0,False
2023-06-16,0.9068427040359957,0.9068427040359957,0.0,0,False
2023-06-17,0.9068427040359957,0.9068427040359957,0.0,0,False
2023-06-18,0.9068427040359957,0.9068427040359957,0.0,0,False
2023-06-19,0.9068427040359957,0.9068427040359957,0.0,0,False
2023-06-20,0.9068427040359957,0.9068427040359957,0.0,0,False
2023-06-21,0.9068427040359957,0.9068427040359957,0.0,0,False
2023-06-22,0.9068427040359957,0.9068427040359957,0.0,0,False
2023-06-23,0.9068427040359957,0.9068427040359957,0.0,0,False
2023-06-24,0.9068427040359957,0.9068427040359957,0.0,0,False
2023-06-25,0.9068427040359957,0.9068427040359957,0.0,0,False
2023-06-26,0.9068427040359957,0.9068427040359957,0.0,0,False
2023-06-27,0.9068427040359957,0.9068427040359957,0.0,0,False
2023-06-28,0.9068427040359957,0.9068427040359957,0.0,0,False
2023-06-29,0.9068427040359957,0.9068427040359957,0.0,0,False
2023-06-30,0.9068427040359957,0.9068427040359957,0.0,0,False
2023-07-01,0.9068427040359957,0.9068427040359957,0.0,0,False
2023-07-02,0.9068427040359957,0.9068427040359957,0.0,0,False
2023-07-03,0.9068427040359957,0.9068427040359957,0.0,0,False
2023-07-04,0.9068427040359957,0.9068427040359957,0.0,0,False
2023-07-05,0.9068427040359957,0.9068427040359957,0.0,0,False
2023-07-06,0.9068427040359957,0.9068427040359957,0.0,0,False
2023-07-07,0.9068427040359957,0.9068427040359957,0.0,0,False
2023-07-08,0.9068427040359957,0.9068427040359957,0.0,0,False
2023-07-09,0.9068427040359957,0.9068427040359957,0.0,0,False
2023-07-10,0.9068427040359957,0.9068427040359957,0.0,0,False
2023-07-11,0.9068427040359957,0.9068427040359957,0.0,0,False
2023-07-12,0.9068427040359957,0.9068427040359957,0.0,0,False
2023-07-13,0.9068427040359957,0.9068427040359957,0.0,0,False
2023-07-14,0.9068427040359957,0.9068427040359957,0.0,0,False
2023-07-15,0.9068427040359957,0.9068427040359957,0.0,0,False
2023-07-16,0.9068427040359957,0.9068427040359957,0.0,0,False
2023-07-17,0.9068427040359957,0.9068427040359957,0.0,0,False
2023-07-18,0.9068427040359957,0.9068427040359957,0.0,0,False
2023-07-19,0.9068427040359957,0.9068427040359957,0.0,0,False
2023-07-20,0.9068427040359957,0.9068427040359957,0.0,0,False
2023-07-21,0.9068427040359957,0.9068427040359957,0.0,0,False
2023-07-22,0.9068427040359957,0.9068427040359957,0.0,0,False
2023-07-23,0.9068427040359957,0.9068427040359957,0.0,0,False
2023-07-24,0.9068427040359957,0.9068427040359957,0.0,0,False
2023-07-25,0.9068427040359957,0.9068427040359957,0.0,0,False
2023-07-26,0.9068427040359957,0.9068427040359957,0.0,0,False
2023-07-27,0.9068427040359957,0.9068427040359957,0.0,0,False
2023-07-28,0.9068427040359957,0.9068427040359957,0.0,0,False
2023-07-29,0.9068427040359957,0.9068427040359957,0.0,0,False
2023-07-30,0.9068427040359957,0.9068427040359957,0.0,0,False
2023-07-31,0.9068427040359957,0.9068427040359957,0.0,0,False
2023-08-01,0.9068427040359957,0.9068427040359957,0.0,0,False
2023-08-02,0.9068427040359957,0.9068427040359957,0.0,0,False
2023-08-03,0.9068427040359957,0.9068427040359957,0.0,0,False
2023-08-04,0.9068427040359957,0.9068427040359957,0.0,0,False
2023-08-05,0.9068427040359957,0.9068427040359957,0.0,0,False
2023-08-06,0.9068427040359957,0.9068427040359957,0.0,0,False
2023-08-07,0.9068427040359957,0.9068427040359957,0.0,0,False
2023-08-08,0.9068427040359957,0.9068427040359957,0.0,0,False
2023-08-09,0.9068427040359957,0.9068427040359957,0.0,0,False
2023-08-10,0.9068427040359957,0.9068427040359957,0.0,0,False
2023-08-11,0.9068427040359957,0.9068427040359957,0.0,0,False
2023-08-12,0.9068427040359957,0.9068427040359957,0.0,0,False
2023-08-13,0.9068427040359957,0.9068427040359957,0.0,0,False
2023-08-14,0.9068427040359957,0.9068427040359957,0.0,0,False
2023-08-15,0.9068427040359957,0.9068427040359957,0.0,0,False
2023-08-16,0.9068427040359957,0.9068427040359957,0.0,0,False
2023-08-17,0.9068427040359957,0.9068427040359957,0.0,0,False
2023-08-18,0.9068427040359957,0.9068427040359957,0.0,0,False
2023-08-19,0.9068427040359957,0.9068427040359957,0.0,0,False
2023-08-20,0.9068427040359957,0.9068427040359957,0.0,0,False
2023-08-21,0.9068427040359957,0.9068427040359957,0.0,0,False
2023-08-22,0.9068427040359957,0.9068427040359957,0.0,0,False
2023-08-23,0.9068427040359957,0.9068427040359957,0.0,0,False
2023-08-24,0.9068427040359957,0.9068427040359957,0.0,0,False
2023-08-25,0.9068427040359957,0.9068427040359957,0.0,0,False
2023-08-26,0.9068427040359957,0.9068427040359957,0.0,0,False
2023-08-27,0.9068427040359957,0.9068427040359957,0.0,0,False
2023-08-28,0.9068427040359957,0.9068427040359957,0.0,0,False
2023-08-29,0.9068427040359957,0.9068427040359957,0.0,0,False
2023-08-30,0.9068427040359957,0.9068427040359957,0.0,0,False
2023-08-31,0.9068427040359957,0.9068427040359957,0.0,0,False
2023-09-01,0.9068427040359957,0.9068427040359957,0.0,0,False
2023-09-02,0.9068427040359957,0.9068427040359957,0.0,0,False
2023-09-03,0.9068427040359957,0.9068427040359957,0.0,0,False
2023-09-04,0.9068427040359957,0.9068427040359957,0.0,0,False
2023-09-05,0.9068427040359957,0.9068427040359957,0.0,0,False
2023-09-06,0.9068427040359957,0.9068427040359957,0.0,0,False
2023-09-07,0.9068427040359957,0.9068427040359957,0.0,0,False
2023-09-08,0.9068427040359957,0.9068427040359957,0.0,0,False
2023-09-09,0.9068427040359957,0.9068427040359957,0.0,0,False
2023-09-10,0.9068427040359957,0.9068427040359957,0.0,0,False
2023-09-11,0.9068427040359957,0.9068427040359957,0.0,0,False
2023-09-12,0.9068427040359957,0.9068427040359957,0.0,0,False
2023-09-13,0.9068427040359957,0.9068427040359957,0.0,0,False
2023-09-14,0.9068427040359957,0.9068427040359957,0.0,0,False
2023-09-15,0.9068427040359957,0.9068427040359957,0.0,0,False
2023-09-16,0.9068427040359957,0.9068427040359957,0.0,0,False
2023-09-17,0.9068427040359957,0.9068427040359957,0.0,0,False
2023-09-18,0.9068427040359957,0.9068427040359957,0.0,0,False
2023-09-19,0.9068427040359957,0.9068427040359957,0.0,0,False
2023-09-20,0.9068427040359957,0.9068427040359957,0.0,0,False
2023-09-21,0.9068427040359957,0.9068427040359957,0.0,0,False
2023-09-22,0.9068427040359957,0.9068427040359957,0.0,0,False
2023-09-23,0.9068427040359957,0.9068427040359957,0.0,0,False
2023-09-24,0.9068427040359957,0.9068427040359957,0.0,0,False
2023-09-25,0.9068427040359957,0.9068427040359957,0.0,0,False
2023-09-26,0.9068427040359957,0.9068427040359957,0.0,0,False
2023-09-27,0.9068427040359957,0.9068427040359957,0.0,0,False
2023-09-28,0.9068427040359957,0.9068427040359957,0.0,0,False
2023-09-29,0.9068427040359957,0.9068427040359957,0.0,0,False
2023-09-30,0.9068427040359957,0.9068427040359957,0.0,0,False
2023-10-01,0.9068427040359957,0.9068427040359957,0.0,0,False
2023-10-02,0.9068427040359957,0.9068427040359957,0.0,0,False
2023-10-03,0.9068427040359957,0.9068427040359957,0.0,0,False
2023-10-04,0.9068427040359957,0.9068427040359957,0.0,0,False
2023-10-05,0.9068427040359957,0.9068427040359957,0.0,0,False
2023-10-06,0.9068427040359957,0.9068427040359957,0.0,0,False
2023-10-07,0.9068427040359957,0.9068427040359957,0.0,0,False
2023-10-08,0.9068427040359957,0.9068427040359957,0.0,0,False
2023-10-09,0.9068427040359957,0.9068427040359957,0.0,0,False
2023-10-10,0.9068427040359957,0.9068427040359957,0.0,0,False
2023-10-11,0.9068427040359957,0.9068427040359957,0.0,0,False
2023-10-12,0.9068427040359957,0.9068427040359957,0.0,0,False
2023-10-13,0.9068427040359957,0.9068427040359957,0.0,0,False
2023-10-14,0.9068427040359957,0.9068427040359957,0.0,0,False
2023-10-15,0.9068427040359957,0.9068427040359957,0.0,0,False
2023-10-16,0.9068427040359957,0.9068427040359957,0.0,0,False
2023-10-17,0.9068427040359957,0.9068427040359957,0.0,0,False
2023-10-18,0.9068427040359957,0.9068427040359957,0.0,0,False
2023-10-19,0.9068427040359957,0.9068427040359957,0.0,0,False
2023-10-20,0.9068427040359957,0.9068427040359957,0.0,0,False
2023-10-21,0.9068427040359957,0.9068427040359957,0.0,0,False
2023-10-22,0.9068427040359957,0.9068427040359957,0.0,0,False
2023-10-23,0.9068427040359957,0.9068427040359957,0.0,0,False
2023-10-24,0.9068427040359957,0.9068427040359957,0.0,0,False
2023-10-25,0.9068427040359957,0.9068427040359957,0.0,0,False
2023-10-26,0.9068427040359957,0.9068427040359957,0.0,0,False
2023-10-27,0.9068427040359957,0.9068427040359957,0.0,0,False
2023-10-28,0.9068427040359957,0.9068427040359957,0.0,0,False
2023-10-29,0.9068427040359957,0.9068427040359957,0.0,0,False
2023-10-30,0.9068427040359957,0.9068427040359957,0.0,0,False
2023-10-31,0.9068427040359957,0.9068427040359957,0.0,0,False
2023-11-01,0.9068427040359957,0.9068427040359957,0.0,0,False
2023-11-02,0.9068427040359957,0.9068427040359957,0.0,0,False
2023-11-03,0.9068427040359957,0.9068427040359957,0.0,0,False
2023-11-04,0.9068427040359957,0.9068427040359957,0.0,0,False
2023-11-05,0.9068427040359957,0.9068427040359957,0.0,0,False
2023-11-06,0.9068427040359957,0.9068427040359957,0.0,0,False
2023-11-07,0.9068427040359957,0.9068427040359957,0.0,0,False
2023-11-08,0.9068427040359957,0.9068427040359957,0.0,0,False
2023-11-09,0.9068427040359957,0.9068427040359957,0.0,0,False
2023-11-10,0.9068427040359957,0.9068427040359957,0.0,0,False
2023-11-11,0.9068427040359957,0.9068427040359957,0.0,0,False
2023-11-12,0.9068427040359957,0.9068427040359957,0.0,0,False
2023-11-13,0.9068427040359957,0.9068427040359957,0.0,0,False
2023-11-14,0.9068427040359957,0.9068427040359957,0.0,0,False
2023-11-15,0.9068427040359957,0.9068427040359957,0.0,0,False
2023-11-16,0.9068427040359957,0.9068427040359957,0.0,0,False
2023-11-17,0.9068427040359957,0.9068427040359957,0.0,0,False
2023-11-18,0.9068427040359957,0.9068427040359957,0.0,0,False
2023-11-19,0.9068427040359957,0.9068427040359957,0.0,0,False
2023-11-20,0.9068427040359957,0.9068427040359957,0.0,0,False
2023-11-21,0.9068427040359957,0.9068427040359957,0.0,0,False
2023-11-22,0.9068427040359957,0.9068427040359957,0.0,0,False
2023-11-23,0.9068427040359957,0.9068427040359957,0.0,0,False
2023-11-24,0.9068427040359957,0.9068427040359957,0.0,0,False
2023-11-25,0.9068427040359957,0.9068427040359957,0.0,0,False
2023-11-26,0.9068427040359957,0.9068427040359957,0.0,0,False
2023-11-27,0.9068427040359957,0.9068427040359957,0.0,0,False
2023-11-28,0.9068427040359957,0.9068427040359957,0.0,0,False
2023-11-29,0.9068427040359957,0.9068427040359957,0.0,0,False
2023-11-30,0.9068427040359957,0.9068427040359957,0.0,0,False
2023-12-01,0.9068427040359957,0.9068427040359957,0.0,0,False
2023-12-02,0.9068427040359957,0.9068427040359957,0.0,0,False
2023-12-03,0.9068427040359957,0.9068427040359957,0.0,0,False
2023-12-04,0.9068427040359957,0.9068427040359957,0.0,0,False
2023-12-05,0.9068427040359957,0.9068427040359957,0.0,0,False
2023-12-06,0.9068427040359957,0.9068427040359957,0.0,0,False
2023-12-07,0.9068427040359957,0.9068427040359957,0.0,0,False
2023-12-08,0.9068427040359957,0.9068427040359957,0.0,0,False
2023-12-09,0.9068427040359957,0.9068427040359957,0.0,0,False
2023-12-10,0.9068427040359957,0.9068427040359957,0.0,0,False
2023-12-11,0.9068427040359957,0.9068427040359957,0.0,0,False
2023-12-12,0.9068427040359957,0.9068427040359957,0.0,0,False
2023-12-13,0.9068427040359957,0.9068427040359957,0.0,0,False
2023-12-14,0.9068427040359957,0.9068427040359957,0.0,0,False
2023-12-15,0.9068427040359957,0.9068427040359957,0.0,0,False
2023-12-16,0.9068427040359957,0.9068427040359957,0.0,0,False
2023-12-17,0.9068427040359957,0.9068427040359957,0.0,0,False
2023-12-18,0.9068427040359957,0.9068427040359957,0.0,0,False
2023-12-19,0.9068427040359957,0.9068427040359957,0.0,0,False
2023-12-20,0.9068427040359957,0.9068427040359957,0.0,0,False
2023-12-21,0.9068427040359957,0.9068427040359957,0.0,0,False
2023-12-22,0.9068427040359957,0.9068427040359957,0.0,0,False
2023-12-23,0.9068427040359957,0.9068427040359957,0.0,0,False
2023-12-24,0.9068427040359957,0.9068427040359957,0.0,0,False
2023-12-25,0.9068427040359957,0.9068427040359957,0.0,0,False
2023-12-26,0.9068427040359957,0.9068427040359957,0.0,0,False
2023-12-27,0.9068427040359957,0.9068427040359957,0.0,0,False
2023-12-28,0.9068427040359957,0.9068427040359957,0.0,0,False
2023-12-29,0.9068427040359957,0.9068427040359957,0.0,0,False
2023-12-30,0.9068427040359957,0.9068427040359957,0.0,0,False
2023-12-31,0.9068427040359957,0.9068427040359957,0.0,0,False
