day,start_equity,end_equity,return_pct,entries,active
2021-09-02,1.0,1.0,0.0,0,False
2021-09-03,1.0,1.0,0.0,0,False
2021-09-04,1.0,1.0,0.0,0,False
2021-09-05,1.0,1.0,0.0,0,False
2021-09-06,1.0,1.0,0.0,0,False
2021-09-07,1.0,1.0,0.0,0,False
2021-09-08,1.0,1.0,0.0,0,False
2021-09-09,1.0,1.0,0.0,0,False
2021-09-10,1.0,1.0,0.0,0,False
2021-09-11,1.0,1.0,0.0,0,False
2021-09-12,1.0,1.0,0.0,0,False
2021-09-13,1.0,1.0,0.0,0,False
2021-09-14,1.0,1.0,0.0,0,False
2021-09-15,1.0,1.0,0.0,0,False
2021-09-16,1.0,1.0,0.0,0,False
2021-09-17,1.0,1.0,0.0,0,False
2021-09-18,1.0,1.0,0.0,0,False
2021-09-19,1.0,1.0,0.0,0,False
2021-09-20,1.0,1.0,0.0,0,False
2021-09-21,1.0,1.0,0.0,0,False
2021-09-22,1.0,1.0,0.0,0,False
2021-09-23,1.0,1.0,0.0,0,False
2021-09-24,1.0,1.0,0.0,0,False
2021-09-25,1.0,1.0,0.0,0,False
2021-09-26,1.0,1.0,0.0,0,False
2021-09-27,1.0,1.0,0.0,0,False
2021-09-28,1.0,1.0,0.0,0,False
2021-09-29,1.0,1.0,0.0,0,False
2021-09-30,1.0,1.0,0.0,0,False
2021-10-01,1.0,1.0,0.0,0,False
2021-10-02,1.0,1.0,0.0,0,False
2021-10-03,1.0,1.0,0.0,0,False
2021-10-04,1.0,1.0,0.0,0,False
2021-10-05,1.0,0.9993927768733932,-0.06072231266067707,1,True
2021-10-06,0.9993927768733932,1.004893207070895,0.5503772215274427,3,True
2021-10-07,1.004893207070895,1.0012258543365358,-0.36494949996217496,2,True
2021-10-08,1.0012258543365358,1.000652489427439,-0.0572662907788013,1,True
2021-10-09,1.000652489427439,1.0014825122876898,0.0829481632255602,2,True
2021-10-10,1.0014825122876898,1.008270310112028,0.6777749727084892,1,True
2021-10-11,1.008270310112028,1.0050181286788025,-0.3225505502452264,0,True
2021-10-12,1.0050181286788025,1.0050181286788025,0.0,0,False
2021-10-13,1.0050181286788025,1.0216221290928473,1.6521095431256017,4,True
2021-10-14,1.0216221290928473,1.0371229109502156,1.5172715445320506,0,True
2021-10-15,1.0371229109502156,1.0417299839659937,0.44421668513301427,4,True
2021-10-16,1.0417299839659937,1.0385954117484542,-0.3009006427563743,2,True
2021-10-17,1.0385954117484542,1.0385540371629929,-0.003983705781218649,0,True
2021-10-18,1.0385540371629929,1.0371303720905978,-0.13708146340503102,1,True
2021-10-19,1.0371303720905978,1.0397863548408992,0.25608957386404896,0,True
2021-10-20,1.0397863548408992,1.0397863548408992,0.0,0,False
2021-10-21,1.0397863548408992,1.0397863548408992,0.0,0,False
2021-10-22,1.0397863548408992,1.0397863548408992,0.0,0,False
2021-10-23,1.0397863548408992,1.0397863548408992,0.0,0,False
2021-10-24,1.0397863548408992,1.0397863548408992,0.0,0,False
2021-10-25,1.0397863548408992,1.0526609100952804,1.2381923646566095,2,True
2021-10-26,1.0526609100952804,1.0535618580979336,0.08558767538653367,0,True
2021-10-27,1.0535618580979336,1.0475349056629604,-0.5720549190964541,7,True
2021-10-28,1.0475349056629604,1.0498739913038144,0.22329429102638798,2,True
2021-10-29,1.0498739913038144,1.0466471754145588,-0.3073526838443086,0,True
2021-10-30,1.0466471754145588,1.0468450969855387,0.01891005638090526,2,True
2021-10-31,1.0468450969855387,1.0399954981268607,-0.6543087299546002,1,True
2021-11-01,1.0399954981268607,1.0507742215893194,1.0364202039212955,2,True
2021-11-02,1.0507742215893194,1.0522491659029134,0.1403673865697952,1,True
2021-11-03,1.0522491659029134,1.0504273557903985,-0.17313485926612193,1,True
2021-11-04,1.0504273557903985,1.0687421548456535,1.7435569394014916,1,True
2021-11-05,1.0687421548456535,1.0558963623132758,-1.2019543230455731,3,True
2021-11-06,1.0558963623132758,1.045348390735541,-0.9989589844429547,2,True
2021-11-07,1.045348390735541,1.0458604843859016,0.048987845095394,0,True
2021-11-08,1.0458604843859016,1.0458604843859016,0.0,0,False
2021-11-09,1.0458604843859016,1.0458604843859016,0.0,0,False
2021-11-10,1.0458604843859016,1.0458604843859016,0.0,0,False
2021-11-11,1.0458604843859016,1.0329946757782427,-1.230164902464348,12,True
2021-11-12,1.0329946757782427,1.0276419489094635,-0.5181756493320311,1,True
2021-11-13,1.0276419489094635,1.0261159446258374,-0.14849571733086542,1,True
2021-11-14,1.0261159446258374,1.0265426379488303,0.041583343990270194,0,True
2021-11-15,1.0265426379488303,1.0265426379488303,0.0,0,False
2021-11-16,1.0265426379488303,1.0376881532559856,1.0857333046998985,7,True
2021-11-17,1.0376881532559856,1.0233119575493514,-1.3854061705846354,0,True
2021-11-18,1.0233119575493514,1.0139346741487254,-0.9163660535232099,4,True
2021-11-19,1.0139346741487254,1.0284633339588907,1.4328990003585007,4,True
2021-11-20,1.0284633339588907,1.0291314684367219,0.06496434591005684,0,True
2021-11-21,1.0291314684367219,1.0251650597482078,-0.38541321591683,1,True
2021-11-22,1.0251650597482078,1.0100952049843015,-1.4699930143549422,4,True
2021-11-23,1.0100952049843015,1.0072252626732514,-0.2841259216842529,0,True
2021-11-24,1.0072252626732514,1.0024427159000135,-0.4748239495646289,2,True
2021-11-25,1.0024427159000135,1.011016473235743,0.8552865116119523,5,True
2021-11-26,1.011016473235743,0.9766979650048622,-3.3944558906191635,8,True
2021-11-27,0.9766979650048622,0.98092691657693,0.4329845790194575,0,True
2021-11-28,0.98092691657693,0.9747546051157491,-0.629232551056913,7,True
2021-11-29,0.9747546051157491,0.9665259410165902,-0.8441780173156221,1,True
2021-11-30,0.9665259410165902,0.9564272107533569,-1.0448483413297183,3,True
2021-12-01,0.9564272107533569,0.9506930422184132,-0.5995405055892356,1,True
2021-12-02,0.9506930422184132,0.9479526943633132,-0.2882473872645064,5,True
2021-12-03,0.9479526943633132,0.9363206761249939,-1.2270673745098493,2,True
2021-12-04,0.9363206761249939,0.8774116936164529,-6.291539214143871,19,True
2021-12-05,0.8774116936164529,0.8679503592024447,-1.0783232640781404,3,True
2021-12-06,0.8679503592024447,0.8570699289455291,-1.2535774818865808,12,True
2021-12-07,0.8570699289455291,0.8768627363787836,2.309357354026642,0,True
2021-12-08,0.8768627363787836,0.8820040493781779,0.586330423918624,2,True
2021-12-09,0.8820040493781779,0.8806526535776831,-0.153218775066577,2,True
2021-12-10,0.8806526535776831,0.8640339639186967,-1.8870878991248508,3,True
2021-12-11,0.8640339639186967,0.8554227522023282,-0.9966288451571548,2,True
2021-12-12,0.8554227522023282,0.8554227522023282,0.0,0,False
2021-12-13,0.8554227522023282,0.8468859736833846,-0.9979601895045764,2,True
2021-12-14,0.8468859736833846,0.8463336180928454,-0.06522195522223884,1,True
2021-12-15,0.8463336180928454,0.8432743484207822,-0.361473254360023,1,True
2021-12-16,0.8432743484207822,0.8440668174622927,0.09397523391938556,0,True
2021-12-17,0.8440668174622927,0.8404080403806855,-0.43347007676565186,5,True
2021-12-18,0.8404080403806855,0.8428701032089583,0.2929604085126991,1,True
2021-12-19,0.8428701032089583,0.8384039969490596,-0.5298688662577211,1,True
2021-12-20,0.8384039969490596,0.8384039969490596,0.0,0,False
2021-12-21,0.8384039969490596,0.8354588928544449,-0.3512750541901033,1,True
2021-12-22,0.8354588928544449,0.8359519541529954,0.05901682330125002,0,True
2021-12-23,0.8359519541529954,0.8359519541529954,0.0,0,False
2021-12-24,0.8359519541529954,0.8359519541529954,0.0,0,False
2021-12-25,0.8359519541529954,0.8429114011952628,0.832517587606918,2,True
2021-12-26,0.8429114011952628,0.8391278173847457,-0.44887087838079154,0,True
2021-12-27,0.8391278173847457,0.8391278173847457,0.0,0,False
2021-12-28,0.8391278173847457,0.8408706954442264,0.20770114199200052,1,True
2021-12-29,0.8408706954442264,0.8406634380087357,-0.024647955579104597,0,True
2021-12-30,0.8406634380087357,0.8406634380087357,0.0,0,False
2021-12-31,0.8406634380087357,0.8406634380087357,0.0,0,False
2022-01-01,0.8406634380087357,0.8406634380087357,0.0,0,False
2022-01-02,0.8406634380087357,0.8406634380087357,0.0,0,False
2022-01-03,0.8406634380087357,0.8406634380087357,0.0,0,False
2022-01-04,0.8406634380087357,0.8406634380087357,0.0,0,False
2022-01-05,0.8406634380087357,0.8420677259050189,0.1670451970183784,1,True
2022-01-06,0.8420677259050189,0.8189258452613978,-2.748220829714043,8,True
2022-01-07,0.8189258452613978,0.8225653286685415,0.44442160767095285,5,True
2022-01-08,0.8225653286685415,0.8136043200077677,-1.0893978081082833,0,True
2022-01-09,0.8136043200077677,0.8141532694118572,0.06747129908113436,1,True
2022-01-10,0.8141532694118572,0.8157184487736762,0.19224627851088805,0,True
2022-01-11,0.8157184487736762,0.8157184487736762,0.0,0,False
2022-01-12,0.8157184487736762,0.8157184487736762,0.0,0,False
2022-01-13,0.8157184487736762,0.8157184487736762,0.0,0,False
2022-01-14,0.8157184487736762,0.8157184487736762,0.0,0,False
2022-01-15,0.8157184487736762,0.8160915307031898,0.04573660557445347,1,True
2022-01-16,0.8160915307031898,0.8150099415139966,-0.13253282854942539,0,True
2022-01-17,0.8150099415139966,0.8172000634445277,0.2687233393082966,1,True
2022-01-18,0.8172000634445277,0.822214573686144,0.6136208825633149,0,True
2022-01-19,0.822214573686144,0.8181075229667479,-0.49951081516147466,1,True
2022-01-20,0.8181075229667479,0.8181075229667479,0.0,0,False
2022-01-21,0.8181075229667479,0.7859200498798099,-3.9343817509726375,8,True
2022-01-22,0.7859200498798099,0.7556503523478267,-3.8514983218219556,17,True
2022-01-23,0.7556503523478267,0.7644870628351986,1.1694179007415206,0,True
2022-01-24,0.7644870628351986,0.7537615756704128,-1.4029651626816242,5,True
2022-01-25,0.7537615756704128,0.7638601940400458,1.3397629562970303,0,True
2022-01-26,0.7638601940400458,0.7645851487788209,0.09490673089544988,1,True
2022-01-27,0.7645851487788209,0.7617620904291362,-0.36922746331047307,7,True
2022-01-28,0.7617620904291362,0.7491009502958589,-1.6620858785641013,0,True
2022-01-29,0.7491009502958589,0.7491009502958589,0.0,0,False
2022-01-30,0.7491009502958589,0.7556888476261874,0.8794405250355908,1,True
2022-01-31,0.7556888476261874,0.7556888476261874,0.0,0,False
2022-02-01,0.7556888476261874,0.7556888476261874,0.0,0,False
2022-02-02,0.7556888476261874,0.7551426334070912,-0.07228030700889843,1,True
2022-02-03,0.7551426334070912,0.7541851280948824,-0.12679794119009324,4,True
2022-02-04,0.7541851280948824,0.7663679004630906,1.6153556884610731,0,True
2022-02-05,0.7663679004630906,0.7663679004630906,0.0,0,False
2022-02-06,0.7663679004630906,0.7663679004630906,0.0,0,False
2022-02-07,0.7663679004630906,0.7663679004630906,0.0,0,False
2022-02-08,0.7663679004630906,0.7620676937200088,-0.561115195519446,3,True
2022-02-09,0.7620676937200088,0.771917413676265,1.2924993458488077,2,True
2022-02-10,0.771917413676265,0.7771082232210748,0.6724565935219085,5,True
2022-02-11,0.7771082232210748,0.7609192056841362,-2.083238479942462,0,True
2022-02-12,0.7609192056841362,0.7421818437564587,-2.462464055015001,5,True
2022-02-13,0.7421818437564587,0.7421818437564587,0.0,0,False
2022-02-14,0.7421818437564587,0.7421818437564587,0.0,0,False
2022-02-15,0.7421818437564587,0.7421818437564587,0.0,0,False
2022-02-16,0.7421818437564587,0.7421818437564587,0.0,0,False
2022-02-17,0.7421818437564587,0.7421818437564587,0.0,0,False
2022-02-18,0.7421818437564587,0.7421818437564587,0.0,0,False
2022-02-19,0.7421818437564587,0.7421818437564587,0.0,0,False
2022-02-20,0.7421818437564587,0.7421818437564587,0.0,0,False
2022-02-21,0.7421818437564587,0.7421818437564587,0.0,0,False
2022-02-22,0.7421818437564587,0.7347948304319125,-0.9953104332433904,2,True
2022-02-23,0.7347948304319125,0.7347948304319125,0.0,0,False
2022-02-24,0.7347948304319125,0.7188484862566448,-2.170176424063097,9,True
2022-02-25,0.7188484862566448,0.7301663143018058,1.5744386002811028,0,True
2022-02-26,0.7301663143018058,0.7301663143018058,0.0,0,False
2022-02-27,0.7301663143018058,0.7301663143018058,0.0,0,False
2022-02-28,0.7301663143018058,0.734365260727517,0.5750671242244598,2,True
2022-03-01,0.734365260727517,0.7416135016254722,0.9870075949364177,0,True
2022-03-02,0.7416135016254722,0.7416135016254722,0.0,0,False
2022-03-03,0.7416135016254722,0.7416135016254722,0.0,0,False
2022-03-04,0.7416135016254722,0.7494825135703381,1.0610664352278532,3,True
2022-03-05,0.7494825135703381,0.7433465887894796,-0.8186881841483751,2,True
2022-03-06,0.7433465887894796,0.7385485229697631,-0.6454681964075393,4,True
2022-03-07,0.7385485229697631,0.7389315493476332,0.05186204642719794,0,True
2022-03-08,0.7389315493476332,0.7352498754425438,-0.4982428897967184,1,True
2022-03-09,0.7352498754425438,0.7480963525869015,1.7472260211707669,2,True
2022-03-10,0.7480963525869015,0.7461041246054186,-0.26630633535290604,3,True
2022-03-11,0.7461041246054186,0.7402928707844384,-0.7788797339853271,1,True
2022-03-12,0.7402928707844384,0.7397769045295273,-0.06969758527654024,0,True
2022-03-13,0.7397769045295273,0.7397769045295273,0.0,0,False
2022-03-14,0.7397769045295273,0.736087472764754,-0.49872221506018777,1,True
2022-03-15,0.736087472764754,0.7368714311721405,0.1065034301483303,1,True
2022-03-16,0.7368714311721405,0.743082340411524,0.8428755650770503,1,True
2022-03-17,0.743082340411524,0.7443263656985944,0.1674141907855642,1,True
2022-03-18,0.7443263656985944,0.7434074609738585,-0.12345454454962823,0,True
2022-03-19,0.7434074609738585,0.7434074609738585,0.0,0,False
2022-03-20,0.7434074609738585,0.7396967792780472,-0.4991450705848832,1,True
2022-03-21,0.7396967792780472,0.7440525351114103,0.5888569418423639,4,True
2022-03-22,0.7440525351114103,0.7399117636191563,-0.5565160115520551,0,True
2022-03-23,0.7399117636191563,0.7392189560151347,-0.09363381393383552,2,True
2022-03-24,0.7392189560151347,0.7353669991784159,-0.5210846942404368,0,True
2022-03-25,0.7353669991784159,0.7353669991784159,0.0,0,False
2022-03-26,0.7353669991784159,0.7366135713410632,0.16951701178324896,1,True
2022-03-27,0.7366135713410632,0.7343734662334841,-0.3041085848446756,1,True
2022-03-28,0.7343734662334841,0.7340703437057935,-0.04127634529680346,1,True
2022-03-29,0.7340703437057935,0.7383728737350705,0.5861195818859466,1,True
2022-03-30,0.7383728737350705,0.7474377158452749,1.227678105826091,6,True
2022-03-31,0.7474377158452749,0.7475677080665011,0.017391712843828344,6,True
2022-04-01,0.7475677080665011,0.7409255803547168,-0.8884984784807481,7,True
2022-04-02,0.7409255803547168,0.7448927335413249,0.5354320719644923,1,True
2022-04-03,0.7448927335413249,0.7397461603872145,-0.6909146676250755,2,True
2022-04-04,0.7397461603872145,0.7353282298413315,-0.5972225044832302,1,True
2022-04-05,0.7353282298413315,0.7270912437324674,-1.120178142846695,6,True
2022-04-06,0.7270912437324674,0.7002104220718934,-3.697035536088056,13,True
2022-04-07,0.7002104220718934,0.7022786189380149,0.29536790669322244,2,True
2022-04-08,0.7022786189380149,0.7022786189380149,0.0,0,False
2022-04-09,0.7022786189380149,0.7022786189380149,0.0,0,False
2022-04-10,0.7022786189380149,0.7022786189380149,0.0,0,False
2022-04-11,0.7022786189380149,0.695062040976204,-1.0275947134377739,6,True
2022-04-12,0.695062040976204,0.6848384721679178,-1.4708857922851593,0,True
2022-04-13,0.6848384721679178,0.685713835019115,0.12782033819247474,1,True
2022-04-14,0.685713835019115,0.6857336369958553,0.002887790172678706,0,True
2022-04-15,0.6857336369958553,0.6867749525049652,0.15185422632493228,1,True
2022-04-16,0.6867749525049652,0.6865037322680447,-0.0394918649742837,0,True
2022-04-17,0.6865037322680447,0.6902310294768313,0.5429391034004416,1,True
2022-04-18,0.6902310294768313,0.7020796027767116,1.7166097717833617,6,True
2022-04-19,0.7020796027767116,0.7179929484384818,2.2666013367762528,1,True
2022-04-20,0.7179929484384818,0.7179929484384818,0.0,0,False
2022-04-21,0.7179929484384818,0.7166759607597474,-0.18342626924103822,3,True
2022-04-22,0.7166759607597474,0.7125251467214456,-0.5791758431385796,1,True
2022-04-23,0.7125251467214456,0.7125609522623483,0.005025161717786553,2,True
2022-04-24,0.7125609522623483,0.7130046062766968,0.062261903762750315,0,True
2022-04-25,0.7130046062766968,0.708407271131611,-0.6447833723113083,3,True
2022-04-26,0.708407271131611,0.7115432576572367,0.44268130119786697,2,True
2022-04-27,0.7115432576572367,0.7087521021981209,-0.3922678528787804,0,True
2022-04-28,0.7087521021981209,0.710319673035028,0.2211733597749399,1,True
2022-04-29,0.710319673035028,0.699923666418881,-1.4635673219815626,2,True
2022-04-30,0.699923666418881,0.6920241790315982,-1.1286212720452937,2,True
2022-05-01,0.6920241790315982,0.6977181725914019,0.8228026898961405,7,True
2022-05-02,0.6977181725914019,0.7008332552019549,0.4464671744156101,1,True
2022-05-03,0.7008332552019549,0.7072922461285203,0.9216159305545535,3,True
2022-05-04,0.7072922461285203,0.7021914367261839,-0.721174228935284,1,True
2022-05-05,0.7021914367261839,0.7021914367261839,0.0,0,False
2022-05-06,0.7021914367261839,0.685293878041718,-2.4064034109055887,8,True
2022-05-07,0.685293878041718,0.6826367677633653,-0.3877329658840134,2,True
2022-05-08,0.6826367677633653,0.6747494652829266,-1.1554171783452638,3,True
2022-05-09,0.6747494652829266,0.664559460148032,-1.510190916657017,5,True
2022-05-10,0.664559460148032,0.6597108734208124,-0.7295941173028564,14,True
2022-05-11,0.6597108734208124,0.6372265758394035,-3.4082047889889444,22,True
2022-05-12,0.6372265758394035,0.6068281456745881,-4.770427241640418,1,True
2022-05-13,0.6068281456745881,0.6317380702893102,4.104938901116828,6,True
2022-05-14,0.6317380702893102,0.6101276138253339,-3.420793756197027,8,True
2022-05-15,0.6101276138253339,0.6133125596718013,0.5220130632178188,2,True
2022-05-16,0.6133125596718013,0.6148555978364341,0.2515908308576842,9,True
2022-05-17,0.6148555978364341,0.6246453035585775,1.592195916665906,4,True
2022-05-18,0.6246453035585775,0.6069792527068887,-2.8281731650019792,2,True
2022-05-19,0.6069792527068887,0.6108641360697372,0.640035610035028,6,True
2022-05-20,0.6108641360697372,0.6090504066369142,-0.29691208334677865,1,True
2022-05-21,0.6090504066369142,0.6090504066369142,0.0,0,False
2022-05-22,0.6090504066369142,0.6090504066369142,0.0,0,False
2022-05-23,0.6090504066369142,0.6111344918787349,0.34218600285134126,4,True
2022-05-24,0.6111344918787349,0.5866340486709046,-4.009010051537365,8,True
2022-05-25,0.5866340486709046,0.5853590862895612,-0.21733521677304024,1,True
2022-05-26,0.5853590862895612,0.578805673880834,-1.119554229570019,13,True
2022-05-27,0.578805673880834,0.5671668109849488,-2.0108411892108435,4,True
2022-05-28,0.5671668109849488,0.567982154237037,0.14375722208996855,0,True
2022-05-29,0.567982154237037,0.569183633374285,0.21153466324341785,3,True
2022-05-30,0.569183633374285,0.5697825061115831,0.10521608531639526,0,True
2022-05-31,0.5697825061115831,0.5630206578915261,-1.1867419844463933,5,True
2022-06-01,0.5630206578915261,0.5582706928585213,-0.8436573270318548,2,True
2022-06-02,0.5582706928585213,0.5531285467464464,-0.9210847314490844,6,True
2022-06-03,0.5531285467464464,0.5544087788544523,0.23145290828621157,0,True
2022-06-04,0.5544087788544523,0.5544087788544523,0.0,0,False
2022-06-05,0.5544087788544523,0.5544087788544523,0.0,0,False
2022-06-06,0.5544087788544523,0.5558334295335011,0.2569675541560734,1,True
2022-06-07,0.5558334295335011,0.5511108421741711,-0.8496407571767728,4,True
2022-06-08,0.5511108421741711,0.5634878314970202,2.245825771458443,4,True
2022-06-09,0.5634878314970202,0.5637650691978107,0.04920029950850058,4,True
2022-06-10,0.5637650691978107,0.5654209696000058,0.2937217101001588,5,True
2022-06-11,0.5654209696000058,0.56053185053218,-0.8646865487292432,6,True
2022-06-12,0.56053185053218,0.5549202803727972,-1.001115307552125,13,True
2022-06-13,0.5549202803727972,0.5213530046618092,-6.049026661710277,7,True
2022-06-14,0.5213530046618092,0.5271801344996246,1.1176937287616484,6,True
2022-06-15,0.5271801344996246,0.5209068304182565,-1.189973534818889,7,True
2022-06-16,0.5209068304182565,0.5331955954425747,2.359109980272489,7,True
2022-06-17,0.5331955954425747,0.537358929133011,0.7808267221300902,1,True
2022-06-18,0.537358929133011,0.5323372407719332,-0.9345128719047913,6,True
2022-06-19,0.5323372407719332,0.5399315015970388,1.426588305956833,3,True
2022-06-20,0.5399315015970388,0.542881128729677,0.5462965438974399,1,True
2022-06-21,0.542881128729677,0.5417069557402083,-0.2162854679101045,0,True
2022-06-22,0.5417069557402083,0.5401722635055629,-0.283306724859822,5,True
2022-06-23,0.5401722635055629,0.5482745286806494,1.4999409859560497,1,True
2022-06-24,0.5482745286806494,0.5443046771029209,-0.7240627404817568,2,True
2022-06-25,0.5443046771029209,0.5439764781445522,-0.06029692048863389,4,True
2022-06-26,0.5439764781445522,0.5478119644945542,0.7050831247491507,0,True
2022-06-27,0.5478119644945542,0.5449587243169584,-0.5208429830897199,5,True
2022-06-28,0.5449587243169584,0.5411265050173794,-0.7032127624678752,4,True
2022-06-29,0.5411265050173794,0.5410622399020809,-0.011876172152458508,4,True
2022-06-30,0.5410622399020809,0.5353891973431999,-1.0485009192117478,2,True
2022-07-01,0.5353891973431999,0.5354915921610984,0.01912530518111133,1,True
2022-07-02,0.5354915921610984,0.5350223099104251,-0.0876357831837149,1,True
2022-07-03,0.5350223099104251,0.5358176196644262,0.148649829973313,1,True
2022-07-04,0.5358176196644262,0.5383374785558153,0.4702829468294034,0,True
2022-07-05,0.5383374785558153,0.5385468976893739,0.0389010874963569,1,True
2022-07-06,0.5385468976893739,0.5393885559241918,0.15628318321561085,0,True
2022-07-07,0.5393885559241918,0.5393885559241918,0.0,0,False
2022-07-08,0.5393885559241918,0.5393885559241918,0.0,0,False
2022-07-09,0.5393885559241918,0.5393885559241918,0.0,0,False
2022-07-10,0.5393885559241918,0.5393885559241918,0.0,0,False
2022-07-11,0.5393885559241918,0.5366984279187921,-0.49873657419193806,1,True
2022-07-12,0.5366984279187921,0.5386761287982198,0.36849388344528666,2,True
2022-07-13,0.5386761287982198,0.5445884086320631,1.0975574223111684,5,True
2022-07-14,0.5445884086320631,0.5536196232284846,1.6583560085508875,0,True
2022-07-15,0.5536196232284846,0.5536196232284846,0.0,0,False
2022-07-16,0.5536196232284846,0.5536196232284846,0.0,0,False
2022-07-17,0.5536196232284846,0.5536196232284846,0.0,0,False
2022-07-18,0.5536196232284846,0.5544365195929107,0.14755552913070513,1,True
2022-07-19,0.5544365195929107,0.5565051233935399,0.3731002067013822,0,True
2022-07-20,0.5565051233935399,0.5572259724976898,0.12953144074474565,2,True
2022-07-21,0.5572259724976898,0.5481005807013148,-1.6376465288349018,6,True
2022-07-22,0.5481005807013148,0.5492241982223197,0.2050020672423214,0,True
2022-07-23,0.5492241982223197,0.5529170060208948,0.6723680075509497,2,True
2022-07-24,0.5529170060208948,0.556721249174439,0.6880314969730739,3,True
2022-07-25,0.556721249174439,0.5570591939600414,0.06070269207500978,1,True
2022-07-26,0.5570591939600414,0.5565655813209258,-0.08861044651405914,1,True
2022-07-27,0.5565655813209258,0.557167256230728,0.10810494396262804,1,True
2022-07-28,0.557167256230728,0.5573780747056445,0.0378375564175526,0,True
2022-07-29,0.5573780747056445,0.5594229224044186,0.3668690591846602,2,True
2022-07-30,0.5594229224044186,0.5626542475225383,0.577617574952316,1,True
2022-07-31,0.5626542475225383,0.562216717345847,-0.07776181884663336,1,True
2022-08-01,0.562216717345847,0.5609221023975886,-0.23026973555146935,1,True
2022-08-02,0.5609221023975886,0.5550277234571175,-1.0508373471603827,5,True
2022-08-03,0.5550277234571175,0.5560082723694488,0.17666665481568256,1,True
2022-08-04,0.5560082723694488,0.5541812228371201,-0.32860114194752654,0,True
2022-08-05,0.5541812228371201,0.5606104385408869,1.1601287519004133,2,True
2022-08-06,0.5606104385408869,0.5605028739764943,-0.019187042730151038,0,True
2022-08-07,0.5605028739764943,0.5610812206378964,0.10318353183438322,2,True
2022-08-08,0.5610812206378964,0.5615658231639954,0.08636940754280786,0,True
2022-08-09,0.5615658231639954,0.5590745113452434,-0.44363665237234784,6,True
2022-08-10,0.5590745113452434,0.5714683829552124,2.2168550628693273,0,True
2022-08-11,0.5714683829552124,0.5728553278987071,0.2426984562684753,1,True
2022-08-12,0.5728553278987071,0.5699075085860831,-0.5145835552297084,3,True
2022-08-13,0.5699075085860831,0.5689565447728857,-0.16686283280539227,0,True
2022-08-14,0.5689565447728857,0.5689565447728857,0.0,0,False
2022-08-15,0.5689565447728857,0.5689565447728857,0.0,0,False
2022-08-16,0.5689565447728857,0.5655549437249803,-0.5978665821065987,2,True
2022-08-17,0.5655549437249803,0.5631440976598645,-0.42627972611058995,1,True
2022-08-18,0.5631440976598645,0.5604676466597207,-0.4752692980829809,1,True
2022-08-19,0.5604676466597207,0.5458295774946309,-2.611759885219045,11,True
2022-08-20,0.5458295774946309,0.545809577269189,-0.0036641886527521983,1,True
2022-08-21,0.545809577269189,0.5494231365212846,0.6620549368472117,0,True
2022-08-22,0.5494231365212846,0.5494231365212846,0.0,0,False
2022-08-23,0.5494231365212846,0.5494231365212846,0.0,0,False
2022-08-24,0.5494231365212846,0.5494231365212846,0.0,0,False
2022-08-25,0.5494231365212846,0.5480822061749495,-0.24406149963492885,1,True
2022-08-26,0.5480822061749495,0.547148553228169,-0.17034907104472863,1,True
2022-08-27,0.547148553228169,0.545911392836798,-0.22611051131758986,6,True
2022-08-28,0.545911392836798,0.5453856022735957,-0.09631426823135669,0,True
2022-08-29,0.5453856022735957,0.5485244108669165,0.5755209855624832,2,True
2022-08-30,0.5485244108669165,0.5488456713160021,0.058568122534041756,1,True
2022-08-31,0.5488456713160021,0.547165800123137,-0.30607350675413425,2,True
2022-09-01,0.547165800123137,0.54228359704494,-0.8922712415685097,1,True
2022-09-02,0.54228359704494,0.5423535884962863,0.012906798532674735,0,True
2022-09-03,0.5423535884962863,0.5423535884962863,0.0,0,False
2022-09-04,0.5423535884962863,0.5423535884962863,0.0,0,False
2022-09-05,0.5423535884962863,0.5423535884962863,0.0,0,False
2022-09-06,0.5423535884962863,0.5408336073136062,-0.28025649961944676,1,True
2022-09-07,0.5408336073136062,0.5330331222127705,-1.4423077625633662,5,True
2022-09-08,0.5330331222127705,0.5330331222127705,0.0,0,False
2022-09-09,0.5330331222127705,0.5330331222127705,0.0,0,False
2022-09-10,0.5330331222127705,0.5339863286652105,0.17882687073607073,1,True
2022-09-11,0.5339863286652105,0.5378359353103155,0.7209185775837623,0,True
2022-09-12,0.5378359353103155,0.5378359353103155,0.0,0,False
2022-09-13,0.5378359353103155,0.5314770343724278,-1.1823123968499494,4,True
2022-09-14,0.5314770343724278,0.5364283327220016,0.9316109689331054,3,True
2022-09-15,0.5364283327220016,0.536111768723982,-0.0590132882081873,3,True
2022-09-16,0.536111768723982,0.5292158648315192,-1.2862810135423897,2,True
2022-09-17,0.5292158648315192,0.528616518867694,-0.11325170004417018,1,True
2022-09-18,0.528616518867694,0.5295642273875695,0.17928091273149427,0,True
2022-09-19,0.5295642273875695,0.5267666049036094,-0.5282876635684497,8,True
2022-09-20,0.5267666049036094,0.5267748962391388,0.001574005537219314,0,True
2022-09-21,0.5267748962391388,0.5267748962391388,0.0,0,False
2022-09-22,0.5267748962391388,0.5263417251049961,-0.08223078533833306,2,True
2022-09-23,0.5263417251049961,0.525754867327259,-0.11149748343057819,2,True
2022-09-24,0.525754867327259,0.5273082057031104,0.29544916697548107,0,True
2022-09-25,0.5273082057031104,0.5273082057031104,0.0,0,False
2022-09-26,0.5273082057031104,0.5273082057031104,0.0,0,False
2022-09-27,0.5273082057031104,0.5273082057031104,0.0,0,False
2022-09-28,0.5273082057031104,0.5273082057031104,0.0,0,False
2022-09-29,0.5273082057031104,0.5273082057031104,0.0,0,False
2022-09-30,0.5273082057031104,0.5260245115618878,-0.24344285321920012,1,True
2022-10-01,0.5260245115618878,0.5258269209256838,-0.03756300930107814,0,True
2022-10-02,0.5258269209256838,0.5258269209256838,0.0,0,False
2022-10-03,0.5258269209256838,0.5258269209256838,0.0,0,False
2022-10-04,0.5258269209256838,0.5258269209256838,0.0,0,False
2022-10-05,0.5258269209256838,0.5258269209256838,0.0,0,False
2022-10-06,0.5258269209256838,0.5258269209256838,0.0,0,False
2022-10-07,0.5258269209256838,0.5258269209256838,0.0,0,False
2022-10-08,0.5258269209256838,0.5243682441443548,-0.2774062573215441,1,True
2022-10-09,0.5243682441443548,0.5235370457440978,-0.15851425206218073,0,True
2022-10-10,0.5235370457440978,0.5235370457440978,0.0,0,False
2022-10-11,0.5235370457440978,0.5329373843207108,1.7955441077244894,6,True
2022-10-12,0.5329373843207108,0.5334716944245604,0.10025757613734143,2,True
2022-10-13,0.5334716944245604,0.5331883973604157,-0.053104422803607054,1,True
2022-10-14,0.5331883973604157,0.5352806091455627,0.3923963453639878,0,True
2022-10-15,0.5352806091455627,0.5352806091455627,0.0,0,False
2022-10-16,0.5352806091455627,0.5352806091455627,0.0,0,False
2022-10-17,0.5352806091455627,0.5352806091455627,0.0,0,False
2022-10-18,0.5352806091455627,0.5352806091455627,0.0,0,False
2022-10-19,0.5352806091455627,0.5352806091455627,0.0,0,False
2022-10-20,0.5352806091455627,0.5383933440089801,0.5815145944453315,2,True
2022-10-21,0.5383933440089801,0.5346716400161164,-0.6912611447145944,0,True
2022-10-22,0.5346716400161164,0.5346716400161164,0.0,0,False
2022-10-23,0.5346716400161164,0.5346716400161164,0.0,0,False
2022-10-24,0.5346716400161164,0.5346716400161164,0.0,0,False
2022-10-25,0.5346716400161164,0.5329469622554956,-0.3225676530307142,1,True
2022-10-26,0.5329469622554956,0.531999136803083,-0.1778461121912378,0,True
2022-10-27,0.531999136803083,0.531999136803083,0.0,0,False
2022-10-28,0.531999136803083,0.5293457573025876,-0.49875635446331446,1,True
2022-10-29,0.5293457573025876,0.5293457573025876,0.0,0,False
2022-10-30,0.5293457573025876,0.5266953793881222,-0.5006893656749223,2,True
2022-10-31,0.5266953793881222,0.5275415926197186,0.16066463931760921,1,True
2022-11-01,0.5275415926197186,0.5303323027402057,0.5290028614860054,0,True
2022-11-02,0.5303323027402057,0.5361784029426164,1.102346617810035,3,True
2022-11-03,0.5361784029426164,0.5439764289042129,1.4543715149285985,3,True
2022-11-04,0.5439764289042129,0.5510919978240255,1.3080656700780624,5,True
2022-11-05,0.5510919978240255,0.5509625973180818,-0.023480744858317415,2,True
2022-11-06,0.5509625973180818,0.5493824068710677,-0.2868053938154924,2,True
2022-11-07,0.5493824068710677,0.5438278674247637,-1.011051569332011,7,True
2022-11-08,0.5438278674247637,0.5289283384090216,-2.739750922713313,12,True
2022-11-09,0.5289283384090216,0.49738624920254276,-5.963395589912091,14,True
2022-11-10,0.49738624920254276,0.5089747357372679,2.3298767413262755,9,True
2022-11-11,0.5089747357372679,0.5071707942743151,-0.3544265238115907,10,True
2022-11-12,0.5071707942743151,0.5013880545863216,-1.1401957197215373,4,True
2022-11-13,0.5013880545863216,0.49837418734584005,-0.60110471578112,1,True
2022-11-14,0.49837418734584005,0.5029361786988552,0.9153747262294454,7,True
2022-11-15,0.5029361786988552,0.5045239782334141,0.31570596863139677,1,True
2022-11-16,0.5045239782334141,0.5016149330504227,-0.5765920567695093,2,True
2022-11-17,0.5016149330504227,0.5025220836072162,0.18084600298418074,1,True
2022-11-18,0.5025220836072162,0.5039670716428634,0.287547171116298,0,True
2022-11-19,0.5039670716428634,0.5036502424354833,-0.06286704533041698,3,True
2022-11-20,0.5036502424354833,0.49687886570234047,-1.3444601357479158,3,True
2022-11-21,0.49687886570234047,0.48887097245118316,-1.6116389333319936,8,True
2022-11-22,0.48887097245118316,0.47841050071902497,-2.1397203601002834,2,True
2022-11-23,0.47841050071902497,0.48263036446284796,0.8820591808668121,1,True
2022-11-24,0.48263036446284796,0.4796295385274843,-0.6217648445520974,2,True
2022-11-25,0.4796295385274843,0.4773213890877767,-0.48123588192542366,2,True
2022-11-26,0.4773213890877767,0.478213925215513,0.18698850463039207,0,True
2022-11-27,0.478213925215513,0.478213925215513,0.0,0,False
2022-11-28,0.478213925215513,0.4717187232961426,-1.3582209920890986,4,True
2022-11-29,0.4717187232961426,0.4717187232961426,0.0,0,False
2022-11-30,0.4717187232961426,0.4717187232961426,0.0,0,False
2022-12-01,0.4717187232961426,0.4718129083654853,0.01996636230263693,2,True
2022-12-02,0.4718129083654853,0.472029021039471,0.04580473958086806,1,True
2022-12-03,0.472029021039471,0.4719155363152115,-0.024041895561754956,0,True
2022-12-04,0.4719155363152115,0.4719155363152115,0.0,0,False
2022-12-05,0.4719155363152115,0.4719155363152115,0.0,0,False
2022-12-06,0.4719155363152115,0.4724943711782706,0.12265645407198988,2,True
2022-12-07,0.4724943711782706,0.47016914353633943,-0.4921175327724403,1,True
2022-12-08,0.47016914353633943,0.4687620816929875,-0.2992671600626218,2,True
2022-12-09,0.4687620816929875,0.47034661938123906,0.33802599445091897,0,True
2022-12-10,0.47034661938123906,0.47034661938123906,0.0,0,False
2022-12-11,0.47034661938123906,0.47034661938123906,0.0,0,False
2022-12-12,0.47034661938123906,0.4699412490829522,-0.08618543890464014,1,True
2022-12-13,0.4699412490829522,0.4704648951174041,0.11142797859811093,1,True
2022-12-14,0.4704648951174041,0.47034177682071593,-0.0261694970158044,0,True
2022-12-15,0.47034177682071593,0.47034177682071593,0.0,0,False
2022-12-16,0.47034177682071593,0.47080699015090816,0.09890963404035613,5,True
2022-12-17,0.47080699015090816,0.4676167868204166,-0.6776032211138205,5,True
2022-12-18,0.4676167868204166,0.46765664764850623,0.008524250885155737,0,True
2022-12-19,0.46765664764850623,0.4653247217904561,-0.49864058808436473,1,True
2022-12-20,0.4653247217904561,0.4653247217904561,0.0,0,False
2022-12-21,0.4653247217904561,0.4653247217904561,0.0,0,False
2022-12-22,0.4653247217904561,0.4653247217904561,0.0,0,False
2022-12-23,0.4653247217904561,0.4653247217904561,0.0,0,False
2022-12-24,0.4653247217904561,0.4653247217904561,0.0,0,False
2022-12-25,0.4653247217904561,0.4653247217904561,0.0,0,False
2022-12-26,0.4653247217904561,0.4653247217904561,0.0,0,False
2022-12-27,0.4653247217904561,0.4653247217904561,0.0,0,False
2022-12-28,0.4653247217904561,0.4667630633255094,0.30910490410200886,4,True
2022-12-29,0.4667630633255094,0.4623361683967181,-0.9484244312845447,0,True
2022-12-30,0.4623361683967181,0.46648201989270716,0.8967179683056159,1,True
2022-12-31,0.46648201989270716,0.46648201989270716,0.0,0,False
2023-01-01,0.46648201989270716,0.46648201989270716,0.0,0,False
2023-01-02,0.46648201989270716,0.46658711727306684,0.02252978161598751,1,True
2023-01-03,0.46658711727306684,0.4666277114217273,0.008700229208580268,0,True
2023-01-04,0.4666277114217273,0.4666277114217273,0.0,0,False
2023-01-05,0.4666277114217273,0.4666277114217273,0.0,0,False
2023-01-06,0.4666277114217273,0.46605503339205273,-0.12272696534240124,1,True
2023-01-07,0.46605503339205273,0.46708422971876157,0.22083150121094963,0,True
2023-01-08,0.46708422971876157,0.46708422971876157,0.0,0,False
2023-01-09,0.46708422971876157,0.46710915835164635,0.005337074407285591,1,True
2023-01-10,0.46710915835164635,0.4666688224614552,-0.09426830588058488,2,True
2023-01-11,0.4666688224614552,0.4621555434758033,-0.9671267435108488,3,True
2023-01-12,0.4621555434758033,0.4600006279518431,-0.4662749488523632,0,True
2023-01-13,0.4600006279518431,0.45992307747900424,-0.016858775429107187,1,True
2023-01-14,0.45992307747900424,0.46223999621471457,0.5037622265901875,4,True
2023-01-15,0.46223999621471457,0.4612358317474283,-0.21723876676820186,2,True
2023-01-16,0.4612358317474283,0.46086385953393394,-0.08064685956534756,1,True
2023-01-17,0.46086385953393394,0.46057623204410575,-0.062410511017085835,0,True
2023-01-18,0.46057623204410575,0.46057623204410575,0.0,0,False
2023-01-19,0.46057623204410575,0.45349183174438645,-1.5381602016842466,7,True
2023-01-20,0.45349183174438645,0.45425311901596854,0.16787232278334674,0,True
2023-01-21,0.45425311901596854,0.4529964833269037,-0.276637767900656,3,True
2023-01-22,0.4529964833269037,0.45670960265892047,0.8196795049592476,1,True
2023-01-23,0.45670960265892047,0.4555810202462922,-0.24711160134530674,1,True
2023-01-24,0.4555810202462922,0.4601435363771652,1.00147195078637,4,True
2023-01-25,0.4601435363771652,0.45557639005708245,-0.9925481852991247,8,True
2023-01-26,0.45557639005708245,0.4631892438357414,1.6710378203982579,0,True
2023-01-27,0.4631892438357414,0.462042959871888,-0.24747637798340216,2,True
2023-01-28,0.462042959871888,0.4665233369657282,0.9696884235791625,0,True
2023-01-29,0.4665233369657282,0.4656710331256551,-0.18269264847852185,1,True
2023-01-30,0.4656710331256551,0.4649710422764347,-0.15031874422636315,5,True
2023-01-31,0.4649710422764347,0.4700431839367025,1.0908510851418418,5,True
2023-02-01,0.4700431839367025,0.4704399856695861,0.08441814421396021,2,True
2023-02-02,0.4704399856695861,0.4751038177611783,0.9913766332923624,0,True
2023-02-03,0.4751038177611783,0.47935638698584715,0.8950820990469177,2,True
2023-02-04,0.47935638698584715,0.48082450952902545,0.3062695278579053,0,True
2023-02-05,0.48082450952902545,0.48218612364910257,0.2831831766252568,5,True
2023-02-06,0.48218612364910257,0.4740272813754186,-1.6920524821285254,2,True
2023-02-07,0.4740272813754186,0.47256215474996704,-0.30908065485184544,0,True
2023-02-08,0.47256215474996704,0.46849018874429244,-0.8616783982265952,3,True
2023-02-09,0.46849018874429244,0.46500482049657005,-0.7439575750912364,9,True
2023-02-10,0.46500482049657005,0.44931265474437043,-3.374624317967767,8,True
2023-02-11,0.44931265474437043,0.45239356618746235,0.6856943401348792,2,True
2023-02-12,0.45239356618746235,0.4551195277930934,0.602564185119614,1,True
2023-02-13,0.4551195277930934,0.4576771946010858,0.5619769427154031,2,True
2023-02-14,0.4576771946010858,0.45717094885138565,-0.11061196748974877,1,True
2023-02-15,0.45717094885138565,0.45782858489424316,0.14384904476318905,0,True
2023-02-16,0.45782858489424316,0.45782858489424316,0.0,0,False
2023-02-17,0.45782858489424316,0.4618377355885276,0.8756881563457997,1,True
2023-02-18,0.4618377355885276,0.4622373620153811,0.08652961766848488,1,True
2023-02-19,0.4622373620153811,0.4630045976780734,0.1659830480485347,1,True
2023-02-20,0.4630045976780734,0.4660406915191545,0.6557372985726007,3,True
2023-02-21,0.4660406915191545,0.4668446592531433,0.17251020106594517,5,True
2023-02-22,0.4668446592531433,0.46535281727390654,-0.31955854044113385,1,True
2023-02-23,0.46535281727390654,0.4689256001515431,0.7677578699461618,1,True
2023-02-24,0.4689256001515431,0.4689256001515431,0.0,0,False
2023-02-25,0.4689256001515431,0.466996787648639,-0.41132591231546334,2,True
2023-02-26,0.466996787648639,0.4667199714276837,-0.05927582978656476,0,True
2023-02-27,0.4667199714276837,0.4643888063823976,-0.49947831419235866,1,True
2023-02-28,0.4643888063823976,0.46341415239712364,-0.20987887129892968,1,True
2023-03-01,0.46341415239712364,0.4628999346032071,-0.11096290246135343,1,True
2023-03-02,0.4628999346032071,0.46034759234585854,-0.5513809932888414,1,True
2023-03-03,0.46034759234585854,0.45689636079518164,-0.7497012275202608,9,True
2023-03-04,0.45689636079518164,0.4583785878639462,0.3244120977862197,0,True
2023-03-05,0.4583785878639462,0.46626067397347926,1.7195580941648636,4,True
2023-03-06,0.46626067397347926,0.46779931018378723,0.3299948497040628,0,True
2023-03-07,0.46779931018378723,0.46779931018378723,0.0,0,False
2023-03-08,0.46779931018378723,0.46779931018378723,0.0,0,False
2023-03-09,0.46779931018378723,0.46779931018378723,0.0,0,False
2023-03-10,0.46779931018378723,0.456323921231596,-2.4530581175254085,10,True
2023-03-11,0.456323921231596,0.4510476192652537,-1.1562624094090368,4,True
2023-03-12,0.4510476192652537,0.45240508888107617,0.300959268565415,0,True
2023-03-13,0.45240508888107617,0.45240508888107617,0.0,0,False
2023-03-14,0.45240508888107617,0.45645853511273426,0.8959771521764637,1,True
2023-03-15,0.45645853511273426,0.4505568786102624,-1.2929228064525788,4,True
2023-03-16,0.4505568786102624,0.4494818815095592,-0.23859298386899042,5,True
2023-03-17,0.4494818815095592,0.44774980120884095,-0.38535041610602283,2,True
2023-03-18,0.44774980120884095,0.4523582285332259,1.0292416237691393,2,True
2023-03-19,0.4523582285332259,0.4501780992080572,-0.4819475335372525,2,True
2023-03-20,0.4501780992080572,0.452334968392995,0.4791146412346903,4,True
2023-03-21,0.452334968392995,0.4415668947020525,-2.3805530068122027,1,True
2023-03-22,0.4415668947020525,0.4415668947020525,0.0,0,False
2023-03-23,0.4415668947020525,0.4458289566862166,0.9652132067192065,6,True
2023-03-24,0.4458289566862166,0.43988067381923773,-1.3342073855389769,1,True
2023-03-25,0.43988067381923773,0.4376832544164674,-0.49954897624653327,1,True
2023-03-26,0.4376832544164674,0.4376832544164674,0.0,0,False
2023-03-27,0.4376832544164674,0.4355010655247846,-0.4985771947323192,1,True
2023-03-28,0.4355010655247846,0.44255632767707465,1.620033269904475,4,True
2023-03-29,0.44255632767707465,0.44263091439584734,0.016853610288247722,0,True
2023-03-30,0.44263091439584734,0.44151919018912084,-0.2511628019122636,1,True
2023-03-31,0.44151919018912084,0.44041800023452754,-0.24940930746897294,0,True
2023-04-01,0.44041800023452754,0.4400436571872884,-0.08499721787933456,1,True
2023-04-02,0.4400436571872884,0.4391098493695969,-0.2122079940113819,0,True
2023-04-03,0.4391098493695969,0.4391098493695969,0.0,0,False
2023-04-04,0.4391098493695969,0.43926654676158805,0.03568523735373308,1,True
2023-04-05,0.43926654676158805,0.4385841913710341,-0.15533971243303357,1,True
2023-04-06,0.4385841913710341,0.4330822363655636,-1.254480921501333,2,True
2023-04-07,0.4330822363655636,0.4314268457279868,-0.38223471169560597,1,True
2023-04-08,0.4314268457279868,0.432267965207513,0.1949622486071556,1,True
2023-04-09,0.432267965207513,0.43236489581141385,0.022423730579790302,0,True
2023-04-10,0.43236489581141385,0.43236489581141385,0.0,0,False
2023-04-11,0.43236489581141385,0.43236489581141385,0.0,0,False
2023-04-12,0.43236489581141385,0.43607044231991055,0.8570414814881078,1,True
2023-04-13,0.43607044231991055,0.43607044231991055,0.0,0,False
2023-04-14,0.43607044231991055,0.4397569151017916,0.8453846957085398,1,True
2023-04-15,0.4397569151017916,0.43886301885977824,-0.20327053681610252,1,True
2023-04-16,0.43886301885977824,0.4403465106710151,0.33803071744142876,0,True
2023-04-17,0.4403465106710151,0.43814715053486597,-0.49946123855907354,1,True
2023-04-18,0.43814715053486597,0.43814715053486597,0.0,0,False
2023-04-19,0.43814715053486597,0.4307143292847316,-1.696421223112099,9,True
2023-04-20,0.4307143292847316,0.42490469088834926,-1.3488379655327787,0,True
2023-04-21,0.42490469088834926,0.42490469088834926,0.0,0,False
2023-04-22,0.42490469088834926,0.4244449509633722,-0.10819836420630224,1,True
2023-04-23,0.4244449509633722,0.4244843590870521,0.009284625389094359,0,True
2023-04-24,0.4244843590870521,0.4244843590870521,0.0,0,False
2023-04-25,0.4244843590870521,0.4244843590870521,0.0,0,False
2023-04-26,0.4244843590870521,0.4244843590870521,0.0,0,False
2023-04-27,0.4244843590870521,0.42726497134169195,0.6550564691288452,9,True
2023-04-28,0.42726497134169195,0.42795954354677895,0.16256240311625092,0,True
2023-04-29,0.42795954354677895,0.42582473744856675,-0.4988336235055457,1,True
2023-04-30,0.42582473744856675,0.42582473744856675,0.0,0,False
2023-05-01,0.42582473744856675,0.42582473744856675,0.0,0,False
2023-05-02,0.42582473744856675,0.42582473744856675,0.0,0,False
2023-05-03,0.42582473744856675,0.42582473744856675,0.0,0,False
2023-05-04,0.42582473744856675,0.42582473744856675,0.0,0,False
2023-05-05,0.42582473744856675,0.42582473744856675,0.0,0,False
2023-05-06,0.42582473744856675,0.42370284305342104,-0.4983022846111629,1,True
2023-05-07,0.42370284305342104,0.42370284305342104,0.0,0,False
2023-05-08,0.42370284305342104,0.41885466263785576,-1.1442407090372142,7,True
2023-05-09,0.41885466263785576,0.41311729835492705,-1.369774481390762,6,True
2023-05-10,0.41311729835492705,0.41054828112920966,-0.6218614509601705,2,True
2023-05-11,0.41054828112920966,0.4082080865950292,-0.570016887598157,4,True
2023-05-12,0.4082080865950292,0.4055583619610816,-0.6491112550095934,0,True
2023-05-13,0.4055583619610816,0.4055583619610816,0.0,0,False
2023-05-14,0.4055583619610816,0.4055583619610816,0.0,0,False
2023-05-15,0.4055583619610816,0.4055583619610816,0.0,0,False
2023-05-16,0.4055583619610816,0.4055583619610816,0.0,0,False
2023-05-17,0.4055583619610816,0.4055583619610816,0.0,0,False
2023-05-18,0.4055583619610816,0.4042715232558394,-0.31730049875426936,1,True
2023-05-19,0.4042715232558394,0.40353212619773143,-0.18289615161444228,0,True
2023-05-20,0.40353212619773143,0.40353212619773143,0.0,0,False
2023-05-21,0.40353212619773143,0.40353212619773143,0.0,0,False
2023-05-22,0.40353212619773143,0.40151637382006516,-0.49952711241596504,1,True
2023-05-23,0.40151637382006516,0.40151637382006516,0.0,0,False
2023-05-24,0.40151637382006516,0.40032730472767397,-0.2961446082704655,1,True
2023-05-25,0.40032730472767397,0.4022445276930877,0.4789138644234914,0,True
2023-05-26,0.4022445276930877,0.402948291059182,0.17495909021569833,1,True
2023-05-27,0.402948291059182,0.40428558837260986,0.33187814493831347,0,True
2023-05-28,0.40428558837260986,0.40428558837260986,0.0,0,False
2023-05-29,0.40428558837260986,0.40428558837260986,0.0,0,False
2023-05-30,0.40428558837260986,0.406104857366154,0.4499960042769091,2,True
2023-05-31,0.406104857366154,0.4020116096319173,-1.0079287799668268,1,True
2023-06-01,0.4020116096319173,0.4020116096319173,0.0,0,False
2023-06-02,0.4020116096319173,0.40566299939529293,0.9082796804597004,1,True
2023-06-03,0.40566299939529293,0.40566299939529293,0.0,0,False
2023-06-04,0.40566299939529293,0.40273654924391317,-0.7213993279500786,3,True
2023-06-05,0.40273654924391317,0.4046267193717479,0.46933165896745344,1,True
2023-06-06,0.4046267193717479,0.3891849842712121,-3.8162915005988007,11,True
2023-06-07,0.3891849842712121,0.3877231793299315,-0.3756067166923227,1,True
2023-06-08,0.3877231793299315,0.38714115592574116,-0.15011313102203383,1,True
2023-06-09,0.38714115592574116,0.3859957041020993,-0.29587446493587466,1,True
2023-06-10,0.3859957041020993,0.3911271219699537,1.3293976625442072,7,True
2023-06-11,0.3911271219699537,0.39091014946254127,-0.05547365427374107,0,True
2023-06-12,0.39091014946254127,0.39091014946254127,0.0,0,False
2023-06-13,0.39091014946254127,0.391243892326456,0.0853758502749491,1,True
2023-06-14,0.391243892326456,0.39122282041457473,-0.005385876251251531,0,True
2023-06-15,0.39122282041457473,0.3931664343793152,0.49680485475791514,5,True
2023-06-16,0.3931664343793152,0.396958735044956,0.9645535157719154,0,True
2023-06-17,0.396958735044956,0.39754836512899466,0.14853687096012536,1,True
2023-06-18,0.39754836512899466,0.39804499534609344,0.12492321957797703,0,True
2023-06-19,0.39804499534609344,0.40004830326501667,0.5032867998205459,1,True
2023-06-20,0.40004830326501667,0.3983730769408856,-0.41875601282610475,1,True
2023-06-21,0.3983730769408856,0.3983730769408856,0.0,0,False
2023-06-22,0.3983730769408856,0.39638133595577363,-0.4999687730924407,1,True
2023-06-23,0.39638133595577363,0.39638133595577363,0.0,0,False
2023-06-24,0.39638133595577363,0.396386551502382,0.0013157901584293086,1,True
2023-06-25,0.396386551502382,0.3955076149644345,-0.22173722458952438,4,True
2023-06-26,0.3955076149644345,0.3940883454678006,-0.35884757788077204,0,True
2023-06-27,0.3940883454678006,0.3940883454678006,0.0,0,False
2023-06-28,0.3940883454678006,0.3940883454678006,0.0,0,False
2023-06-29,0.3940883454678006,0.3929373246018314,-0.2920717852244237,2,True
2023-06-30,0.3929373246018314,0.38763946219295004,-1.3482716141180462,10,True
2023-07-01,0.38763946219295004,0.39470192668014475,1.8219157686477638,1,True
2023-07-02,0.39470192668014475,0.39469609445554865,-0.001477627597401554,0,True
2023-07-03,0.39469609445554865,0.39469609445554865,0.0,0,False
2023-07-04,0.39469609445554865,0.39418687863645996,-0.12901465868090378,1,True
2023-07-05,0.39418687863645996,0.3943813376746385,0.04933168725738124,1,True
2023-07-06,0.3943813376746385,0.39252575324466804,-0.4705051311280184,2,True
2023-07-07,0.39252575324466804,0.39213385798089867,-0.09983937627784378,0,True
2023-07-08,0.39213385798089867,0.39213385798089867,0.0,0,False
2023-07-09,0.39213385798089867,0.39213385798089867,0.0,0,False
2023-07-10,0.39213385798089867,0.39213385798089867,0.0,0,False
2023-07-11,0.39213385798089867,0.39213385798089867,0.0,0,False
2023-07-12,0.39213385798089867,0.3913245510827277,-0.20638536604263846,1,True
2023-07-13,0.3913245510827277,0.39101348933498825,-0.07948945367183269,0,True
2023-07-14,0.39101348933498825,0.39101348933498825,0.0,0,False
2023-07-15,0.39101348933498825,0.3924003972094374,0.35469565942800596,6,True
2023-07-16,0.3924003972094374,0.39206426727698024,-0.0856599368521449,2,True
2023-07-17,0.39206426727698024,0.3926800582777244,0.15706379084761135,0,True
2023-07-18,0.3926800582777244,0.39261699211974393,-0.016060443266985303,2,True
2023-07-19,0.39261699211974393,0.39251258604446326,-0.026592347599874167,1,True
2023-07-20,0.39251258604446326,0.3914733065193977,-0.2647761019688222,2,True
2023-07-21,0.3914733065193977,0.39068280650765613,-0.2019294798845772,0,True
2023-07-22,0.39068280650765613,0.39068280650765613,0.0,0,False
2023-07-23,0.39068280650765613,0.39068280650765613,0.0,0,False
2023-07-24,0.39068280650765613,0.3873660668497283,-0.8489597194144327,4,True
2023-07-25,0.3873660668497283,0.38695293061891906,-0.10665266427931641,0,True
2023-07-26,0.38695293061891906,0.38695293061891906,0.0,0,False
2023-07-27,0.38695293061891906,0.38695293061891906,0.0,0,False
2023-07-28,0.38695293061891906,0.38695293061891906,0.0,0,False
2023-07-29,0.38695293061891906,0.38695293061891906,0.0,0,False
2023-07-30,0.38695293061891906,0.38695293061891906,0.0,0,False
2023-07-31,0.38695293061891906,0.3850241783574133,-0.4984462214618124,1,True
2023-08-01,0.3850241783574133,0.3831660048893613,-0.4826121507431891,2,True
2023-08-02,0.3831660048893613,0.3862862864450744,0.8143419603766855,0,True
2023-08-03,0.3862862864450744,0.3862862864450744,0.0,0,False
2023-08-04,0.3862862864450744,0.3862862864450744,0.0,0,False
2023-08-05,0.3862862864450744,0.3862862864450744,0.0,0,False
2023-08-06,0.3862862864450744,0.3862862864450744,0.0,0,False
2023-08-07,0.3862862864450744,0.38513141234324366,-0.29896844448163984,2,True
2023-08-08,0.38513141234324366,0.3847048621635412,-0.11075445056719646,5,True
2023-08-09,0.3847048621635412,0.38272472096592786,-0.5147169667877982,0,True
2023-08-10,0.38272472096592786,0.3808157798320238,-0.4987765433824731,1,True
2023-08-11,0.3808157798320238,0.3808157798320238,0.0,0,False
2023-08-12,0.3808157798320238,0.3808157798320238,0.0,0,False
2023-08-13,0.3808157798320238,0.3821186313215965,0.3421211931258217,1,True
2023-08-14,0.3821186313215965,0.379810135922307,-0.6041305526781948,1,True
2023-08-15,0.379810135922307,0.379810135922307,0.0,0,False
2023-08-16,0.379810135922307,0.38203170427873784,0.5849155002238371,7,True
2023-08-17,0.38203170427873784,0.38377921191242326,0.4574247671367049,5,True
2023-08-18,0.38377921191242326,0.39068232894495414,1.7987209359599632,7,True
2023-08-19,0.39068232894495414,0.39070653496001345,0.0061958305420883875,0,True
2023-08-20,0.39070653496001345,0.3900863864200715,-0.15872489565741388,1,True
2023-08-21,0.3900863864200715,0.3890895798945639,-0.2555348149048675,1,True
2023-08-22,0.3890895798945639,0.39398486684749623,1.2581387952509182,1,True
2023-08-23,0.39398486684749623,0.3944355231993227,0.1143841781113153,0,True
2023-08-24,0.3944355231993227,0.3944355231993227,0.0,0,False
2023-08-25,0.3944355231993227,0.386539945692846,-2.001740979725797,6,True
2023-08-26,0.386539945692846,0.3860838495536224,-0.11799456804032493,0,True
2023-08-27,0.3860838495536224,0.3860838495536224,0.0,0,False
2023-08-28,0.3860838495536224,0.38349797863153595,-0.6697692548072509,2,True
2023-08-29,0.38349797863153595,0.3860669423250991,0.6698767234002423,1,True
2023-08-30,0.3860669423250991,0.3843906276504382,-0.4342031111405853,2,True
2023-08-31,0.3843906276504382,0.38666315590527506,0.5912028263351576,2,True
2023-09-01,0.38666315590527506,0.3842266222564073,-0.6301437340631044,1,True
2023-09-02,0.3842266222564073,0.3800110684058306,-1.0971529837834892,4,True
2023-09-03,0.3800110684058306,0.37959857088086624,-0.10854881851068976,0,True
2023-09-04,0.37959857088086624,0.3788380496002491,-0.2003488260907682,3,True
2023-09-05,0.3788380496002491,0.37890023553020247,0.016414911337170324,0,True
2023-09-06,0.37890023553020247,0.37945040357973414,0.14520129520685376,4,True
2023-09-07,0.37945040357973414,0.38166847617092386,0.5845487500512503,3,True
2023-09-08,0.38166847617092386,0.37739356605417124,-1.1200584757851906,4,True
2023-09-09,0.37739356605417124,0.3785945631976278,0.3182346630902,4,True
2023-09-10,0.3785945631976278,0.37324545440048973,-1.412885793171259,5,True
2023-09-11,0.37324545440048973,0.3715338646558989,-0.45856948139931797,2,True
2023-09-12,0.3715338646558989,0.3704477603273849,-0.2923298336532154,2,True
2023-09-13,0.3704477603273849,0.37408309464765194,0.9813352136490927,2,True
2023-09-14,0.37408309464765194,0.37502119774632925,0.2507739890146299,4,True
2023-09-15,0.37502119774632925,0.37877396999332813,1.000682699951616,0,True
2023-09-16,0.37877396999332813,0.37865809643661824,-0.03059174227625361,5,True
2023-09-17,0.37865809643661824,0.3789384153595254,0.07402956005564398,2,True
2023-09-18,0.3789384153595254,0.37506218059514446,-1.0229194526776286,1,True
2023-09-19,0.37506218059514446,0.37506218059514446,0.0,0,False
2023-09-20,0.37506218059514446,0.37552997662012166,0.12472492540700486,3,True
2023-09-21,0.37552997662012166,0.37364755031642055,-0.5012719146001321,1,True
2023-09-22,0.37364755031642055,0.37664152732882294,0.8012837257642902,0,True
2023-09-23,0.37664152732882294,0.37664152732882294,0.0,0,False
2023-09-24,0.37664152732882294,0.3747623379870417,-0.49893312484914354,1,True
2023-09-25,0.3747623379870417,0.37459192215571646,-0.045473040925247954,1,True
2023-09-26,0.37459192215571646,0.3749558653184515,0.09715723730521209,1,True
2023-09-27,0.3749558653184515,0.3744733919244728,-0.12867471577459044,0,True
2023-09-28,0.3744733919244728,0.3744733919244728,0.0,0,False
2023-09-29,0.3744733919244728,0.3707501219122489,-0.994268242421581,2,True
2023-09-30,0.3707501219122489,0.3707501219122489,0.0,0,False
2023-10-01,0.3707501219122489,0.3704429358870703,-0.08285527287062999,1,True
2023-10-02,0.3704429358870703,0.3728543922058757,0.6509656643960193,1,True
2023-10-03,0.3728543922058757,0.3754310225619117,0.6910553851309675,3,True
2023-10-04,0.3754310225619117,0.36906572559961986,-1.6954637682457752,5,True
2023-10-05,0.36906572559961986,0.3660519252511389,-0.8166026101677271,1,True
2023-10-06,0.3660519252511389,0.36604344540124095,-0.002316570222138381,0,True
2023-10-07,0.36604344540124095,0.36421855641247003,-0.49854436999153817,1,True
2023-10-08,0.36421855641247003,0.36352847849736913,-0.18946808254310943,1,True
2023-10-09,0.36352847849736913,0.3626459491018055,-0.24276760907744332,1,True
2023-10-10,0.3626459491018055,0.3605252674475085,-0.584780185618905,1,True
2023-10-11,0.3605252674475085,0.36045199198515276,-0.020324639899593766,0,True
2023-10-12,0.36045199198515276,0.36045199198515276,0.0,0,False
2023-10-13,0.36045199198515276,0.36045199198515276,0.0,0,False
2023-10-14,0.36045199198515276,0.36045199198515276,0.0,0,False
2023-10-15,0.36045199198515276,0.3604217617921423,-0.008386745997424061,1,True
2023-10-16,0.3604217617921423,0.36101994160668144,0.1659666196527132,2,True
2023-10-17,0.36101994160668144,0.36237143384315956,0.37435390146689507,2,True
2023-10-18,0.36237143384315956,0.3580048721575799,-1.2049961111089025,3,True
2023-10-19,0.3580048721575799,0.35244676170542405,-1.5525236901550943,4,True
2023-10-20,0.35244676170542405,0.35158112814230946,-0.24560689930188673,0,True
2023-10-21,0.35158112814230946,0.3517438857530037,0.0462930452365784,2,True
2023-10-22,0.3517438857530037,0.354621013898815,0.817961096794062,1,True
2023-10-23,0.354621013898815,0.354621013898815,0.0,0,False
2023-10-24,0.354621013898815,0.35352750597426924,-0.30835959564927684,4,True
2023-10-25,0.35352750597426924,0.36333543695515075,2.7743049169122846,7,True
2023-10-26,0.36333543695515075,0.36584967844950156,0.6919890653718896,4,True
2023-10-27,0.36584967844950156,0.36567646190079073,-0.04734637172428835,4,True
2023-10-28,0.36567646190079073,0.36595164298289,0.07525261009935225,1,True
2023-10-29,0.36595164298289,0.366624185982723,0.18377919944587706,0,True
2023-10-30,0.366624185982723,0.36559366708594193,-0.28108317350062917,2,True
2023-10-31,0.36559366708594193,0.35807546477307606,-2.056436691803676,5,True
2023-11-01,0.35807546477307606,0.3551793679961785,-0.8087950898095997,4,True
2023-11-02,0.3551793679961785,0.354476761760106,-0.19781730004093667,3,True
2023-11-03,0.354476761760106,0.35242059390169206,-0.5800571660055542,1,True
2023-11-04,0.35242059390169206,0.35306049716736265,0.18157374363005907,1,True
2023-11-05,0.35306049716736265,0.3535840354582824,0.14828571735443496,4,True
2023-11-06,0.3535840354582824,0.35078668882079944,-0.7911405371730851,3,True
2023-11-07,0.35078668882079944,0.34712547802121446,-1.0437142902692376,5,True
2023-11-08,0.34712547802121446,0.3476682525478847,0.15636262995279981,0,True
2023-11-09,0.3476682525478847,0.3487874904044691,0.32192696583082103,4,True
2023-11-10,0.3487874904044691,0.3468843981713015,-0.5456308742497251,6,True
2023-11-11,0.3468843981713015,0.3463181006172385,-0.1632525293868481,3,True
2023-11-12,0.3463181006172385,0.3489238363699554,0.7524110775823489,4,True
2023-11-13,0.3489238363699554,0.34699104360315824,-0.5539297019386935,3,True
2023-11-14,0.34699104360315824,0.348967695580887,0.5696550427363167,4,True
2023-11-15,0.348967695580887,0.34668477428442046,-0.6541927305524498,1,True
2023-11-16,0.34668477428442046,0.3439648055828268,-0.7845653756233806,4,True
2023-11-17,0.3439648055828268,0.3452554477073222,0.3752250531296131,3,True
2023-11-18,0.3452554477073222,0.3415113259042169,-1.0844497394518315,3,True
2023-11-19,0.3415113259042169,0.33743237255628566,-1.194383037555613,3,True
2023-11-20,0.33743237255628566,0.3382307809027023,0.23661284789249226,1,True
2023-11-21,0.3382307809027023,0.33037057397531944,-2.3239182745002696,4,True
2023-11-22,0.33037057397531944,0.3304303112620384,0.01808190299765755,4,True
2023-11-23,0.3304303112620384,0.3332271937138034,0.8464364062372498,3,True
2023-11-24,0.3332271937138034,0.33509566529390794,0.5607200178594507,1,True
2023-11-25,0.33509566529390794,0.33654262096555704,0.4318037568107558,5,True
2023-11-26,0.33654262096555704,0.33730779805152356,0.2273640954513212,1,True
2023-11-27,0.33730779805152356,0.34041107524012293,0.9200134733100107,3,True
2023-11-28,0.34041107524012293,0.33924762009479803,-0.34177946311065854,2,True
2023-11-29,0.33924762009479803,0.34136932954201654,0.6254161625734111,3,True
2023-11-30,0.34136932954201654,0.3397797879452911,-0.4656369096948332,0,True
2023-12-01,0.3397797879452911,0.3397797879452911,0.0,0,False
2023-12-02,0.3397797879452911,0.3397797879452911,0.0,0,False
2023-12-03,0.3397797879452911,0.3403168117164426,0.15805053455326679,2,True
2023-12-04,0.3403168117164426,0.34580190542586553,1.611761018140112,4,True
2023-12-05,0.34580190542586553,0.34836252973568954,0.7404887797453075,4,True
2023-12-06,0.34836252973568954,0.34214999658404316,-1.7833528641441387,3,True
2023-12-07,0.34214999658404316,0.34278097392870716,0.18441541749629753,4,True
2023-12-08,0.34278097392870716,0.34224475123028936,-0.15643304010488635,1,True
2023-12-09,0.34224475123028936,0.34391647845740025,0.4884595661734492,0,True
2023-12-10,0.34391647845740025,0.34310545505834045,-0.23581987193447285,3,True
2023-12-11,0.34310545505834045,0.3464024464655325,0.9609265485538421,7,True
2023-12-12,0.3464024464655325,0.34551792649174073,-0.25534460937467474,0,True
2023-12-13,0.34551792649174073,0.3442007741742987,-0.38121099267292013,5,True
2023-12-14,0.3442007741742987,0.3481109359271487,1.1360118995171087,1,True
2023-12-15,0.3481109359271487,0.3451651086988493,-0.846232313975881,2,True
2023-12-16,0.3451651086988493,0.3531343222969974,2.308812043079689,4,True
2023-12-17,0.3531343222969974,0.3507864223023779,-0.6648744815704655,2,True
2023-12-18,0.3507864223023779,0.34903086469843997,-0.50046338521752,7,True
2023-12-19,0.34903086469843997,0.3492537020999655,0.06384461205688474,4,True
2023-12-20,0.3492537020999655,0.35022741724876516,0.2787988052653345,2,True
2023-12-21,0.35022741724876516,0.34740731498107824,-0.8052203022368754,1,True
2023-12-22,0.34740731498107824,0.3445334105897491,-0.8272434883777935,1,True
2023-12-23,0.3445334105897491,0.34437121480606564,-0.04707693904223431,1,True
2023-12-24,0.34437121480606564,0.34729515996342114,0.8490678174138733,2,True
2023-12-25,0.34729515996342114,0.3477255940531326,0.12393898312801355,2,True
2023-12-26,0.3477255940531326,0.34658538350130375,-0.3279052710898789,1,True
2023-12-27,0.34658538350130375,0.3428901339261213,-1.0661873671220623,11,True
2023-12-28,0.3428901339261213,0.34452781121690446,0.47760991896490523,1,True
2023-12-29,0.34452781121690446,0.3499787606412345,1.582150771827906,2,True
2023-12-30,0.3499787606412345,0.3514603587400333,0.4233394323941875,3,True
2023-12-31,0.3514603587400333,0.35039356623350404,-0.30353138839146476,2,True
