day,start_equity,end_equity,return_pct,entries,active
2024-01-02,1.0,1.0,0.0,0,False
2024-01-03,1.0,0.9935142824198505,-0.6485717580149486,6,True
2024-01-04,0.9935142824198505,0.9988284641940535,0.5348873054204617,2,True
2024-01-05,0.9988284641940535,0.9968948699435509,-0.19358621823645228,1,True
2024-01-06,0.9968948699435509,0.9968448976766661,-0.00501279205977756,2,True
2024-01-07,0.9968448976766661,0.9950354354999302,-0.18151892846651752,1,True
2024-01-08,0.9950354354999302,1.0016618575679825,0.6659483503442365,3,True
2024-01-09,1.0016618575679825,1.0054282143729523,0.3760108040965493,0,True
2024-01-10,1.0054282143729523,1.0054282143729523,0.0,0,False
2024-01-11,1.0054282143729523,1.006248752196723,0.08161078155961565,1,True
2024-01-12,1.006248752196723,1.0044432447333735,-0.17942953563001574,2,True
2024-01-13,1.0044432447333735,1.0086852271075943,0.4223217584928607,4,True
2024-01-14,1.0086852271075943,1.0136025450764434,0.48749776805490086,0,True
2024-01-15,1.0136025450764434,1.0136025450764434,0.0,0,False
2024-01-16,1.0136025450764434,1.0132810334234919,-0.03171969669110153,1,True
2024-01-17,1.0132810334234919,1.0176226790463982,0.42847398497509737,0,True
2024-01-18,1.0176226790463982,1.0176226790463982,0.0,0,False
2024-01-19,1.0176226790463982,1.0176226790463982,0.0,0,False
2024-01-20,1.0176226790463982,1.031991821368437,1.412030472385295,6,True
2024-01-21,1.031991821368437,1.0338826142143527,0.1832178130451112,0,True
2024-01-22,1.0338826142143527,1.0338826142143527,0.0,0,False
2024-01-23,1.0338826142143527,1.011938105423837,-2.1225338823587125,8,True
2024-01-24,1.011938105423837,1.011938105423837,0.0,0,False
2024-01-25,1.011938105423837,1.0068877274759243,-0.4990797283789816,1,True
2024-01-26,1.0068877274759243,1.0068877274759243,0.0,0,False
2024-01-27,1.0068877274759243,1.0068877274759243,0.0,0,False
2024-01-28,1.0068877274759243,1.005968572592172,-0.09128673025504686,1,True
2024-01-29,1.005968572592172,1.005968572592172,0.0,0,False
2024-01-30,1.005968572592172,1.005968572592172,0.0,0,False
2024-01-31,1.005968572592172,1.0009434521001763,-0.49953056476178537,1,True
2024-02-01,1.0009434521001763,1.0009434521001763,0.0,0,False
2024-02-02,1.0009434521001763,1.0007413604392776,-0.020190117680940478,2,True
2024-02-03,1.0007413604392776,1.0089644563882556,0.8217004187144328,1,True
2024-02-04,1.0089644563882556,1.0073503371864307,-0.1599778061164625,1,True
2024-02-05,1.0073503371864307,1.0073503371864307,0.0,0,False
2024-02-06,1.0073503371864307,1.0023214123170638,-0.49922302933981255,1,True
2024-02-07,1.0023214123170638,1.0019894599113228,-0.03311835920711825,3,True
2024-02-08,1.0019894599113228,1.0170082552125908,1.498897533572574,0,True
2024-02-09,1.0170082552125908,1.0170082552125908,0.0,0,False
2024-02-10,1.0170082552125908,1.0170082552125908,0.0,0,False
2024-02-11,1.0170082552125908,1.0170082552125908,0.0,0,False
2024-02-12,1.0170082552125908,1.0170082552125908,0.0,0,False
2024-02-13,1.0170082552125908,1.0170082552125908,0.0,0,False
2024-02-14,1.0170082552125908,1.0183380302990788,0.1307536177481694,1,True
2024-02-15,1.0183380302990788,1.015795644557378,-0.24966029609579943,0,True
2024-02-16,1.015795644557378,1.0209766023307374,0.5100393766323874,1,True
2024-02-17,1.0209766023307374,1.017082558641077,-0.38140381285632907,2,True
2024-02-18,1.017082558641077,1.0174580018671258,0.03691374145187165,0,True
2024-02-19,1.0174580018671258,1.0174580018671258,0.0,0,False
2024-02-20,1.0174580018671258,1.0159631132594968,-0.1469238636765069,7,True
2024-02-21,1.0159631132594968,0.9974159941973866,-1.825570123565401,4,True
2024-02-22,0.9974159941973866,1.021548296943388,2.4194822307236574,3,True
2024-02-23,1.021548296943388,1.0280511302005975,0.6365664038270991,1,True
2024-02-24,1.0280511302005975,1.0400238979759275,1.1646082012471304,3,True
2024-02-25,1.0400238979759275,1.0373664105419478,-0.25552176629323187,1,True
2024-02-26,1.0373664105419478,1.042665061089642,0.5107790741871066,0,True
2024-02-27,1.042665061089642,1.0418329880029376,-0.07980252889981942,1,True
2024-02-28,1.0418329880029376,1.0418918247081737,0.005647421987364787,1,True
2024-02-29,1.0418918247081737,1.0616853908631287,1.8997717119528357,5,True
2024-03-01,1.0616853908631287,1.0602828384514182,-0.13210621750858742,1,True
2024-03-02,1.0602828384514182,1.0598562492242922,-0.040233531248046184,1,True
2024-03-03,1.0598562492242922,1.0633155359851194,0.32639207093971834,6,True
2024-03-04,1.0633155359851194,1.085619099195007,2.097548888837042,0,True
2024-03-05,1.085619099195007,1.0784632778439625,-0.6591465972135779,5,True
2024-03-06,1.0784632778439625,1.053215176377646,-2.3411183287382564,3,True
2024-03-07,1.053215176377646,1.053215176377646,0.0,0,False
2024-03-08,1.053215176377646,1.0541163675728578,0.08556572440507892,2,True
2024-03-09,1.0541163675728578,1.0516410149824114,-0.23482726068906334,3,True
2024-03-10,1.0516410149824114,1.057514869344659,0.5585417721983621,2,True
2024-03-11,1.057514869344659,1.050105874915699,-0.7006042793092138,0,True
2024-03-12,1.050105874915699,1.0462282898636182,-0.3692565811416082,1,True
2024-03-13,1.0462282898636182,1.0512803100494912,0.4828793328205183,2,True
2024-03-14,1.0512803100494912,1.048998047663863,-0.21709361088678714,1,True
2024-03-15,1.048998047663863,1.0277689423848742,-2.023750694890847,6,True
2024-03-16,1.0277689423848742,1.0257859063976305,-0.1929457006788149,1,True
2024-03-17,1.0257859063976305,1.0033094735967836,-2.1911426800334866,4,True
2024-03-18,1.0033094735967836,1.0033094735967836,0.0,0,False
2024-03-19,1.0033094735967836,0.982572125456264,-2.0668944813386214,7,True
2024-03-20,0.982572125456264,0.982572125456264,0.0,0,False
2024-03-21,0.982572125456264,0.9869272700886391,0.4432391800604618,2,True
2024-03-22,0.9869272700886391,0.9869272700886391,0.0,0,False
2024-03-23,0.9869272700886391,0.9886534839778716,0.1749079128269937,1,True
2024-03-24,0.9886534839778716,0.9863685225278388,-0.23111853516554204,2,True
2024-03-25,0.9863685225278388,0.9944353352523619,0.8178294968142152,2,True
2024-03-26,0.9944353352523619,0.9981189342174267,0.37042116611132325,2,True
2024-03-27,0.9981189342174267,0.9924726611532235,-0.5656914091736076,3,True
2024-03-28,0.9924726611532235,0.9883290139886189,-0.41750743640532884,0,True
2024-03-29,0.9883290139886189,0.9777592221977242,-1.069460841611647,4,True
2024-03-30,0.9777592221977242,0.9776521163150683,-0.010954218607628352,0,True
2024-03-31,0.9776521163150683,0.9776521163150683,0.0,0,False
2024-04-01,0.9776521163150683,0.9771229741241106,-0.05412377083088282,4,True
2024-04-02,0.9771229741241106,0.9641353536816539,-1.329169489039883,5,True
2024-04-03,0.9641353536816539,0.9558244381389517,-0.8620071353017122,1,True
2024-04-04,0.9558244381389517,0.9555976726151183,-0.0237245999144875,1,True
2024-04-05,0.9555976726151183,0.9486506751418005,-0.7269793211515996,3,True
2024-04-06,0.9486506751418005,0.9485241106871689,-0.013341523697607549,1,True
2024-04-07,0.9485241106871689,0.9547584091241375,0.6572630433666182,1,True
2024-04-08,0.9547584091241375,0.9547584091241375,0.0,0,False
2024-04-09,0.9547584091241375,0.952377162707201,-0.24940826853999676,1,True
2024-04-10,0.952377162707201,0.9471675247934088,-0.5470141576036314,5,True
2024-04-11,0.9471675247934088,0.9497542376439198,0.2730998247723049,1,True
2024-04-12,0.9497542376439198,0.9481525819260246,-0.16863896515675325,3,True
2024-04-13,0.9481525819260246,0.9353642325267395,-1.3487649185437545,7,True
2024-04-14,0.9353642325267395,0.9204623006097706,-1.593168885313656,6,True
2024-04-15,0.9204623006097706,0.9204623006097706,0.0,0,False
2024-04-16,0.9204623006097706,0.9204623006097706,0.0,0,False
2024-04-17,0.9204623006097706,0.9204623006097706,0.0,0,False
2024-04-18,0.9204623006097706,0.9204623006097706,0.0,0,False
2024-04-19,0.9204623006097706,0.9204623006097706,0.0,0,False
2024-04-20,0.9204623006097706,0.9204623006097706,0.0,0,False
2024-04-21,0.9204623006097706,0.9204623006097706,0.0,0,False
2024-04-22,0.9204623006097706,0.9204623006097706,0.0,0,False
2024-04-23,0.9204623006097706,0.9204623006097706,0.0,0,False
2024-04-24,0.9204623006097706,0.9204623006097706,0.0,0,False
2024-04-25,0.9204623006097706,0.9204623006097706,0.0,0,False
2024-04-26,0.9204623006097706,0.9204623006097706,0.0,0,False
2024-04-27,0.9204623006097706,0.9204623006097706,0.0,0,False
2024-04-28,0.9204623006097706,0.9204623006097706,0.0,0,False
2024-04-29,0.9204623006097706,0.9204623006097706,0.0,0,False
2024-04-30,0.9204623006097706,0.9204623006097706,0.0,0,False
2024-05-01,0.9204623006097706,0.9204623006097706,0.0,0,False
2024-05-02,0.9204623006097706,0.9204623006097706,0.0,0,False
2024-05-03,0.9204623006097706,0.9204623006097706,0.0,0,False
2024-05-04,0.9204623006097706,0.9204623006097706,0.0,0,False
2024-05-05,0.9204623006097706,0.9204623006097706,0.0,0,False
2024-05-06,0.9204623006097706,0.9204623006097706,0.0,0,False
2024-05-07,0.9204623006097706,0.9204623006097706,0.0,0,False
2024-05-08,0.9204623006097706,0.9204623006097706,0.0,0,False
2024-05-09,0.9204623006097706,0.9204623006097706,0.0,0,False
2024-05-10,0.9204623006097706,0.9204623006097706,0.0,0,False
2024-05-11,0.9204623006097706,0.9204623006097706,0.0,0,False
2024-05-12,0.9204623006097706,0.9204623006097706,0.0,0,False
2024-05-13,0.9204623006097706,0.9204623006097706,0.0,0,False
2024-05-14,0.9204623006097706,0.9204623006097706,0.0,0,False
2024-05-15,0.9204623006097706,0.9204623006097706,0.0,0,False
2024-05-16,0.9204623006097706,0.9204623006097706,0.0,0,False
2024-05-17,0.9204623006097706,0.9204623006097706,0.0,0,False
2024-05-18,0.9204623006097706,0.9204623006097706,0.0,0,False
2024-05-19,0.9204623006097706,0.9204623006097706,0.0,0,False
2024-05-20,0.9204623006097706,0.9204623006097706,0.0,0,False
2024-05-21,0.9204623006097706,0.9204623006097706,0.0,0,False
2024-05-22,0.9204623006097706,0.9204623006097706,0.0,0,False
2024-05-23,0.9204623006097706,0.9204623006097706,0.0,0,False
2024-05-24,0.9204623006097706,0.9204623006097706,0.0,0,False
2024-05-25,0.9204623006097706,0.9204623006097706,0.0,0,False
2024-05-26,0.9204623006097706,0.9204623006097706,0.0,0,False
2024-05-27,0.9204623006097706,0.9204623006097706,0.0,0,False
2024-05-28,0.9204623006097706,0.9204623006097706,0.0,0,False
2024-05-29,0.9204623006097706,0.9204623006097706,0.0,0,False
2024-05-30,0.9204623006097706,0.9204623006097706,0.0,0,False
2024-05-31,0.9204623006097706,0.9204623006097706,0.0,0,False
2024-06-01,0.9204623006097706,0.9204623006097706,0.0,0,False
2024-06-02,0.9204623006097706,0.9204623006097706,0.0,0,False
2024-06-03,0.9204623006097706,0.9204623006097706,0.0,0,False
2024-06-04,0.9204623006097706,0.9204623006097706,0.0,0,False
2024-06-05,0.9204623006097706,0.9204623006097706,0.0,0,False
2024-06-06,0.9204623006097706,0.9204623006097706,0.0,0,False
2024-06-07,0.9204623006097706,0.9204623006097706,0.0,0,False
2024-06-08,0.9204623006097706,0.9204623006097706,0.0,0,False
2024-06-09,0.9204623006097706,0.9204623006097706,0.0,0,False
2024-06-10,0.9204623006097706,0.9204623006097706,0.0,0,False
2024-06-11,0.9204623006097706,0.9204623006097706,0.0,0,False
2024-06-12,0.9204623006097706,0.9204623006097706,0.0,0,False
2024-06-13,0.9204623006097706,0.9204623006097706,0.0,0,False
2024-06-14,0.9204623006097706,0.9204623006097706,0.0,0,False
2024-06-15,0.9204623006097706,0.9204623006097706,0.0,0,False
2024-06-16,0.9204623006097706,0.9204623006097706,0.0,0,False
2024-06-17,0.9204623006097706,0.9204623006097706,0.0,0,False
2024-06-18,0.9204623006097706,0.9204623006097706,0.0,0,False
2024-06-19,0.9204623006097706,0.9204623006097706,0.0,0,False
2024-06-20,0.9204623006097706,0.9204623006097706,0.0,0,False
2024-06-21,0.9204623006097706,0.9204623006097706,0.0,0,False
2024-06-22,0.9204623006097706,0.9204623006097706,0.0,0,False
2024-06-23,0.9204623006097706,0.9204623006097706,0.0,0,False
2024-06-24,0.9204623006097706,0.9204623006097706,0.0,0,False
2024-06-25,0.9204623006097706,0.9204623006097706,0.0,0,False
2024-06-26,0.9204623006097706,0.9204623006097706,0.0,0,False
2024-06-27,0.9204623006097706,0.9204623006097706,0.0,0,False
2024-06-28,0.9204623006097706,0.9204623006097706,0.0,0,False
2024-06-29,0.9204623006097706,0.9204623006097706,0.0,0,False
2024-06-30,0.9204623006097706,0.9204623006097706,0.0,0,False
2024-07-01,0.9204623006097706,0.9204623006097706,0.0,0,False
2024-07-02,0.9204623006097706,0.9204623006097706,0.0,0,False
2024-07-03,0.9204623006097706,0.9204623006097706,0.0,0,False
2024-07-04,0.9204623006097706,0.9204623006097706,0.0,0,False
2024-07-05,0.9204623006097706,0.9204623006097706,0.0,0,False
2024-07-06,0.9204623006097706,0.9204623006097706,0.0,0,False
2024-07-07,0.9204623006097706,0.9204623006097706,0.0,0,False
2024-07-08,0.9204623006097706,0.9204623006097706,0.0,0,False
2024-07-09,0.9204623006097706,0.9204623006097706,0.0,0,False
2024-07-10,0.9204623006097706,0.9204623006097706,0.0,0,False
2024-07-11,0.9204623006097706,0.9204623006097706,0.0,0,False
2024-07-12,0.9204623006097706,0.9204623006097706,0.0,0,False
2024-07-13,0.9204623006097706,0.9204623006097706,0.0,0,False
2024-07-14,0.9204623006097706,0.9204623006097706,0.0,0,False
2024-07-15,0.9204623006097706,0.9204623006097706,0.0,0,False
2024-07-16,0.9204623006097706,0.9204623006097706,0.0,0,False
2024-07-17,0.9204623006097706,0.9204623006097706,0.0,0,False
2024-07-18,0.9204623006097706,0.9204623006097706,0.0,0,False
2024-07-19,0.9204623006097706,0.9204623006097706,0.0,0,False
2024-07-20,0.9204623006097706,0.9204623006097706,0.0,0,False
2024-07-21,0.9204623006097706,0.9204623006097706,0.0,0,False
2024-07-22,0.9204623006097706,0.9204623006097706,0.0,0,False
2024-07-23,0.9204623006097706,0.9204623006097706,0.0,0,False
2024-07-24,0.9204623006097706,0.9204623006097706,0.0,0,False
2024-07-25,0.9204623006097706,0.9204623006097706,0.0,0,False
2024-07-26,0.9204623006097706,0.9204623006097706,0.0,0,False
2024-07-27,0.9204623006097706,0.9204623006097706,0.0,0,False
2024-07-28,0.9204623006097706,0.9204623006097706,0.0,0,False
2024-07-29,0.9204623006097706,0.9204623006097706,0.0,0,False
2024-07-30,0.9204623006097706,0.9204623006097706,0.0,0,False
2024-07-31,0.9204623006097706,0.9204623006097706,0.0,0,False
2024-08-01,0.9204623006097706,0.9204623006097706,0.0,0,False
2024-08-02,0.9204623006097706,0.9204623006097706,0.0,0,False
2024-08-03,0.9204623006097706,0.9204623006097706,0.0,0,False
2024-08-04,0.9204623006097706,0.9204623006097706,0.0,0,False
2024-08-05,0.9204623006097706,0.9204623006097706,0.0,0,False
2024-08-06,0.9204623006097706,0.9204623006097706,0.0,0,False
2024-08-07,0.9204623006097706,0.9204623006097706,0.0,0,False
2024-08-08,0.9204623006097706,0.9204623006097706,0.0,0,False
2024-08-09,0.9204623006097706,0.9204623006097706,0.0,0,False
2024-08-10,0.9204623006097706,0.9204623006097706,0.0,0,False
2024-08-11,0.9204623006097706,0.9204623006097706,0.0,0,False
2024-08-12,0.9204623006097706,0.9204623006097706,0.0,0,False
2024-08-13,0.9204623006097706,0.9204623006097706,0.0,0,False
2024-08-14,0.9204623006097706,0.9204623006097706,0.0,0,False
2024-08-15,0.9204623006097706,0.9204623006097706,0.0,0,False
2024-08-16,0.9204623006097706,0.9204623006097706,0.0,0,False
2024-08-17,0.9204623006097706,0.9204623006097706,0.0,0,False
2024-08-18,0.9204623006097706,0.9204623006097706,0.0,0,False
2024-08-19,0.9204623006097706,0.9204623006097706,0.0,0,False
2024-08-20,0.9204623006097706,0.9204623006097706,0.0,0,False
2024-08-21,0.9204623006097706,0.9204623006097706,0.0,0,False
2024-08-22,0.9204623006097706,0.9204623006097706,0.0,0,False
2024-08-23,0.9204623006097706,0.9204623006097706,0.0,0,False
2024-08-24,0.9204623006097706,0.9204623006097706,0.0,0,False
2024-08-25,0.9204623006097706,0.9204623006097706,0.0,0,False
2024-08-26,0.9204623006097706,0.9204623006097706,0.0,0,False
2024-08-27,0.9204623006097706,0.9204623006097706,0.0,0,False
2024-08-28,0.9204623006097706,0.9204623006097706,0.0,0,False
2024-08-29,0.9204623006097706,0.9204623006097706,0.0,0,False
2024-08-30,0.9204623006097706,0.9204623006097706,0.0,0,False
2024-08-31,0.9204623006097706,0.9204623006097706,0.0,0,False
2024-09-01,0.9204623006097706,0.9204623006097706,0.0,0,False
2024-09-02,0.9204623006097706,0.9204623006097706,0.0,0,False
2024-09-03,0.9204623006097706,0.9204623006097706,0.0,0,False
2024-09-04,0.9204623006097706,0.9204623006097706,0.0,0,False
2024-09-05,0.9204623006097706,0.9204623006097706,0.0,0,False
2024-09-06,0.9204623006097706,0.9204623006097706,0.0,0,False
2024-09-07,0.9204623006097706,0.9204623006097706,0.0,0,False
2024-09-08,0.9204623006097706,0.9204623006097706,0.0,0,False
2024-09-09,0.9204623006097706,0.9204623006097706,0.0,0,False
2024-09-10,0.9204623006097706,0.9204623006097706,0.0,0,False
2024-09-11,0.9204623006097706,0.9204623006097706,0.0,0,False
2024-09-12,0.9204623006097706,0.9204623006097706,0.0,0,False
2024-09-13,0.9204623006097706,0.9204623006097706,0.0,0,False
2024-09-14,0.9204623006097706,0.9204623006097706,0.0,0,False
2024-09-15,0.9204623006097706,0.9204623006097706,0.0,0,False
2024-09-16,0.9204623006097706,0.9204623006097706,0.0,0,False
2024-09-17,0.9204623006097706,0.9204623006097706,0.0,0,False
2024-09-18,0.9204623006097706,0.9204623006097706,0.0,0,False
2024-09-19,0.9204623006097706,0.9204623006097706,0.0,0,False
2024-09-20,0.9204623006097706,0.9204623006097706,0.0,0,False
2024-09-21,0.9204623006097706,0.9204623006097706,0.0,0,False
2024-09-22,0.9204623006097706,0.9204623006097706,0.0,0,False
2024-09-23,0.9204623006097706,0.9204623006097706,0.0,0,False
2024-09-24,0.9204623006097706,0.9204623006097706,0.0,0,False
2024-09-25,0.9204623006097706,0.9204623006097706,0.0,0,False
2024-09-26,0.9204623006097706,0.9204623006097706,0.0,0,False
2024-09-27,0.9204623006097706,0.9204623006097706,0.0,0,False
2024-09-28,0.9204623006097706,0.9204623006097706,0.0,0,False
2024-09-29,0.9204623006097706,0.9204623006097706,0.0,0,False
2024-09-30,0.9204623006097706,0.9204623006097706,0.0,0,False
2024-10-01,0.9204623006097706,0.9204623006097706,0.0,0,False
2024-10-02,0.9204623006097706,0.9204623006097706,0.0,0,False
2024-10-03,0.9204623006097706,0.9204623006097706,0.0,0,False
2024-10-04,0.9204623006097706,0.9204623006097706,0.0,0,False
2024-10-05,0.9204623006097706,0.9204623006097706,0.0,0,False
2024-10-06,0.9204623006097706,0.9204623006097706,0.0,0,False
2024-10-07,0.9204623006097706,0.9204623006097706,0.0,0,False
2024-10-08,0.9204623006097706,0.9204623006097706,0.0,0,False
2024-10-09,0.9204623006097706,0.9204623006097706,0.0,0,False
2024-10-10,0.9204623006097706,0.9204623006097706,0.0,0,False
2024-10-11,0.9204623006097706,0.9204623006097706,0.0,0,False
2024-10-12,0.9204623006097706,0.9204623006097706,0.0,0,False
2024-10-13,0.9204623006097706,0.9204623006097706,0.0,0,False
2024-10-14,0.9204623006097706,0.9204623006097706,0.0,0,False
2024-10-15,0.9204623006097706,0.9204623006097706,0.0,0,False
2024-10-16,0.9204623006097706,0.9204623006097706,0.0,0,False
2024-10-17,0.9204623006097706,0.9204623006097706,0.0,0,False
2024-10-18,0.9204623006097706,0.9204623006097706,0.0,0,False
2024-10-19,0.9204623006097706,0.9204623006097706,0.0,0,False
2024-10-20,0.9204623006097706,0.9204623006097706,0.0,0,False
2024-10-21,0.9204623006097706,0.9204623006097706,0.0,0,False
2024-10-22,0.9204623006097706,0.9204623006097706,0.0,0,False
2024-10-23,0.9204623006097706,0.9204623006097706,0.0,0,False
2024-10-24,0.9204623006097706,0.9204623006097706,0.0,0,False
2024-10-25,0.9204623006097706,0.9204623006097706,0.0,0,False
2024-10-26,0.9204623006097706,0.9204623006097706,0.0,0,False
2024-10-27,0.9204623006097706,0.9204623006097706,0.0,0,False
2024-10-28,0.9204623006097706,0.9204623006097706,0.0,0,False
2024-10-29,0.9204623006097706,0.9204623006097706,0.0,0,False
2024-10-30,0.9204623006097706,0.9204623006097706,0.0,0,False
2024-10-31,0.9204623006097706,0.9204623006097706,0.0,0,False
2024-11-01,0.9204623006097706,0.9204623006097706,0.0,0,False
2024-11-02,0.9204623006097706,0.9204623006097706,0.0,0,False
2024-11-03,0.9204623006097706,0.9204623006097706,0.0,0,False
2024-11-04,0.9204623006097706,0.9204623006097706,0.0,0,False
2024-11-05,0.9204623006097706,0.9204623006097706,0.0,0,False
2024-11-06,0.9204623006097706,0.9204623006097706,0.0,0,False
2024-11-07,0.9204623006097706,0.9204623006097706,0.0,0,False
2024-11-08,0.9204623006097706,0.9204623006097706,0.0,0,False
2024-11-09,0.9204623006097706,0.9204623006097706,0.0,0,False
2024-11-10,0.9204623006097706,0.9204623006097706,0.0,0,False
2024-11-11,0.9204623006097706,0.9204623006097706,0.0,0,False
2024-11-12,0.9204623006097706,0.9204623006097706,0.0,0,False
2024-11-13,0.9204623006097706,0.9204623006097706,0.0,0,False
2024-11-14,0.9204623006097706,0.9204623006097706,0.0,0,False
2024-11-15,0.9204623006097706,0.9204623006097706,0.0,0,False
2024-11-16,0.9204623006097706,0.9204623006097706,0.0,0,False
2024-11-17,0.9204623006097706,0.9204623006097706,0.0,0,False
2024-11-18,0.9204623006097706,0.9204623006097706,0.0,0,False
2024-11-19,0.9204623006097706,0.9204623006097706,0.0,0,False
2024-11-20,0.9204623006097706,0.9204623006097706,0.0,0,False
2024-11-21,0.9204623006097706,0.9204623006097706,0.0,0,False
2024-11-22,0.9204623006097706,0.9204623006097706,0.0,0,False
2024-11-23,0.9204623006097706,0.9204623006097706,0.0,0,False
2024-11-24,0.9204623006097706,0.9204623006097706,0.0,0,False
2024-11-25,0.9204623006097706,0.9204623006097706,0.0,0,False
2024-11-26,0.9204623006097706,0.9204623006097706,0.0,0,False
2024-11-27,0.9204623006097706,0.9204623006097706,0.0,0,False
2024-11-28,0.9204623006097706,0.9204623006097706,0.0,0,False
2024-11-29,0.9204623006097706,0.9204623006097706,0.0,0,False
2024-11-30,0.9204623006097706,0.9204623006097706,0.0,0,False
2024-12-01,0.9204623006097706,0.9204623006097706,0.0,0,False
2024-12-02,0.9204623006097706,0.9204623006097706,0.0,0,False
2024-12-03,0.9204623006097706,0.9204623006097706,0.0,0,False
2024-12-04,0.9204623006097706,0.9204623006097706,0.0,0,False
2024-12-05,0.9204623006097706,0.9204623006097706,0.0,0,False
2024-12-06,0.9204623006097706,0.9204623006097706,0.0,0,False
2024-12-07,0.9204623006097706,0.9204623006097706,0.0,0,False
2024-12-08,0.9204623006097706,0.9204623006097706,0.0,0,False
2024-12-09,0.9204623006097706,0.9204623006097706,0.0,0,False
2024-12-10,0.9204623006097706,0.9204623006097706,0.0,0,False
2024-12-11,0.9204623006097706,0.9204623006097706,0.0,0,False
2024-12-12,0.9204623006097706,0.9204623006097706,0.0,0,False
2024-12-13,0.9204623006097706,0.9204623006097706,0.0,0,False
2024-12-14,0.9204623006097706,0.9204623006097706,0.0,0,False
2024-12-15,0.9204623006097706,0.9204623006097706,0.0,0,False
2024-12-16,0.9204623006097706,0.9204623006097706,0.0,0,False
2024-12-17,0.9204623006097706,0.9204623006097706,0.0,0,False
2024-12-18,0.9204623006097706,0.9204623006097706,0.0,0,False
2024-12-19,0.9204623006097706,0.9204623006097706,0.0,0,False
2024-12-20,0.9204623006097706,0.9204623006097706,0.0,0,False
2024-12-21,0.9204623006097706,0.9204623006097706,0.0,0,False
2024-12-22,0.9204623006097706,0.9204623006097706,0.0,0,False
2024-12-23,0.9204623006097706,0.9204623006097706,0.0,0,False
2024-12-24,0.9204623006097706,0.9204623006097706,0.0,0,False
2024-12-25,0.9204623006097706,0.9204623006097706,0.0,0,False
2024-12-26,0.9204623006097706,0.9204623006097706,0.0,0,False
2024-12-27,0.9204623006097706,0.9204623006097706,0.0,0,False
2024-12-28,0.9204623006097706,0.9204623006097706,0.0,0,False
2024-12-29,0.9204623006097706,0.9204623006097706,0.0,0,False
2024-12-30,0.9204623006097706,0.9204623006097706,0.0,0,False
2024-12-31,0.9204623006097706,0.9204623006097706,0.0,0,False
