day,start_equity,end_equity,return_pct,entries,active
2021-09-02,1.0,1.0,0.0,0,False
2021-09-03,1.0,1.0,0.0,0,False
2021-09-04,1.0,1.0,0.0,0,False
2021-09-05,1.0,1.0,0.0,0,False
2021-09-06,1.0,1.0,0.0,0,False
2021-09-07,1.0,1.0,0.0,0,False
2021-09-08,1.0,1.0,0.0,0,False
2021-09-09,1.0,1.0,0.0,0,False
2021-09-10,1.0,1.0,0.0,0,False
2021-09-11,1.0,1.0,0.0,0,False
2021-09-12,1.0,1.0,0.0,0,False
2021-09-13,1.0,1.0,0.0,0,False
2021-09-14,1.0,1.0,0.0,0,False
2021-09-15,1.0,1.0,0.0,0,False
2021-09-16,1.0,1.0,0.0,0,False
2021-09-17,1.0,1.0,0.0,0,False
2021-09-18,1.0,1.0,0.0,0,False
2021-09-19,1.0,1.0,0.0,0,False
2021-09-20,1.0,1.0,0.0,0,False
2021-09-21,1.0,1.0,0.0,0,False
2021-09-22,1.0,1.0,0.0,0,False
2021-09-23,1.0,1.0,0.0,0,False
2021-09-24,1.0,1.0,0.0,0,False
2021-09-25,1.0,1.0,0.0,0,False
2021-09-26,1.0,1.0,0.0,0,False
2021-09-27,1.0,1.0,0.0,0,False
2021-09-28,1.0,1.0,0.0,0,False
2021-09-29,1.0,1.0,0.0,0,False
2021-09-30,1.0,1.0,0.0,0,False
2021-10-01,1.0,1.0,0.0,0,False
2021-10-02,1.0,1.0,0.0,0,False
2021-10-03,1.0,1.0,0.0,0,False
2021-10-04,1.0,1.0,0.0,0,False
2021-10-05,1.0,1.0,0.0,0,False
2021-10-06,1.0,0.9969238897158955,-0.3076110284104483,1,True
2021-10-07,0.9969238897158955,0.9969238897158955,0.0,0,False
2021-10-08,0.9969238897158955,0.9969238897158955,0.0,0,False
2021-10-09,0.9969238897158955,0.9969238897158955,0.0,0,False
2021-10-10,0.9969238897158955,0.9969238897158955,0.0,0,False
2021-10-11,0.9969238897158955,0.9969238897158955,0.0,0,False
2021-10-12,0.9969238897158955,0.9969238897158955,0.0,0,False
2021-10-13,0.9969238897158955,1.0023336901709112,0.5426492945772798,1,True
2021-10-14,1.0023336901709112,1.0064658918578615,0.41225808605172,0,True
2021-10-15,1.0064658918578615,1.0064658918578615,0.0,0,False
2021-10-16,1.0064658918578615,1.0032413251708634,-0.3203850933334418,1,True
2021-10-17,1.0032413251708634,1.0032413251708634,0.0,0,False
2021-10-18,1.0032413251708634,1.0032413251708634,0.0,0,False
2021-10-19,1.0032413251708634,1.0032413251708634,0.0,0,False
2021-10-20,1.0032413251708634,1.0032413251708634,0.0,0,False
2021-10-21,1.0032413251708634,1.0032413251708634,0.0,0,False
2021-10-22,1.0032413251708634,1.0032413251708634,0.0,0,False
2021-10-23,1.0032413251708634,1.0032413251708634,0.0,0,False
2021-10-24,1.0032413251708634,1.0032413251708634,0.0,0,False
2021-10-25,1.0032413251708634,1.0075372690596616,0.428206432591538,1,True
2021-10-26,1.0075372690596616,1.0075372690596616,0.0,0,False
2021-10-27,1.0075372690596616,1.0222012934723814,1.455432455258543,4,True
2021-10-28,1.0222012934723814,1.0158400165545387,-0.6223115699877213,0,True
2021-10-29,1.0158400165545387,1.0158400165545387,0.0,0,False
2021-10-30,1.0158400165545387,1.014600805937661,-0.1219887577456169,1,True
2021-10-31,1.014600805937661,1.0141543971664384,-0.043998464086580924,0,True
2021-11-01,1.0141543971664384,1.0141543971664384,0.0,0,False
2021-11-02,1.0141543971664384,1.0141543971664384,0.0,0,False
2021-11-03,1.0141543971664384,1.0141543971664384,0.0,0,False
2021-11-04,1.0141543971664384,1.0141543971664384,0.0,0,False
2021-11-05,1.0141543971664384,1.0141543971664384,0.0,0,False
2021-11-06,1.0141543971664384,1.0141543971664384,0.0,0,False
2021-11-07,1.0141543971664384,1.0141543971664384,0.0,0,False
2021-11-08,1.0141543971664384,1.0141543971664384,0.0,0,False
2021-11-09,1.0141543971664384,1.0141543971664384,0.0,0,False
2021-11-10,1.0141543971664384,1.0141543971664384,0.0,0,False
2021-11-11,1.0141543971664384,1.0268340448064261,1.2502679745229006,6,True
2021-11-12,1.0268340448064261,1.0268340448064261,0.0,0,False
2021-11-13,1.0268340448064261,1.0268340448064261,0.0,0,False
2021-11-14,1.0268340448064261,1.0268340448064261,0.0,0,False
2021-11-15,1.0268340448064261,1.0268340448064261,0.0,0,False
2021-11-16,1.0268340448064261,1.0602812960315944,3.257318102602791,4,True
2021-11-17,1.0602812960315944,1.0591195465681624,-0.10956992901601792,0,True
2021-11-18,1.0591195465681624,1.0557974394767042,-0.31366686624023643,1,True
2021-11-19,1.0557974394767042,1.0557974394767042,0.0,0,False
2021-11-20,1.0557974394767042,1.0557974394767042,0.0,0,False
2021-11-21,1.0557974394767042,1.0557974394767042,0.0,0,False
2021-11-22,1.0557974394767042,1.0557974394767042,0.0,0,False
2021-11-23,1.0557974394767042,1.0557974394767042,0.0,0,False
2021-11-24,1.0557974394767042,1.0557974394767042,0.0,0,False
2021-11-25,1.0557974394767042,1.0557974394767042,0.0,0,False
2021-11-26,1.0557974394767042,1.060745956860401,0.468699506048198,5,True
2021-11-27,1.060745956860401,1.0589320340542339,-0.17100445157820499,0,True
2021-11-28,1.0589320340542339,1.0536431498218333,-0.49945455065246724,1,True
2021-11-29,1.0536431498218333,1.0536431498218333,0.0,0,False
2021-11-30,1.0536431498218333,1.0536431498218333,0.0,0,False
2021-12-01,1.0536431498218333,1.0551129339005416,0.139495433435588,1,True
2021-12-02,1.0551129339005416,1.0541848497271828,-0.08796064795906222,1,True
2021-12-03,1.0541848497271828,1.0535206398852575,-0.06300696145437046,1,True
2021-12-04,1.0535206398852575,1.0183084878704893,-3.3423314818590733,11,True
2021-12-05,1.0183084878704893,1.0180134190158385,-0.028976371911404453,0,True
2021-12-06,1.0180134190158385,1.0180134190158385,0.0,0,False
2021-12-07,1.0180134190158385,1.0180134190158385,0.0,0,False
2021-12-08,1.0180134190158385,1.0180134190158385,0.0,0,False
2021-12-09,1.0180134190158385,1.0180134190158385,0.0,0,False
2021-12-10,1.0180134190158385,1.0180134190158385,0.0,0,False
2021-12-11,1.0180134190158385,1.0180134190158385,0.0,0,False
2021-12-12,1.0180134190158385,1.0180134190158385,0.0,0,False
2021-12-13,1.0180134190158385,1.0180134190158385,0.0,0,False
2021-12-14,1.0180134190158385,1.0180134190158385,0.0,0,False
2021-12-15,1.0180134190158385,1.0180134190158385,0.0,0,False
2021-12-16,1.0180134190158385,1.0180134190158385,0.0,0,False
2021-12-17,1.0180134190158385,1.0172530840635112,-0.07468810706467988,1,True
2021-12-18,1.0172530840635112,1.0172530840635112,0.0,0,False
2021-12-19,1.0172530840635112,1.0172530840635112,0.0,0,False
2021-12-20,1.0172530840635112,1.0172530840635112,0.0,0,False
2021-12-21,1.0172530840635112,1.0172530840635112,0.0,0,False
2021-12-22,1.0172530840635112,1.0172530840635112,0.0,0,False
2021-12-23,1.0172530840635112,1.0172530840635112,0.0,0,False
2021-12-24,1.0172530840635112,1.0172530840635112,0.0,0,False
2021-12-25,1.0172530840635112,1.0172530840635112,0.0,0,False
2021-12-26,1.0172530840635112,1.0172530840635112,0.0,0,False
2021-12-27,1.0172530840635112,1.0172530840635112,0.0,0,False
2021-12-28,1.0172530840635112,1.0172530840635112,0.0,0,False
2021-12-29,1.0172530840635112,1.0172530840635112,0.0,0,False
2021-12-30,1.0172530840635112,1.0172530840635112,0.0,0,False
2021-12-31,1.0172530840635112,1.0172530840635112,0.0,0,False
2022-01-01,1.0172530840635112,1.0172530840635112,0.0,0,False
2022-01-02,1.0172530840635112,1.0172530840635112,0.0,0,False
2022-01-03,1.0172530840635112,1.0172530840635112,0.0,0,False
2022-01-04,1.0172530840635112,1.0172530840635112,0.0,0,False
2022-01-05,1.0172530840635112,1.0172530840635112,0.0,0,False
2022-01-06,1.0172530840635112,1.0173671395698054,0.011212107201341581,1,True
2022-01-07,1.0173671395698054,1.0173671395698054,0.0,0,False
2022-01-08,1.0173671395698054,1.0173671395698054,0.0,0,False
2022-01-09,1.0173671395698054,1.0173671395698054,0.0,0,False
2022-01-10,1.0173671395698054,1.0173671395698054,0.0,0,False
2022-01-11,1.0173671395698054,1.0173671395698054,0.0,0,False
2022-01-12,1.0173671395698054,1.0173671395698054,0.0,0,False
2022-01-13,1.0173671395698054,1.0173671395698054,0.0,0,False
2022-01-14,1.0173671395698054,1.0173671395698054,0.0,0,False
2022-01-15,1.0173671395698054,1.0173671395698054,0.0,0,False
2022-01-16,1.0173671395698054,1.0173671395698054,0.0,0,False
2022-01-17,1.0173671395698054,1.0173671395698054,0.0,0,False
2022-01-18,1.0173671395698054,1.0173671395698054,0.0,0,False
2022-01-19,1.0173671395698054,1.0173671395698054,0.0,0,False
2022-01-20,1.0173671395698054,1.0173671395698054,0.0,0,False
2022-01-21,1.0173671395698054,1.0173671395698054,0.0,0,False
2022-01-22,1.0173671395698054,1.0173671395698054,0.0,0,False
2022-01-23,1.0173671395698054,1.0173671395698054,0.0,0,False
2022-01-24,1.0173671395698054,1.0173671395698054,0.0,0,False
2022-01-25,1.0173671395698054,1.0173671395698054,0.0,0,False
2022-01-26,1.0173671395698054,1.0173671395698054,0.0,0,False
2022-01-27,1.0173671395698054,1.0173671395698054,0.0,0,False
2022-01-28,1.0173671395698054,1.0173671395698054,0.0,0,False
2022-01-29,1.0173671395698054,1.0173671395698054,0.0,0,False
2022-01-30,1.0173671395698054,1.0173671395698054,0.0,0,False
2022-01-31,1.0173671395698054,1.0173671395698054,0.0,0,False
2022-02-01,1.0173671395698054,1.0173671395698054,0.0,0,False
2022-02-02,1.0173671395698054,1.0173671395698054,0.0,0,False
2022-02-03,1.0173671395698054,1.0173671395698054,0.0,0,False
2022-02-04,1.0173671395698054,1.0173671395698054,0.0,0,False
2022-02-05,1.0173671395698054,1.0173671395698054,0.0,0,False
2022-02-06,1.0173671395698054,1.0173671395698054,0.0,0,False
2022-02-07,1.0173671395698054,1.0173671395698054,0.0,0,False
2022-02-08,1.0173671395698054,1.0173671395698054,0.0,0,False
2022-02-09,1.0173671395698054,1.0173671395698054,0.0,0,False
2022-02-10,1.0173671395698054,1.018142054697363,0.07616868064810323,2,True
2022-02-11,1.018142054697363,1.0148207274670002,-0.32621452134692364,0,True
2022-02-12,1.0148207274670002,1.0148207274670002,0.0,0,False
2022-02-13,1.0148207274670002,1.0148207274670002,0.0,0,False
2022-02-14,1.0148207274670002,1.0148207274670002,0.0,0,False
2022-02-15,1.0148207274670002,1.0148207274670002,0.0,0,False
2022-02-16,1.0148207274670002,1.0148207274670002,0.0,0,False
2022-02-17,1.0148207274670002,1.0148207274670002,0.0,0,False
2022-02-18,1.0148207274670002,1.0148207274670002,0.0,0,False
2022-02-19,1.0148207274670002,1.0148207274670002,0.0,0,False
2022-02-20,1.0148207274670002,1.0148207274670002,0.0,0,False
2022-02-21,1.0148207274670002,1.0148207274670002,0.0,0,False
2022-02-22,1.0148207274670002,1.0148207274670002,0.0,0,False
2022-02-23,1.0148207274670002,1.0148207274670002,0.0,0,False
2022-02-24,1.0148207274670002,1.0148207274670002,0.0,0,False
2022-02-25,1.0148207274670002,1.0148207274670002,0.0,0,False
2022-02-26,1.0148207274670002,1.0148207274670002,0.0,0,False
2022-02-27,1.0148207274670002,1.0148207274670002,0.0,0,False
2022-02-28,1.0148207274670002,1.0148207274670002,0.0,0,False
2022-03-01,1.0148207274670002,1.0148207274670002,0.0,0,False
2022-03-02,1.0148207274670002,1.0148207274670002,0.0,0,False
2022-03-03,1.0148207274670002,1.0148207274670002,0.0,0,False
2022-03-04,1.0148207274670002,1.0148207274670002,0.0,0,False
2022-03-05,1.0148207274670002,1.0148207274670002,0.0,0,False
2022-03-06,1.0148207274670002,1.0148207274670002,0.0,0,False
2022-03-07,1.0148207274670002,1.0148207274670002,0.0,0,False
2022-03-08,1.0148207274670002,1.0148207274670002,0.0,0,False
2022-03-09,1.0148207274670002,1.0148207274670002,0.0,0,False
2022-03-10,1.0148207274670002,1.0148207274670002,0.0,0,False
2022-03-11,1.0148207274670002,1.0148207274670002,0.0,0,False
2022-03-12,1.0148207274670002,1.0148207274670002,0.0,0,False
2022-03-13,1.0148207274670002,1.0148207274670002,0.0,0,False
2022-03-14,1.0148207274670002,1.0148207274670002,0.0,0,False
2022-03-15,1.0148207274670002,1.0148207274670002,0.0,0,False
2022-03-16,1.0148207274670002,1.0148207274670002,0.0,0,False
2022-03-17,1.0148207274670002,1.0148207274670002,0.0,0,False
2022-03-18,1.0148207274670002,1.0148207274670002,0.0,0,False
2022-03-19,1.0148207274670002,1.0148207274670002,0.0,0,False
2022-03-20,1.0148207274670002,1.0148207274670002,0.0,0,False
2022-03-21,1.0148207274670002,1.0148207274670002,0.0,0,False
2022-03-22,1.0148207274670002,1.0148207274670002,0.0,0,False
2022-03-23,1.0148207274670002,1.0148207274670002,0.0,0,False
2022-03-24,1.0148207274670002,1.0148207274670002,0.0,0,False
2022-03-25,1.0148207274670002,1.0148207274670002,0.0,0,False
2022-03-26,1.0148207274670002,1.0165410212391595,0.16951701178327117,1,True
2022-03-27,1.0165410212391595,1.0165410212391595,0.0,0,False
2022-03-28,1.0165410212391595,1.0165410212391595,0.0,0,False
2022-03-29,1.0165410212391595,1.0165410212391595,0.0,0,False
2022-03-30,1.0165410212391595,1.013413361269074,-0.3076767100134048,1,True
2022-03-31,1.013413361269074,1.013413361269074,0.0,0,False
2022-04-01,1.013413361269074,1.013413361269074,0.0,0,False
2022-04-02,1.013413361269074,1.013413361269074,0.0,0,False
2022-04-03,1.013413361269074,1.013413361269074,0.0,0,False
2022-04-04,1.013413361269074,1.0083516853866337,-0.49946804294170866,1,True
2022-04-05,1.0083516853866337,1.0083516853866337,0.0,0,False
2022-04-06,1.0083516853866337,1.0101632049599025,0.1796515639852725,1,True
2022-04-07,1.0101632049599025,1.0072377547825537,-0.2896017359358183,1,True
2022-04-08,1.0072377547825537,1.0072377547825537,0.0,0,False
2022-04-09,1.0072377547825537,1.0072377547825537,0.0,0,False
2022-04-10,1.0072377547825537,1.0072377547825537,0.0,0,False
2022-04-11,1.0072377547825537,1.0072377547825537,0.0,0,False
2022-04-12,1.0072377547825537,1.0072377547825537,0.0,0,False
2022-04-13,1.0072377547825537,1.0072377547825537,0.0,0,False
2022-04-14,1.0072377547825537,1.0072377547825537,0.0,0,False
2022-04-15,1.0072377547825537,1.0072377547825537,0.0,0,False
2022-04-16,1.0072377547825537,1.0072377547825537,0.0,0,False
2022-04-17,1.0072377547825537,1.0072377547825537,0.0,0,False
2022-04-18,1.0072377547825537,1.0099824713685568,0.2724993749460447,1,True
2022-04-19,1.0099824713685568,1.0073205904153473,-0.263557143680182,0,True
2022-04-20,1.0073205904153473,1.0073205904153473,0.0,0,False
2022-04-21,1.0073205904153473,1.0073205904153473,0.0,0,False
2022-04-22,1.0073205904153473,1.0073205904153473,0.0,0,False
2022-04-23,1.0073205904153473,1.0073205904153473,0.0,0,False
2022-04-24,1.0073205904153473,1.0073205904153473,0.0,0,False
2022-04-25,1.0073205904153473,1.0073205904153473,0.0,0,False
2022-04-26,1.0073205904153473,1.0073205904153473,0.0,0,False
2022-04-27,1.0073205904153473,1.0073205904153473,0.0,0,False
2022-04-28,1.0073205904153473,1.0073205904153473,0.0,0,False
2022-04-29,1.0073205904153473,1.0073205904153473,0.0,0,False
2022-04-30,1.0073205904153473,1.0073205904153473,0.0,0,False
2022-05-01,1.0073205904153473,1.0224468781966656,1.5016359166331927,4,True
2022-05-02,1.0224468781966656,1.0224468781966656,0.0,0,False
2022-05-03,1.0224468781966656,1.0224468781966656,0.0,0,False
2022-05-04,1.0224468781966656,1.0224468781966656,0.0,0,False
2022-05-05,1.0224468781966656,1.0224468781966656,0.0,0,False
2022-05-06,1.0224468781966656,1.0181196453652595,-0.42322324256476307,2,True
2022-05-07,1.0181196453652595,1.0171384614411647,-0.0963721629929637,0,True
2022-05-08,1.0171384614411647,1.0171384614411647,0.0,0,False
2022-05-09,1.0171384614411647,1.0171384614411647,0.0,0,False
2022-05-10,1.0171384614411647,1.0105891825935298,-0.6438925570030452,2,True
2022-05-11,1.0105891825935298,0.9955979666058382,-1.4834134627503937,5,True
2022-05-12,0.9955979666058382,0.9907602020875658,-0.48591546794387597,1,True
2022-05-13,0.9907602020875658,0.9907602020875658,0.0,0,False
2022-05-14,0.9907602020875658,0.9907602020875658,0.0,0,False
2022-05-15,0.9907602020875658,0.9876844067239483,-0.31044801326665095,1,True
2022-05-16,0.9876844067239483,0.9933921521936655,0.577891625185134,1,True
2022-05-17,0.9933921521936655,0.9933921521936655,0.0,0,False
2022-05-18,0.9933921521936655,0.9933921521936655,0.0,0,False
2022-05-19,0.9933921521936655,0.9933921521936655,0.0,0,False
2022-05-20,0.9933921521936655,0.9884319999251493,-0.4993146218804867,1,True
2022-05-21,0.9884319999251493,0.9884319999251493,0.0,0,False
2022-05-22,0.9884319999251493,0.9884319999251493,0.0,0,False
2022-05-23,0.9884319999251493,0.9880579973885038,-0.037837963225983984,1,True
2022-05-24,0.9880579973885038,0.9846760740521474,-0.3422798403833527,1,True
2022-05-25,0.9846760740521474,0.9844925102838661,-0.018642046163053205,1,True
2022-05-26,0.9844925102838661,0.9828573908317325,-0.1660875461269029,1,True
2022-05-27,0.9828573908317325,0.9828573908317325,0.0,0,False
2022-05-28,0.9828573908317325,0.9828573908317325,0.0,0,False
2022-05-29,0.9828573908317325,0.9828573908317325,0.0,0,False
2022-05-30,0.9828573908317325,0.9828573908317325,0.0,0,False
2022-05-31,0.9828573908317325,0.9828573908317325,0.0,0,False
2022-06-01,0.9828573908317325,0.9828573908317325,0.0,0,False
2022-06-02,0.9828573908317325,0.9779472063127679,-0.4995826011756854,1,True
2022-06-03,0.9779472063127679,0.9779472063127679,0.0,0,False
2022-06-04,0.9779472063127679,0.9779472063127679,0.0,0,False
2022-06-05,0.9779472063127679,0.9779472063127679,0.0,0,False
2022-06-06,0.9779472063127679,0.9779472063127679,0.0,0,False
2022-06-07,0.9779472063127679,0.9788002369138199,0.08722665145373121,1,True
2022-06-08,0.9788002369138199,0.9776252580877959,-0.1200427606892207,1,True
2022-06-09,0.9776252580877959,0.9776252580877959,0.0,0,False
2022-06-10,0.9776252580877959,0.9795849586215728,0.2004551864392301,1,True
2022-06-11,0.9795849586215728,0.9795849586215728,0.0,0,False
2022-06-12,0.9795849586215728,0.97052259554738,-0.9251227261538375,4,True
2022-06-13,0.97052259554738,0.97052259554738,0.0,0,False
2022-06-14,0.97052259554738,0.97052259554738,0.0,0,False
2022-06-15,0.97052259554738,0.97052259554738,0.0,0,False
2022-06-16,0.97052259554738,0.980179293552919,0.9949998124559434,2,True
2022-06-17,0.980179293552919,0.9833233581220275,0.32076423056357495,0,True
2022-06-18,0.9833233581220275,0.9730088726936136,-1.0489413622913224,4,True
2022-06-19,0.9730088726936136,0.9747446649490552,0.17839428849568684,0,True
2022-06-20,0.9747446649490552,0.9747446649490552,0.0,0,False
2022-06-21,0.9747446649490552,0.9747446649490552,0.0,0,False
2022-06-22,0.9747446649490552,0.9747446649490552,0.0,0,False
2022-06-23,0.9747446649490552,0.9747446649490552,0.0,0,False
2022-06-24,0.9747446649490552,0.9747446649490552,0.0,0,False
2022-06-25,0.9747446649490552,0.9747446649490552,0.0,0,False
2022-06-26,0.9747446649490552,0.9747446649490552,0.0,0,False
2022-06-27,0.9747446649490552,0.9747446649490552,0.0,0,False
2022-06-28,0.9747446649490552,0.9762007926981938,0.14938555721304425,1,True
2022-06-29,0.9762007926981938,0.971071932450322,-0.5253898876373397,0,True
2022-06-30,0.971071932450322,0.971071932450322,0.0,0,False
2022-07-01,0.971071932450322,0.971071932450322,0.0,0,False
2022-07-02,0.971071932450322,0.971071932450322,0.0,0,False
2022-07-03,0.971071932450322,0.971071932450322,0.0,0,False
2022-07-04,0.971071932450322,0.971071932450322,0.0,0,False
2022-07-05,0.971071932450322,0.971071932450322,0.0,0,False
2022-07-06,0.971071932450322,0.971071932450322,0.0,0,False
2022-07-07,0.971071932450322,0.971071932450322,0.0,0,False
2022-07-08,0.971071932450322,0.971071932450322,0.0,0,False
2022-07-09,0.971071932450322,0.971071932450322,0.0,0,False
2022-07-10,0.971071932450322,0.971071932450322,0.0,0,False
2022-07-11,0.971071932450322,0.971071932450322,0.0,0,False
2022-07-12,0.971071932450322,0.971071932450322,0.0,0,False
2022-07-13,0.971071932450322,0.9817146159843327,1.0959727264648667,4,True
2022-07-14,0.9817146159843327,0.9982517623160687,1.6845166673162604,0,True
2022-07-15,0.9982517623160687,0.9982517623160687,0.0,0,False
2022-07-16,0.9982517623160687,0.9982517623160687,0.0,0,False
2022-07-17,0.9982517623160687,0.9982517623160687,0.0,0,False
2022-07-18,0.9982517623160687,0.9982517623160687,0.0,0,False
2022-07-19,0.9982517623160687,0.9982517623160687,0.0,0,False
2022-07-20,0.9982517623160687,0.9982517623160687,0.0,0,False
2022-07-21,0.9982517623160687,0.9959216980094296,-0.23341449467948472,3,True
2022-07-22,0.9959216980094296,0.9959216980094296,0.0,0,False
2022-07-23,0.9959216980094296,0.9959216980094296,0.0,0,False
2022-07-24,0.9959216980094296,1.0016211069544878,0.5722748039780345,1,True
2022-07-25,1.0016211069544878,1.0025295976779072,0.0907020346427867,1,True
2022-07-26,1.0025295976779072,1.0025295976779072,0.0,0,False
2022-07-27,1.0025295976779072,1.0025295976779072,0.0,0,False
2022-07-28,1.0025295976779072,1.0025295976779072,0.0,0,False
2022-07-29,1.0025295976779072,1.0025295976779072,0.0,0,False
2022-07-30,1.0025295976779072,1.0025295976779072,0.0,0,False
2022-07-31,1.0025295976779072,1.0025295976779072,0.0,0,False
2022-08-01,1.0025295976779072,1.0025295976779072,0.0,0,False
2022-08-02,1.0025295976779072,1.0025295976779072,0.0,0,False
2022-08-03,1.0025295976779072,1.0025295976779072,0.0,0,False
2022-08-04,1.0025295976779072,1.0025295976779072,0.0,0,False
2022-08-05,1.0025295976779072,1.0025295976779072,0.0,0,False
2022-08-06,1.0025295976779072,1.0025295976779072,0.0,0,False
2022-08-07,1.0025295976779072,1.0025295976779072,0.0,0,False
2022-08-08,1.0025295976779072,1.0025295976779072,0.0,0,False
2022-08-09,1.0025295976779072,1.0045229997323506,0.19883722725599906,1,True
2022-08-10,1.0045229997323506,1.0045229997323506,0.0,0,False
2022-08-11,1.0045229997323506,1.0045229997323506,0.0,0,False
2022-08-12,1.0045229997323506,1.0019440466851013,-0.2567340964752862,1,True
2022-08-13,1.0019440466851013,1.0019440466851013,0.0,0,False
2022-08-14,1.0019440466851013,1.0019440466851013,0.0,0,False
2022-08-15,1.0019440466851013,1.0019440466851013,0.0,0,False
2022-08-16,1.0019440466851013,1.0019440466851013,0.0,0,False
2022-08-17,1.0019440466851013,1.0019440466851013,0.0,0,False
2022-08-18,1.0019440466851013,1.0019440466851013,0.0,0,False
2022-08-19,1.0019440466851013,0.9891169351045095,-1.280222346051152,8,True
2022-08-20,0.9891169351045095,0.9924543652870754,0.3374151290022498,0,True
2022-08-21,0.9924543652870754,0.9924543652870754,0.0,0,False
2022-08-22,0.9924543652870754,0.9924543652870754,0.0,0,False
2022-08-23,0.9924543652870754,0.9924543652870754,0.0,0,False
2022-08-24,0.9924543652870754,0.9924543652870754,0.0,0,False
2022-08-25,0.9924543652870754,0.9924543652870754,0.0,0,False
2022-08-26,0.9924543652870754,0.9924543652870754,0.0,0,False
2022-08-27,0.9924543652870754,0.9924543652870754,0.0,0,False
2022-08-28,0.9924543652870754,0.9924543652870754,0.0,0,False
2022-08-29,0.9924543652870754,0.9924543652870754,0.0,0,False
2022-08-30,0.9924543652870754,0.9924543652870754,0.0,0,False
2022-08-31,0.9924543652870754,0.9924543652870754,0.0,0,False
2022-09-01,0.9924543652870754,0.9924543652870754,0.0,0,False
2022-09-02,0.9924543652870754,0.9924543652870754,0.0,0,False
2022-09-03,0.9924543652870754,0.9924543652870754,0.0,0,False
2022-09-04,0.9924543652870754,0.9924543652870754,0.0,0,False
2022-09-05,0.9924543652870754,0.9924543652870754,0.0,0,False
2022-09-06,0.9924543652870754,0.9924543652870754,0.0,0,False
2022-09-07,0.9924543652870754,0.9853282841915681,-0.7180260720044296,4,True
2022-09-08,0.9853282841915681,0.9853282841915681,0.0,0,False
2022-09-09,0.9853282841915681,0.9853282841915681,0.0,0,False
2022-09-10,0.9853282841915681,0.9853282841915681,0.0,0,False
2022-09-11,0.9853282841915681,0.9853282841915681,0.0,0,False
2022-09-12,0.9853282841915681,0.9853282841915681,0.0,0,False
2022-09-13,0.9853282841915681,0.9767854342075662,-0.8670054560558027,4,True
2022-09-14,0.9767854342075662,0.9703814020327233,-0.6556232259993022,0,True
2022-09-15,0.9703814020327233,0.9750203351749328,0.4780525608273356,1,True
2022-09-16,0.9750203351749328,0.9750203351749328,0.0,0,False
2022-09-17,0.9750203351749328,0.9750203351749328,0.0,0,False
2022-09-18,0.9750203351749328,0.9750203351749328,0.0,0,False
2022-09-19,0.9750203351749328,0.9705834117694635,-0.4550595762367604,5,True
2022-09-20,0.9705834117694635,0.9705834117694635,0.0,0,False
2022-09-21,0.9705834117694635,0.9705834117694635,0.0,0,False
2022-09-22,0.9705834117694635,0.9705834117694635,0.0,0,False
2022-09-23,0.9705834117694635,0.9705834117694635,0.0,0,False
2022-09-24,0.9705834117694635,0.9705834117694635,0.0,0,False
2022-09-25,0.9705834117694635,0.9705834117694635,0.0,0,False
2022-09-26,0.9705834117694635,0.9705834117694635,0.0,0,False
2022-09-27,0.9705834117694635,0.9705834117694635,0.0,0,False
2022-09-28,0.9705834117694635,0.9705834117694635,0.0,0,False
2022-09-29,0.9705834117694635,0.9705834117694635,0.0,0,False
2022-09-30,0.9705834117694635,0.9705834117694635,0.0,0,False
2022-10-01,0.9705834117694635,0.9705834117694635,0.0,0,False
2022-10-02,0.9705834117694635,0.9705834117694635,0.0,0,False
2022-10-03,0.9705834117694635,0.9705834117694635,0.0,0,False
2022-10-04,0.9705834117694635,0.9705834117694635,0.0,0,False
2022-10-05,0.9705834117694635,0.9705834117694635,0.0,0,False
2022-10-06,0.9705834117694635,0.9705834117694635,0.0,0,False
2022-10-07,0.9705834117694635,0.9705834117694635,0.0,0,False
2022-10-08,0.9705834117694635,0.9705834117694635,0.0,0,False
2022-10-09,0.9705834117694635,0.9705834117694635,0.0,0,False
2022-10-10,0.9705834117694635,0.9705834117694635,0.0,0,False
2022-10-11,0.9705834117694635,0.9937696780099877,2.38889990899942,4,True
2022-10-12,0.9937696780099877,0.9937696780099877,0.0,0,False
2022-10-13,0.9937696780099877,0.9937696780099877,0.0,0,False
2022-10-14,0.9937696780099877,0.9937696780099877,0.0,0,False
2022-10-15,0.9937696780099877,0.9937696780099877,0.0,0,False
2022-10-16,0.9937696780099877,0.9937696780099877,0.0,0,False
2022-10-17,0.9937696780099877,0.9937696780099877,0.0,0,False
2022-10-18,0.9937696780099877,0.9937696780099877,0.0,0,False
2022-10-19,0.9937696780099877,0.9937696780099877,0.0,0,False
2022-10-20,0.9937696780099877,0.997609975620397,0.3864373904121754,1,True
2022-10-21,0.997609975620397,0.997609975620397,0.0,0,False
2022-10-22,0.997609975620397,0.997609975620397,0.0,0,False
2022-10-23,0.997609975620397,0.997609975620397,0.0,0,False
2022-10-24,0.997609975620397,0.997609975620397,0.0,0,False
2022-10-25,0.997609975620397,0.997609975620397,0.0,0,False
2022-10-26,0.997609975620397,0.997609975620397,0.0,0,False
2022-10-27,0.997609975620397,0.997609975620397,0.0,0,False
2022-10-28,0.997609975620397,0.997609975620397,0.0,0,False
2022-10-29,0.997609975620397,0.997609975620397,0.0,0,False
2022-10-30,0.997609975620397,0.997609975620397,0.0,0,False
2022-10-31,0.997609975620397,0.997609975620397,0.0,0,False
2022-11-01,0.997609975620397,0.997609975620397,0.0,0,False
2022-11-02,0.997609975620397,1.00309828934195,0.5501462350694597,1,True
2022-11-03,1.00309828934195,1.00309828934195,0.0,0,False
2022-11-04,1.00309828934195,1.014551902969006,1.1418236626213218,2,True
2022-11-05,1.014551902969006,1.0135638367342916,-0.09738942205153034,0,True
2022-11-06,1.0135638367342916,1.0135638367342916,0.0,0,False
2022-11-07,1.0135638367342916,1.0112056512634466,-0.23266274756240657,1,True
2022-11-08,1.0112056512634466,1.0054622222396188,-0.5679783352329659,3,True
2022-11-09,1.0054622222396188,0.9951246409182529,-1.0281421909954402,4,True
2022-11-10,0.9951246409182529,1.003267500003485,0.818275294411186,1,True
2022-11-11,1.003267500003485,1.0085112240654175,0.5226645996121881,5,True
2022-11-12,1.0085112240654175,1.0169926103614557,0.8409808531281149,1,True
2022-11-13,1.0169926103614557,1.013517370519701,-0.3417173149881214,1,True
2022-11-14,1.013517370519701,1.0181832226525092,0.46036232515833664,2,True
2022-11-15,1.0181832226525092,1.0181832226525092,0.0,0,False
2022-11-16,1.0181832226525092,1.0181832226525092,0.0,0,False
2022-11-17,1.0181832226525092,1.0181832226525092,0.0,0,False
2022-11-18,1.0181832226525092,1.0181832226525092,0.0,0,False
2022-11-19,1.0181832226525092,1.0190516380784047,0.0852906831084077,2,True
2022-11-20,1.0190516380784047,1.0158621799589034,-0.31298297361217475,1,True
2022-11-21,1.0158621799589034,1.0093331025451713,-0.6427129134777165,1,True
2022-11-22,1.0093331025451713,1.0093331025451713,0.0,0,False
2022-11-23,1.0093331025451713,1.0093331025451713,0.0,0,False
2022-11-24,1.0093331025451713,1.0093331025451713,0.0,0,False
2022-11-25,1.0093331025451713,1.0093331025451713,0.0,0,False
2022-11-26,1.0093331025451713,1.0093331025451713,0.0,0,False
2022-11-27,1.0093331025451713,1.0093331025451713,0.0,0,False
2022-11-28,1.0093331025451713,1.0050795346662031,-0.4214235982394898,2,True
2022-11-29,1.0050795346662031,1.0050795346662031,0.0,0,False
2022-11-30,1.0050795346662031,1.0050795346662031,0.0,0,False
2022-12-01,1.0050795346662031,1.0048594911870492,-0.021893140947004675,1,True
2022-12-02,1.0048594911870492,1.0048594911870492,0.0,0,False
2022-12-03,1.0048594911870492,1.0048594911870492,0.0,0,False
2022-12-04,1.0048594911870492,1.0048594911870492,0.0,0,False
2022-12-05,1.0048594911870492,1.0048594911870492,0.0,0,False
2022-12-06,1.0048594911870492,1.0048594911870492,0.0,0,False
2022-12-07,1.0048594911870492,1.0048594911870492,0.0,0,False
2022-12-08,1.0048594911870492,0.9998442379119816,-0.4990999556707232,1,True
2022-12-09,0.9998442379119816,0.9998442379119816,0.0,0,False
2022-12-10,0.9998442379119816,0.9998442379119816,0.0,0,False
2022-12-11,0.9998442379119816,0.9998442379119816,0.0,0,False
2022-12-12,0.9998442379119816,0.9998442379119816,0.0,0,False
2022-12-13,0.9998442379119816,0.9998442379119816,0.0,0,False
2022-12-14,0.9998442379119816,0.9998442379119816,0.0,0,False
2022-12-15,0.9998442379119816,0.9998442379119816,0.0,0,False
2022-12-16,0.9998442379119816,0.9998442379119816,0.0,0,False
2022-12-17,0.9998442379119816,1.0044735569432541,0.46300402160042164,4,True
2022-12-18,1.0044735569432541,1.0044735569432541,0.0,0,False
2022-12-19,1.0044735569432541,1.0044735569432541,0.0,0,False
2022-12-20,1.0044735569432541,1.0044735569432541,0.0,0,False
2022-12-21,1.0044735569432541,1.0044735569432541,0.0,0,False
2022-12-22,1.0044735569432541,1.0044735569432541,0.0,0,False
2022-12-23,1.0044735569432541,1.0044735569432541,0.0,0,False
2022-12-24,1.0044735569432541,1.0044735569432541,0.0,0,False
2022-12-25,1.0044735569432541,1.0044735569432541,0.0,0,False
2022-12-26,1.0044735569432541,1.0044735569432541,0.0,0,False
2022-12-27,1.0044735569432541,1.0044735569432541,0.0,0,False
2022-12-28,1.0044735569432541,1.006808385403864,0.2324429990685939,1,True
2022-12-29,1.006808385403864,1.0050420171613066,-0.17544234515378676,0,True
2022-12-30,1.0050420171613066,1.0050420171613066,0.0,0,False
2022-12-31,1.0050420171613066,1.0050420171613066,0.0,0,False
2023-01-01,1.0050420171613066,1.0050420171613066,0.0,0,False
2023-01-02,1.0050420171613066,1.005268450932922,0.02252978161598751,1,True
2023-01-03,1.005268450932922,1.0053559115923147,0.008700229208580268,0,True
2023-01-04,1.0053559115923147,1.0053559115923147,0.0,0,False
2023-01-05,1.0053559115923147,1.0053559115923147,0.0,0,False
2023-01-06,1.0053559115923147,1.0053559115923147,0.0,0,False
2023-01-07,1.0053559115923147,1.0053559115923147,0.0,0,False
2023-01-08,1.0053559115923147,1.0053559115923147,0.0,0,False
2023-01-09,1.0053559115923147,1.0053559115923147,0.0,0,False
2023-01-10,1.0053559115923147,1.0028868477464001,-0.24559102079620976,2,True
2023-01-11,1.0028868477464001,1.0034550790945322,0.05665956726912391,0,True
2023-01-12,1.0034550790945322,1.0034550790945322,0.0,0,False
2023-01-13,1.0034550790945322,1.0034550790945322,0.0,0,False
2023-01-14,1.0034550790945322,1.0034550790945322,0.0,0,False
2023-01-15,1.0034550790945322,1.0024971446290534,-0.09546361221702826,1,True
2023-01-16,1.0024971446290534,1.0024971446290534,0.0,0,False
2023-01-17,1.0024971446290534,1.0024971446290534,0.0,0,False
2023-01-18,1.0024971446290534,1.0024971446290534,0.0,0,False
2023-01-19,1.0024971446290534,0.9974904245181679,-0.4994248749444652,1,True
2023-01-20,0.9974904245181679,0.9974904245181679,0.0,0,False
2023-01-21,0.9974904245181679,0.998616593533779,0.11290023321828269,1,True
2023-01-22,0.998616593533779,0.9979462740422057,-0.06712481005359816,0,True
2023-01-23,0.9979462740422057,0.9979462740422057,0.0,0,False
2023-01-24,0.9979462740422057,1.0037393869949496,0.5805034903611395,1,True
2023-01-25,1.0037393869949496,1.0083173002397152,0.45608584300664834,5,True
2023-01-26,1.0083173002397152,1.0083173002397152,0.0,0,False
2023-01-27,1.0083173002397152,1.0083173002397152,0.0,0,False
2023-01-28,1.0083173002397152,1.0083173002397152,0.0,0,False
2023-01-29,1.0083173002397152,1.0083173002397152,0.0,0,False
2023-01-30,1.0083173002397152,1.008163570993473,-0.015246118082634652,2,True
2023-01-31,1.008163570993473,1.008877506104093,0.07081540448010681,2,True
2023-02-01,1.008877506104093,1.008877506104093,0.0,0,False
2023-02-02,1.008877506104093,1.008877506104093,0.0,0,False
2023-02-03,1.008877506104093,1.008877506104093,0.0,0,False
2023-02-04,1.008877506104093,1.008877506104093,0.0,0,False
2023-02-05,1.008877506104093,1.0111717871944217,0.22740928174602715,4,True
2023-02-06,1.0111717871944217,1.0228445300430404,1.1543778214981426,1,True
2023-02-07,1.0228445300430404,1.02239166851468,-0.04427471771699665,0,True
2023-02-08,1.02239166851468,1.02239166851468,0.0,0,False
2023-02-09,1.02239166851468,1.02239166851468,0.0,0,False
2023-02-10,1.02239166851468,1.02239166851468,0.0,0,False
2023-02-11,1.02239166851468,1.02239166851468,0.0,0,False
2023-02-12,1.02239166851468,1.02239166851468,0.0,0,False
2023-02-13,1.02239166851468,1.02239166851468,0.0,0,False
2023-02-14,1.02239166851468,1.02239166851468,0.0,0,False
2023-02-15,1.02239166851468,1.02239166851468,0.0,0,False
2023-02-16,1.02239166851468,1.02239166851468,0.0,0,False
2023-02-17,1.02239166851468,1.02239166851468,0.0,0,False
2023-02-18,1.02239166851468,1.02239166851468,0.0,0,False
2023-02-19,1.02239166851468,1.02239166851468,0.0,0,False
2023-02-20,1.02239166851468,1.02239166851468,0.0,0,False
2023-02-21,1.02239166851468,1.01948412963729,-0.2843860104625118,2,True
2023-02-22,1.01948412963729,1.0198361935976787,0.034533540067349655,0,True
2023-02-23,1.0198361935976787,1.0307809438463442,1.0731870782165087,1,True
2023-02-24,1.0307809438463442,1.0307809438463442,0.0,0,False
2023-02-25,1.0307809438463442,1.0307809438463442,0.0,0,False
2023-02-26,1.0307809438463442,1.0307809438463442,0.0,0,False
2023-02-27,1.0307809438463442,1.0256324165650046,-0.49947831419234756,1,True
2023-02-28,1.0256324165650046,1.0256324165650046,0.0,0,False
2023-03-01,1.0256324165650046,1.0256324165650046,0.0,0,False
2023-03-02,1.0256324165650046,1.0256324165650046,0.0,0,False
2023-03-03,1.0256324165650046,1.0201457525075888,-0.5349542359231907,5,True
2023-03-04,1.0201457525075888,1.0201457525075888,0.0,0,False
2023-03-05,1.0201457525075888,1.0201457525075888,0.0,0,False
2023-03-06,1.0201457525075888,1.0201457525075888,0.0,0,False
2023-03-07,1.0201457525075888,1.0201457525075888,0.0,0,False
2023-03-08,1.0201457525075888,1.0201457525075888,0.0,0,False
2023-03-09,1.0201457525075888,1.0201457525075888,0.0,0,False
2023-03-10,1.0201457525075888,1.0201457525075888,0.0,0,False
2023-03-11,1.0201457525075888,1.0253132801917413,0.5065479782129456,1,True
2023-03-12,1.0253132801917413,1.0236449062974775,-0.16271845166696552,0,True
2023-03-13,1.0236449062974775,1.0236449062974775,0.0,0,False
2023-03-14,1.0236449062974775,1.0236449062974775,0.0,0,False
2023-03-15,1.0236449062974775,1.0236449062974775,0.0,0,False
2023-03-16,1.0236449062974775,1.0260515694278223,0.2351072247357422,1,True
2023-03-17,1.0260515694278223,1.0209275818898993,-0.49938888946686744,1,True
2023-03-18,1.0209275818898993,1.0209275818898993,0.0,0,False
2023-03-19,1.0209275818898993,1.0209275818898993,0.0,0,False
2023-03-20,1.0209275818898993,1.0209275818898993,0.0,0,False
2023-03-21,1.0209275818898993,1.0158300806728848,-0.4993009599738918,1,True
2023-03-22,1.0158300806728848,1.0158300806728848,0.0,0,False
2023-03-23,1.0158300806728848,1.0248410004758715,0.887049908683335,3,True
2023-03-24,1.0248410004758715,1.022059825148256,-0.271376274595192,0,True
2023-03-25,1.022059825148256,1.0170330786307937,-0.49182507655392005,1,True
2023-03-26,1.0170330786307937,1.0170330786307937,0.0,0,False
2023-03-27,1.0170330786307937,1.0170330786307937,0.0,0,False
2023-03-28,1.0170330786307937,1.0170330786307937,0.0,0,False
2023-03-29,1.0170330786307937,1.0170330786307937,0.0,0,False
2023-03-30,1.0170330786307937,1.0170330786307937,0.0,0,False
2023-03-31,1.0170330786307937,1.0170330786307937,0.0,0,False
2023-04-01,1.0170330786307937,1.0170330786307937,0.0,0,False
2023-04-02,1.0170330786307937,1.0170330786307937,0.0,0,False
2023-04-03,1.0170330786307937,1.0170330786307937,0.0,0,False
2023-04-04,1.0170330786307937,1.0170330786307937,0.0,0,False
2023-04-05,1.0170330786307937,1.0170330786307937,0.0,0,False
2023-04-06,1.0170330786307937,1.0119492592914294,-0.49986764896658986,1,True
2023-04-07,1.0119492592914294,1.0095908624689078,-0.23305484942722776,1,True
2023-04-08,1.0095908624689078,1.0095908624689078,0.0,0,False
2023-04-09,1.0095908624689078,1.0095908624689078,0.0,0,False
2023-04-10,1.0095908624689078,1.0095908624689078,0.0,0,False
2023-04-11,1.0095908624689078,1.0095908624689078,0.0,0,False
2023-04-12,1.0095908624689078,1.0095908624689078,0.0,0,False
2023-04-13,1.0095908624689078,1.0095908624689078,0.0,0,False
2023-04-14,1.0095908624689078,1.0095908624689078,0.0,0,False
2023-04-15,1.0095908624689078,1.0095908624689078,0.0,0,False
2023-04-16,1.0095908624689078,1.0095908624689078,0.0,0,False
2023-04-17,1.0095908624689078,1.0095908624689078,0.0,0,False
2023-04-18,1.0095908624689078,1.0095908624689078,0.0,0,False
2023-04-19,1.0095908624689078,0.999518607849282,-0.9976570702110554,2,True
2023-04-20,0.999518607849282,0.999518607849282,0.0,0,False
2023-04-21,0.999518607849282,0.999518607849282,0.0,0,False
2023-04-22,0.999518607849282,0.999518607849282,0.0,0,False
2023-04-23,0.999518607849282,0.999518607849282,0.0,0,False
2023-04-24,0.999518607849282,0.999518607849282,0.0,0,False
2023-04-25,0.999518607849282,0.999518607849282,0.0,0,False
2023-04-26,0.999518607849282,0.999518607849282,0.0,0,False
2023-04-27,0.999518607849282,0.999518607849282,0.0,0,False
2023-04-28,0.999518607849282,0.999518607849282,0.0,0,False
2023-04-29,0.999518607849282,0.999518607849282,0.0,0,False
2023-04-30,0.999518607849282,0.999518607849282,0.0,0,False
2023-05-01,0.999518607849282,0.999518607849282,0.0,0,False
2023-05-02,0.999518607849282,0.999518607849282,0.0,0,False
2023-05-03,0.999518607849282,0.999518607849282,0.0,0,False
2023-05-04,0.999518607849282,0.999518607849282,0.0,0,False
2023-05-05,0.999518607849282,0.999518607849282,0.0,0,False
2023-05-06,0.999518607849282,0.999518607849282,0.0,0,False
2023-05-07,0.999518607849282,0.999518607849282,0.0,0,False
2023-05-08,0.999518607849282,0.9949154557360913,-0.46053691017274856,5,True
2023-05-09,0.9949154557360913,0.9911070978379739,-0.3827820621501776,2,True
2023-05-10,0.9911070978379739,0.992430752901739,0.13355318175527486,1,True
2023-05-11,0.992430752901739,0.990481897226618,-0.1963719553654375,0,True
2023-05-12,0.990481897226618,0.990481897226618,0.0,0,False
2023-05-13,0.990481897226618,0.990481897226618,0.0,0,False
2023-05-14,0.990481897226618,0.990481897226618,0.0,0,False
2023-05-15,0.990481897226618,0.990481897226618,0.0,0,False
2023-05-16,0.990481897226618,0.990481897226618,0.0,0,False
2023-05-17,0.990481897226618,0.990481897226618,0.0,0,False
2023-05-18,0.990481897226618,0.990481897226618,0.0,0,False
2023-05-19,0.990481897226618,0.990481897226618,0.0,0,False
2023-05-20,0.990481897226618,0.990481897226618,0.0,0,False
2023-05-21,0.990481897226618,0.990481897226618,0.0,0,False
2023-05-22,0.990481897226618,0.990481897226618,0.0,0,False
2023-05-23,0.990481897226618,0.990481897226618,0.0,0,False
2023-05-24,0.990481897226618,0.990481897226618,0.0,0,False
2023-05-25,0.990481897226618,0.990481897226618,0.0,0,False
2023-05-26,0.990481897226618,0.9922148353427569,0.17495909021569833,1,True
2023-05-27,0.9922148353427569,0.9955077795320952,0.33187814493831347,0,True
2023-05-28,0.9955077795320952,0.9955077795320952,0.0,0,False
2023-05-29,0.9955077795320952,0.9955077795320952,0.0,0,False
2023-05-30,0.9955077795320952,0.9955077795320952,0.0,0,False
2023-05-31,0.9955077795320952,0.9955077795320952,0.0,0,False
2023-06-01,0.9955077795320952,0.9955077795320952,0.0,0,False
2023-06-02,0.9955077795320952,1.0077188291426695,1.2266151869062991,1,True
2023-06-03,1.0077188291426695,1.0077188291426695,0.0,0,False
2023-06-04,1.0077188291426695,1.0077188291426695,0.0,0,False
2023-06-05,1.0077188291426695,1.0077188291426695,0.0,0,False
2023-06-06,1.0077188291426695,0.9994120377110862,-0.8243163858167035,4,True
2023-06-07,0.9994120377110862,0.9994120377110862,0.0,0,False
2023-06-08,0.9994120377110862,0.9956505096987173,-0.37637409501128927,1,True
2023-06-09,0.9956505096987173,0.9956505096987173,0.0,0,False
2023-06-10,0.9956505096987173,1.014646180975685,1.9078653696180892,5,True
2023-06-11,1.014646180975685,1.013923337631979,-0.07124092686290329,0,True
2023-06-12,1.013923337631979,1.013923337631979,0.0,0,False
2023-06-13,1.013923337631979,1.013923337631979,0.0,0,False
2023-06-14,1.013923337631979,1.013923337631979,0.0,0,False
2023-06-15,1.013923337631979,1.013923337631979,0.0,0,False
2023-06-16,1.013923337631979,1.013923337631979,0.0,0,False
2023-06-17,1.013923337631979,1.013923337631979,0.0,0,False
2023-06-18,1.013923337631979,1.013923337631979,0.0,0,False
2023-06-19,1.013923337631979,1.0190262799505807,0.5032867998205459,1,True
2023-06-20,1.0190262799505807,1.019846854672522,0.08052537388740788,0,True
2023-06-21,1.019846854672522,1.019846854672522,0.0,0,False
2023-06-22,1.019846854672522,1.0183084924515038,-0.15084247345275026,1,True
2023-06-23,1.0183084924515038,1.0183084924515038,0.0,0,False
2023-06-24,1.0183084924515038,1.0183084924515038,0.0,0,False
2023-06-25,1.0183084924515038,1.0183084924515038,0.0,0,False
2023-06-26,1.0183084924515038,1.0183084924515038,0.0,0,False
2023-06-27,1.0183084924515038,1.0183084924515038,0.0,0,False
2023-06-28,1.0183084924515038,1.0183084924515038,0.0,0,False
2023-06-29,1.0183084924515038,1.0183084924515038,0.0,0,False
2023-06-30,1.0183084924515038,0.9980106188268633,-1.9932931695163303,4,True
2023-07-01,0.9980106188268633,0.9930264823881979,-0.49940715505853994,1,True
2023-07-02,0.9930264823881979,0.9930264823881979,0.0,0,False
2023-07-03,0.9930264823881979,0.9930264823881979,0.0,0,False
2023-07-04,0.9930264823881979,0.9930264823881979,0.0,0,False
2023-07-05,0.9930264823881979,0.9930264823881979,0.0,0,False
2023-07-06,0.9930264823881979,0.9930264823881979,0.0,0,False
2023-07-07,0.9930264823881979,0.9930264823881979,0.0,0,False
2023-07-08,0.9930264823881979,0.9930264823881979,0.0,0,False
2023-07-09,0.9930264823881979,0.9930264823881979,0.0,0,False
2023-07-10,0.9930264823881979,0.9930264823881979,0.0,0,False
2023-07-11,0.9930264823881979,0.9930264823881979,0.0,0,False
2023-07-12,0.9930264823881979,0.9930264823881979,0.0,0,False
2023-07-13,0.9930264823881979,0.9930264823881979,0.0,0,False
2023-07-14,0.9930264823881979,0.9930264823881979,0.0,0,False
2023-07-15,0.9930264823881979,0.9930264823881979,0.0,0,False
2023-07-16,0.9930264823881979,0.9930264823881979,0.0,0,False
2023-07-17,0.9930264823881979,0.9930264823881979,0.0,0,False
2023-07-18,0.9930264823881979,0.9930264823881979,0.0,0,False
2023-07-19,0.9930264823881979,0.9930264823881979,0.0,0,False
2023-07-20,0.9930264823881979,0.9930264823881979,0.0,0,False
2023-07-21,0.9930264823881979,0.9930264823881979,0.0,0,False
2023-07-22,0.9930264823881979,0.9930264823881979,0.0,0,False
2023-07-23,0.9930264823881979,0.9930264823881979,0.0,0,False
2023-07-24,0.9930264823881979,0.9928017887091962,-0.022627158790500257,1,True
2023-07-25,0.9928017887091962,0.9914251477858577,-0.13866221223557407,0,True
2023-07-26,0.9914251477858577,0.9914251477858577,0.0,0,False
2023-07-27,0.9914251477858577,0.9914251477858577,0.0,0,False
2023-07-28,0.9914251477858577,0.9914251477858577,0.0,0,False
2023-07-29,0.9914251477858577,0.9914251477858577,0.0,0,False
2023-07-30,0.9914251477858577,0.9914251477858577,0.0,0,False
2023-07-31,0.9914251477858577,0.9914251477858577,0.0,0,False
2023-08-01,0.9914251477858577,0.9914251477858577,0.0,0,False
2023-08-02,0.9914251477858577,0.9914251477858577,0.0,0,False
2023-08-03,0.9914251477858577,0.9914251477858577,0.0,0,False
2023-08-04,0.9914251477858577,0.9914251477858577,0.0,0,False
2023-08-05,0.9914251477858577,0.9914251477858577,0.0,0,False
2023-08-06,0.9914251477858577,0.9914251477858577,0.0,0,False
2023-08-07,0.9914251477858577,0.9914251477858577,0.0,0,False
2023-08-08,0.9914251477858577,0.9914251477858577,0.0,0,False
2023-08-09,0.9914251477858577,0.9914251477858577,0.0,0,False
2023-08-10,0.9914251477858577,0.9914251477858577,0.0,0,False
2023-08-11,0.9914251477858577,0.9914251477858577,0.0,0,False
2023-08-12,0.9914251477858577,0.9914251477858577,0.0,0,False
2023-08-13,0.9914251477858577,0.9914251477858577,0.0,0,False
2023-08-14,0.9914251477858577,0.9914251477858577,0.0,0,False
2023-08-15,0.9914251477858577,0.9914251477858577,0.0,0,False
2023-08-16,0.9914251477858577,0.9986843535994416,0.7321990802629852,4,True
2023-08-17,0.9986843535994416,0.9986843535994416,0.0,0,False
2023-08-18,0.9986843535994416,1.0406931557462633,4.206414368605471,4,True
2023-08-19,1.0406931557462633,1.0406931557462633,0.0,0,False
2023-08-20,1.0406931557462633,1.0406931557462633,0.0,0,False
2023-08-21,1.0406931557462633,1.0406931557462633,0.0,0,False
2023-08-22,1.0406931557462633,1.0406931557462633,0.0,0,False
2023-08-23,1.0406931557462633,1.0406931557462633,0.0,0,False
2023-08-24,1.0406931557462633,1.0406931557462633,0.0,0,False
2023-08-25,1.0406931557462633,1.0255746032530053,-1.4527387260865332,3,True
2023-08-26,1.0255746032530053,1.0255746032530053,0.0,0,False
2023-08-27,1.0255746032530053,1.0255746032530053,0.0,0,False
2023-08-28,1.0255746032530053,1.0255746032530053,0.0,0,False
2023-08-29,1.0255746032530053,1.0255746032530053,0.0,0,False
2023-08-30,1.0255746032530053,1.0255746032530053,0.0,0,False
2023-08-31,1.0255746032530053,1.0255746032530053,0.0,0,False
2023-09-01,1.0255746032530053,1.0255746032530053,0.0,0,False
2023-09-02,1.0255746032530053,1.0273469142211438,0.17281151098289538,1,True
2023-09-03,1.0273469142211438,1.0279296308769912,0.05672053400669341,0,True
2023-09-04,1.0279296308769912,1.0279296308769912,0.0,0,False
2023-09-05,1.0279296308769912,1.0279296308769912,0.0,0,False
2023-09-06,1.0279296308769912,1.0279296308769912,0.0,0,False
2023-09-07,1.0279296308769912,1.0279296308769912,0.0,0,False
2023-09-08,1.0279296308769912,1.0279296308769912,0.0,0,False
2023-09-09,1.0279296308769912,1.0279296308769912,0.0,0,False
2023-09-10,1.0279296308769912,1.026424713047039,-0.14640280664623972,2,True
2023-09-11,1.026424713047039,1.0259706179116883,-0.04424047176364576,1,True
2023-09-12,1.0259706179116883,1.0259706179116883,0.0,0,False
2023-09-13,1.0259706179116883,1.0226698252212854,-0.32172390054615585,1,True
2023-09-14,1.0226698252212854,1.0226698252212854,0.0,0,False
2023-09-15,1.0226698252212854,1.0226698252212854,0.0,0,False
2023-09-16,1.0226698252212854,1.0226698252212854,0.0,0,False
2023-09-17,1.0226698252212854,1.0226698252212854,0.0,0,False
2023-09-18,1.0226698252212854,1.0175619038916683,-0.49946925230845984,1,True
2023-09-19,1.0175619038916683,1.0175619038916683,0.0,0,False
2023-09-20,1.0175619038916683,1.019905486833219,0.23031354972975482,1,True
2023-09-21,1.019905486833219,1.0229097977703325,0.2945675825749339,0,True
2023-09-22,1.0229097977703325,1.0229097977703325,0.0,0,False
2023-09-23,1.0229097977703325,1.0229097977703325,0.0,0,False
2023-09-24,1.0229097977703325,1.0229097977703325,0.0,0,False
2023-09-25,1.0229097977703325,1.0229097977703325,0.0,0,False
2023-09-26,1.0229097977703325,1.023701988886736,0.0774448654348836,1,True
2023-09-27,1.023701988886736,1.0223847432621571,-0.12867471577460154,0,True
2023-09-28,1.0223847432621571,1.0223847432621571,0.0,0,False
2023-09-29,1.0223847432621571,1.0223847432621571,0.0,0,False
2023-09-30,1.0223847432621571,1.0223847432621571,0.0,0,False
2023-10-01,1.0223847432621571,1.0223847432621571,0.0,0,False
2023-10-02,1.0223847432621571,1.0223847432621571,0.0,0,False
2023-10-03,1.0223847432621571,1.0225767518318085,0.01878046116363663,1,True
2023-10-04,1.0225767518318085,1.020182333124559,-0.23415540231677134,0,True
2023-10-05,1.020182333124559,1.020182333124559,0.0,0,False
2023-10-06,1.020182333124559,1.020182333124559,0.0,0,False
2023-10-07,1.020182333124559,1.020182333124559,0.0,0,False
2023-10-08,1.020182333124559,1.020182333124559,0.0,0,False
2023-10-09,1.020182333124559,1.020182333124559,0.0,0,False
2023-10-10,1.020182333124559,1.020182333124559,0.0,0,False
2023-10-11,1.020182333124559,1.020182333124559,0.0,0,False
2023-10-12,1.020182333124559,1.020182333124559,0.0,0,False
2023-10-13,1.020182333124559,1.020182333124559,0.0,0,False
2023-10-14,1.020182333124559,1.020182333124559,0.0,0,False
2023-10-15,1.020182333124559,1.0200967730235693,-0.008386745997424061,1,True
2023-10-16,1.0200967730235693,1.0207714752820336,0.06614100507980059,1,True
2023-10-17,1.0207714752820336,1.0151976099648918,-0.5460443842831508,1,True
2023-10-18,1.0151976099648918,1.0151976099648918,0.0,0,False
2023-10-19,1.0151976099648918,1.0061115136822252,-0.8950076510701122,2,True
2023-10-20,1.0061115136822252,1.0061115136822252,0.0,0,False
2023-10-21,1.0061115136822252,1.0068731009127145,0.07569610526592108,1,True
2023-10-22,1.0068731009127145,1.0068731009127145,0.0,0,False
2023-10-23,1.0068731009127145,1.0068731009127145,0.0,0,False
2023-10-24,1.0068731009127145,1.0068731009127145,0.0,0,False
2023-10-25,1.0068731009127145,1.0068731009127145,0.0,0,False
2023-10-26,1.0068731009127145,1.0131034076798195,0.6187777547594919,2,True
2023-10-27,1.0131034076798195,1.0138942761005938,0.07806393846661042,1,True
2023-10-28,1.0138942761005938,1.0151678747889372,0.12561454565476193,0,True
2023-10-29,1.0151678747889372,1.0151678747889372,0.0,0,False
2023-10-30,1.0151678747889372,1.0151678747889372,0.0,0,False
2023-10-31,1.0151678747889372,1.0151678747889372,0.0,0,False
2023-11-01,1.0151678747889372,1.0151678747889372,0.0,0,False
2023-11-02,1.0151678747889372,1.0151678747889372,0.0,0,False
2023-11-03,1.0151678747889372,1.0151678747889372,0.0,0,False
2023-11-04,1.0151678747889372,1.0151678747889372,0.0,0,False
2023-11-05,1.0151678747889372,1.0151678747889372,0.0,0,False
2023-11-06,1.0151678747889372,1.0151678747889372,0.0,0,False
2023-11-07,1.0151678747889372,1.0100961238861683,-0.49959726156851847,1,True
2023-11-08,1.0100961238861683,1.0100961238861683,0.0,0,False
2023-11-09,1.0100961238861683,1.0128563995544444,0.27326861305598804,3,True
2023-11-10,1.0128563995544444,1.0254072533802474,1.2391543195386934,4,True
2023-11-11,1.0254072533802474,1.0254072533802474,0.0,0,False
2023-11-12,1.0254072533802474,1.0254072533802474,0.0,0,False
2023-11-13,1.0254072533802474,1.0254072533802474,0.0,0,False
2023-11-14,1.0254072533802474,1.0254072533802474,0.0,0,False
2023-11-15,1.0254072533802474,1.0254072533802474,0.0,0,False
2023-11-16,1.0254072533802474,1.0254072533802474,0.0,0,False
2023-11-17,1.0254072533802474,1.0254072533802474,0.0,0,False
2023-11-18,1.0254072533802474,1.0254072533802474,0.0,0,False
2023-11-19,1.0254072533802474,1.0254072533802474,0.0,0,False
2023-11-20,1.0254072533802474,1.0269962413235,0.15496164455777173,1,True
2023-11-21,1.0269962413235,1.0233903178266504,-0.3511136021493888,0,True
2023-11-22,1.0233903178266504,1.019891266506923,-0.3419077998664366,1,True
2023-11-23,1.019891266506923,1.019891266506923,0.0,0,False
2023-11-24,1.019891266506923,1.019891266506923,0.0,0,False
2023-11-25,1.019891266506923,1.0236276044050958,0.36634669016919474,1,True
2023-11-26,1.0236276044050958,1.0236276044050958,0.0,0,False
2023-11-27,1.0236276044050958,1.0185158624709185,-0.4993751548101444,1,True
2023-11-28,1.0185158624709185,1.0185158624709185,0.0,0,False
2023-11-29,1.0185158624709185,1.0155945912091542,-0.28681647182964287,1,True
2023-11-30,1.0155945912091542,1.0155945912091542,0.0,0,False
2023-12-01,1.0155945912091542,1.0155945912091542,0.0,0,False
2023-12-02,1.0155945912091542,1.0155945912091542,0.0,0,False
2023-12-03,1.0155945912091542,1.0162284637030996,0.06241392967549775,1,True
2023-12-04,1.0162284637030996,1.0247368901801983,0.837255280775584,4,True
2023-12-05,1.0247368901801983,1.0289302371508866,0.40921206320101433,0,True
2023-12-06,1.0289302371508866,1.0289302371508866,0.0,0,False
2023-12-07,1.0289302371508866,1.0237908643649831,-0.49948700119207823,1,True
2023-12-08,1.0237908643649831,1.0237908643649831,0.0,0,False
2023-12-09,1.0237908643649831,1.0237908643649831,0.0,0,False
2023-12-10,1.0237908643649831,1.0237908643649831,0.0,0,False
2023-12-11,1.0237908643649831,1.0349021783222487,1.0853109110479764,4,True
2023-12-12,1.0349021783222487,1.0349021783222487,0.0,0,False
2023-12-13,1.0349021783222487,1.0328952244479814,-0.19392691563573372,1,True
2023-12-14,1.0328952244479814,1.0328952244479814,0.0,0,False
2023-12-15,1.0328952244479814,1.0328952244479814,0.0,0,False
2023-12-16,1.0328952244479814,1.0328952244479814,0.0,0,False
2023-12-17,1.0328952244479814,1.0328952244479814,0.0,0,False
2023-12-18,1.0328952244479814,1.03642474188523,0.3417110810183921,1,True
2023-12-19,1.03642474188523,1.0338234009334073,-0.25099178422649526,0,True
2023-12-20,1.0338234009334073,1.0338234009334073,0.0,0,False
2023-12-21,1.0338234009334073,1.0338234009334073,0.0,0,False
2023-12-22,1.0338234009334073,1.0338234009334073,0.0,0,False
2023-12-23,1.0338234009334073,1.0338234009334073,0.0,0,False
2023-12-24,1.0338234009334073,1.032233459291691,-0.15379238274938478,1,True
2023-12-25,1.032233459291691,1.0331999816136703,0.0936340818328496,0,True
2023-12-26,1.0331999816136703,1.0331999816136703,0.0,0,False
2023-12-27,1.0331999816136703,1.0280855842296066,-0.49500556282201513,2,True
2023-12-28,1.0280855842296066,1.0280855842296066,0.0,0,False
2023-12-29,1.0280855842296066,1.0280855842296066,0.0,0,False
2023-12-30,1.0280855842296066,1.0280855842296066,0.0,0,False
2023-12-31,1.0280855842296066,1.0280855842296066,0.0,0,False
