day,start_equity,end_equity,return_pct,entries,active
2021-09-02,1.0,1.0,0.0,0,False
2021-09-03,1.0,1.0,0.0,0,False
2021-09-04,1.0,1.0,0.0,0,False
2021-09-05,1.0,1.0,0.0,0,False
2021-09-06,1.0,1.0,0.0,0,False
2021-09-07,1.0,1.0,0.0,0,False
2021-09-08,1.0,1.0,0.0,0,False
2021-09-09,1.0,1.0,0.0,0,False
2021-09-10,1.0,1.0,0.0,0,False
2021-09-11,1.0,1.0,0.0,0,False
2021-09-12,1.0,1.0,0.0,0,False
2021-09-13,1.0,1.0,0.0,0,False
2021-09-14,1.0,1.0,0.0,0,False
2021-09-15,1.0,1.0,0.0,0,False
2021-09-16,1.0,1.0,0.0,0,False
2021-09-17,1.0,1.0,0.0,0,False
2021-09-18,1.0,1.0,0.0,0,False
2021-09-19,1.0,1.0,0.0,0,False
2021-09-20,1.0,1.0,0.0,0,False
2021-09-21,1.0,1.0,0.0,0,False
2021-09-22,1.0,1.0,0.0,0,False
2021-09-23,1.0,1.0,0.0,0,False
2021-09-24,1.0,1.0,0.0,0,False
2021-09-25,1.0,1.0,0.0,0,False
2021-09-26,1.0,1.0,0.0,0,False
2021-09-27,1.0,1.0,0.0,0,False
2021-09-28,1.0,1.0,0.0,0,False
2021-09-29,1.0,1.0,0.0,0,False
2021-09-30,1.0,1.0,0.0,0,False
2021-10-01,1.0,1.0,0.0,0,False
2021-10-02,1.0,1.0,0.0,0,False
2021-10-03,1.0,1.0,0.0,0,False
2021-10-04,1.0,1.0,0.0,0,False
2021-10-05,1.0,1.0,0.0,0,False
2021-10-06,1.0,1.0,0.0,0,False
2021-10-07,1.0,1.0,0.0,0,False
2021-10-08,1.0,1.0,0.0,0,False
2021-10-09,1.0,1.0,0.0,0,False
2021-10-10,1.0,1.0,0.0,0,False
2021-10-11,1.0,1.0,0.0,0,False
2021-10-12,1.0,1.0,0.0,0,False
2021-10-13,1.0,1.0044085104710179,0.4408510471017868,1,True
2021-10-14,1.0044085104710179,1.0076726271163816,0.3249789912505907,0,True
2021-10-15,1.0076726271163816,1.0076726271163816,0.0,0,False
2021-10-16,1.0076726271163816,1.0076726271163816,0.0,0,False
2021-10-17,1.0076726271163816,1.0076726271163816,0.0,0,False
2021-10-18,1.0076726271163816,1.0076726271163816,0.0,0,False
2021-10-19,1.0076726271163816,1.0076726271163816,0.0,0,False
2021-10-20,1.0076726271163816,1.0076726271163816,0.0,0,False
2021-10-21,1.0076726271163816,1.0076726271163816,0.0,0,False
2021-10-22,1.0076726271163816,1.0076726271163816,0.0,0,False
2021-10-23,1.0076726271163816,1.0076726271163816,0.0,0,False
2021-10-24,1.0076726271163816,1.0076726271163816,0.0,0,False
2021-10-25,1.0076726271163816,1.0112256039508694,0.3525923736417358,1,True
2021-10-26,1.0112256039508694,1.0112256039508694,0.0,0,False
2021-10-27,1.0112256039508694,1.0198229960771616,0.8501952573888749,4,True
2021-10-28,1.0198229960771616,1.015339962583986,-0.4395893709418175,0,True
2021-10-29,1.015339962583986,1.015339962583986,0.0,0,False
2021-10-30,1.015339962583986,1.015339962583986,0.0,0,False
2021-10-31,1.015339962583986,1.015339962583986,0.0,0,False
2021-11-01,1.015339962583986,1.015339962583986,0.0,0,False
2021-11-02,1.015339962583986,1.015339962583986,0.0,0,False
2021-11-03,1.015339962583986,1.015339962583986,0.0,0,False
2021-11-04,1.015339962583986,1.015339962583986,0.0,0,False
2021-11-05,1.015339962583986,1.015339962583986,0.0,0,False
2021-11-06,1.015339962583986,1.015339962583986,0.0,0,False
2021-11-07,1.015339962583986,1.015339962583986,0.0,0,False
2021-11-08,1.015339962583986,1.015339962583986,0.0,0,False
2021-11-09,1.015339962583986,1.015339962583986,0.0,0,False
2021-11-10,1.015339962583986,1.015339962583986,0.0,0,False
2021-11-11,1.015339962583986,1.0115476392436622,-0.3735028148279085,3,True
2021-11-12,1.0115476392436622,1.0115476392436622,0.0,0,False
2021-11-13,1.0115476392436622,1.0115476392436622,0.0,0,False
2021-11-14,1.0115476392436622,1.0115476392436622,0.0,0,False
2021-11-15,1.0115476392436622,1.0115476392436622,0.0,0,False
2021-11-16,1.0115476392436622,1.0380015132930795,2.6151881555669387,4,True
2021-11-17,1.0380015132930795,1.0455428580130353,0.7265254070806471,0,True
2021-11-18,1.0455428580130353,1.0423420567649644,-0.3061377373045904,1,True
2021-11-19,1.0423420567649644,1.0423420567649644,0.0,0,False
2021-11-20,1.0423420567649644,1.0423420567649644,0.0,0,False
2021-11-21,1.0423420567649644,1.0423420567649644,0.0,0,False
2021-11-22,1.0423420567649644,1.0423420567649644,0.0,0,False
2021-11-23,1.0423420567649644,1.0423420567649644,0.0,0,False
2021-11-24,1.0423420567649644,1.0423420567649644,0.0,0,False
2021-11-25,1.0423420567649644,1.0423420567649644,0.0,0,False
2021-11-26,1.0423420567649644,1.045653970150161,0.3177376719764702,5,True
2021-11-27,1.045653970150161,1.0442422457689584,-0.135008752560839,0,True
2021-11-28,1.0442422457689584,1.0442422457689584,0.0,0,False
2021-11-29,1.0442422457689584,1.0442422457689584,0.0,0,False
2021-11-30,1.0442422457689584,1.0442422457689584,0.0,0,False
2021-12-01,1.0442422457689584,1.0443437528967996,0.009720649423305971,1,True
2021-12-02,1.0443437528967996,1.0451369150993537,0.0759483838874031,1,True
2021-12-03,1.0451369150993537,1.0434979569861427,-0.15681755084262505,1,True
2021-12-04,1.0434979569861427,1.022784345591061,-1.9850169572834808,4,True
2021-12-05,1.022784345591061,1.022784345591061,0.0,0,False
2021-12-06,1.022784345591061,1.022784345591061,0.0,0,False
2021-12-07,1.022784345591061,1.022784345591061,0.0,0,False
2021-12-08,1.022784345591061,1.022784345591061,0.0,0,False
2021-12-09,1.022784345591061,1.022784345591061,0.0,0,False
2021-12-10,1.022784345591061,1.022784345591061,0.0,0,False
2021-12-11,1.022784345591061,1.022784345591061,0.0,0,False
2021-12-12,1.022784345591061,1.022784345591061,0.0,0,False
2021-12-13,1.022784345591061,1.022784345591061,0.0,0,False
2021-12-14,1.022784345591061,1.022784345591061,0.0,0,False
2021-12-15,1.022784345591061,1.022784345591061,0.0,0,False
2021-12-16,1.022784345591061,1.022784345591061,0.0,0,False
2021-12-17,1.022784345591061,1.022784345591061,0.0,0,False
2021-12-18,1.022784345591061,1.022784345591061,0.0,0,False
2021-12-19,1.022784345591061,1.022784345591061,0.0,0,False
2021-12-20,1.022784345591061,1.022784345591061,0.0,0,False
2021-12-21,1.022784345591061,1.022784345591061,0.0,0,False
2021-12-22,1.022784345591061,1.022784345591061,0.0,0,False
2021-12-23,1.022784345591061,1.022784345591061,0.0,0,False
2021-12-24,1.022784345591061,1.022784345591061,0.0,0,False
2021-12-25,1.022784345591061,1.022784345591061,0.0,0,False
2021-12-26,1.022784345591061,1.022784345591061,0.0,0,False
2021-12-27,1.022784345591061,1.022784345591061,0.0,0,False
2021-12-28,1.022784345591061,1.022784345591061,0.0,0,False
2021-12-29,1.022784345591061,1.022784345591061,0.0,0,False
2021-12-30,1.022784345591061,1.022784345591061,0.0,0,False
2021-12-31,1.022784345591061,1.022784345591061,0.0,0,False
2022-01-01,1.022784345591061,1.022784345591061,0.0,0,False
2022-01-02,1.022784345591061,1.022784345591061,0.0,0,False
2022-01-03,1.022784345591061,1.022784345591061,0.0,0,False
2022-01-04,1.022784345591061,1.022784345591061,0.0,0,False
2022-01-05,1.022784345591061,1.022784345591061,0.0,0,False
2022-01-06,1.022784345591061,1.0238305886687005,0.10229361469498155,1,True
2022-01-07,1.0238305886687005,1.0238305886687005,0.0,0,False
2022-01-08,1.0238305886687005,1.0238305886687005,0.0,0,False
2022-01-09,1.0238305886687005,1.0238305886687005,0.0,0,False
2022-01-10,1.0238305886687005,1.0238305886687005,0.0,0,False
2022-01-11,1.0238305886687005,1.0238305886687005,0.0,0,False
2022-01-12,1.0238305886687005,1.0238305886687005,0.0,0,False
2022-01-13,1.0238305886687005,1.0238305886687005,0.0,0,False
2022-01-14,1.0238305886687005,1.0238305886687005,0.0,0,False
2022-01-15,1.0238305886687005,1.0238305886687005,0.0,0,False
2022-01-16,1.0238305886687005,1.0238305886687005,0.0,0,False
2022-01-17,1.0238305886687005,1.0238305886687005,0.0,0,False
2022-01-18,1.0238305886687005,1.0238305886687005,0.0,0,False
2022-01-19,1.0238305886687005,1.0238305886687005,0.0,0,False
2022-01-20,1.0238305886687005,1.0238305886687005,0.0,0,False
2022-01-21,1.0238305886687005,1.0238305886687005,0.0,0,False
2022-01-22,1.0238305886687005,1.0238305886687005,0.0,0,False
2022-01-23,1.0238305886687005,1.0238305886687005,0.0,0,False
2022-01-24,1.0238305886687005,1.0238305886687005,0.0,0,False
2022-01-25,1.0238305886687005,1.0238305886687005,0.0,0,False
2022-01-26,1.0238305886687005,1.0238305886687005,0.0,0,False
2022-01-27,1.0238305886687005,1.0238305886687005,0.0,0,False
2022-01-28,1.0238305886687005,1.0238305886687005,0.0,0,False
2022-01-29,1.0238305886687005,1.0238305886687005,0.0,0,False
2022-01-30,1.0238305886687005,1.0238305886687005,0.0,0,False
2022-01-31,1.0238305886687005,1.0238305886687005,0.0,0,False
2022-02-01,1.0238305886687005,1.0238305886687005,0.0,0,False
2022-02-02,1.0238305886687005,1.0238305886687005,0.0,0,False
2022-02-03,1.0238305886687005,1.0238305886687005,0.0,0,False
2022-02-04,1.0238305886687005,1.0238305886687005,0.0,0,False
2022-02-05,1.0238305886687005,1.0238305886687005,0.0,0,False
2022-02-06,1.0238305886687005,1.0238305886687005,0.0,0,False
2022-02-07,1.0238305886687005,1.0238305886687005,0.0,0,False
2022-02-08,1.0238305886687005,1.0238305886687005,0.0,0,False
2022-02-09,1.0238305886687005,1.0238305886687005,0.0,0,False
2022-02-10,1.0238305886687005,1.0236951103558378,-0.01323249318413433,1,True
2022-02-11,1.0236951103558378,1.022644599400304,-0.10261951482495313,0,True
2022-02-12,1.022644599400304,1.022644599400304,0.0,0,False
2022-02-13,1.022644599400304,1.022644599400304,0.0,0,False
2022-02-14,1.022644599400304,1.022644599400304,0.0,0,False
2022-02-15,1.022644599400304,1.022644599400304,0.0,0,False
2022-02-16,1.022644599400304,1.022644599400304,0.0,0,False
2022-02-17,1.022644599400304,1.022644599400304,0.0,0,False
2022-02-18,1.022644599400304,1.022644599400304,0.0,0,False
2022-02-19,1.022644599400304,1.022644599400304,0.0,0,False
2022-02-20,1.022644599400304,1.022644599400304,0.0,0,False
2022-02-21,1.022644599400304,1.022644599400304,0.0,0,False
2022-02-22,1.022644599400304,1.022644599400304,0.0,0,False
2022-02-23,1.022644599400304,1.022644599400304,0.0,0,False
2022-02-24,1.022644599400304,1.022644599400304,0.0,0,False
2022-02-25,1.022644599400304,1.022644599400304,0.0,0,False
2022-02-26,1.022644599400304,1.022644599400304,0.0,0,False
2022-02-27,1.022644599400304,1.022644599400304,0.0,0,False
2022-02-28,1.022644599400304,1.022644599400304,0.0,0,False
2022-03-01,1.022644599400304,1.022644599400304,0.0,0,False
2022-03-02,1.022644599400304,1.022644599400304,0.0,0,False
2022-03-03,1.022644599400304,1.022644599400304,0.0,0,False
2022-03-04,1.022644599400304,1.022644599400304,0.0,0,False
2022-03-05,1.022644599400304,1.022644599400304,0.0,0,False
2022-03-06,1.022644599400304,1.022644599400304,0.0,0,False
2022-03-07,1.022644599400304,1.022644599400304,0.0,0,False
2022-03-08,1.022644599400304,1.022644599400304,0.0,0,False
2022-03-09,1.022644599400304,1.022644599400304,0.0,0,False
2022-03-10,1.022644599400304,1.022644599400304,0.0,0,False
2022-03-11,1.022644599400304,1.022644599400304,0.0,0,False
2022-03-12,1.022644599400304,1.022644599400304,0.0,0,False
2022-03-13,1.022644599400304,1.022644599400304,0.0,0,False
2022-03-14,1.022644599400304,1.022644599400304,0.0,0,False
2022-03-15,1.022644599400304,1.022644599400304,0.0,0,False
2022-03-16,1.022644599400304,1.022644599400304,0.0,0,False
2022-03-17,1.022644599400304,1.022644599400304,0.0,0,False
2022-03-18,1.022644599400304,1.022644599400304,0.0,0,False
2022-03-19,1.022644599400304,1.022644599400304,0.0,0,False
2022-03-20,1.022644599400304,1.022644599400304,0.0,0,False
2022-03-21,1.022644599400304,1.022644599400304,0.0,0,False
2022-03-22,1.022644599400304,1.022644599400304,0.0,0,False
2022-03-23,1.022644599400304,1.022644599400304,0.0,0,False
2022-03-24,1.022644599400304,1.022644599400304,0.0,0,False
2022-03-25,1.022644599400304,1.022644599400304,0.0,0,False
2022-03-26,1.022644599400304,1.022644599400304,0.0,0,False
2022-03-27,1.022644599400304,1.022644599400304,0.0,0,False
2022-03-28,1.022644599400304,1.022644599400304,0.0,0,False
2022-03-29,1.022644599400304,1.022644599400304,0.0,0,False
2022-03-30,1.022644599400304,1.0192375621926746,-0.33315945829346383,1,True
2022-03-31,1.0192375621926746,1.0192375621926746,0.0,0,False
2022-04-01,1.0192375621926746,1.0192375621926746,0.0,0,False
2022-04-02,1.0192375621926746,1.0192375621926746,0.0,0,False
2022-04-03,1.0192375621926746,1.0192375621926746,0.0,0,False
2022-04-04,1.0192375621926746,1.0192375621926746,0.0,0,False
2022-04-05,1.0192375621926746,1.0192375621926746,0.0,0,False
2022-04-06,1.0192375621926746,1.0201376238216522,0.08830734485896219,1,True
2022-04-07,1.0201376238216522,1.0201376238216522,0.0,0,False
2022-04-08,1.0201376238216522,1.0201376238216522,0.0,0,False
2022-04-09,1.0201376238216522,1.0201376238216522,0.0,0,False
2022-04-10,1.0201376238216522,1.0201376238216522,0.0,0,False
2022-04-11,1.0201376238216522,1.0201376238216522,0.0,0,False
2022-04-12,1.0201376238216522,1.0201376238216522,0.0,0,False
2022-04-13,1.0201376238216522,1.0201376238216522,0.0,0,False
2022-04-14,1.0201376238216522,1.0201376238216522,0.0,0,False
2022-04-15,1.0201376238216522,1.0201376238216522,0.0,0,False
2022-04-16,1.0201376238216522,1.0201376238216522,0.0,0,False
2022-04-17,1.0201376238216522,1.0201376238216522,0.0,0,False
2022-04-18,1.0201376238216522,1.0224556194808245,0.22722381814412884,1,True
2022-04-19,1.0224556194808245,1.0213183873853002,-0.11122557046552295,0,True
2022-04-20,1.0213183873853002,1.0213183873853002,0.0,0,False
2022-04-21,1.0213183873853002,1.0213183873853002,0.0,0,False
2022-04-22,1.0213183873853002,1.0213183873853002,0.0,0,False
2022-04-23,1.0213183873853002,1.0213183873853002,0.0,0,False
2022-04-24,1.0213183873853002,1.0213183873853002,0.0,0,False
2022-04-25,1.0213183873853002,1.0213183873853002,0.0,0,False
2022-04-26,1.0213183873853002,1.0213183873853002,0.0,0,False
2022-04-27,1.0213183873853002,1.0213183873853002,0.0,0,False
2022-04-28,1.0213183873853002,1.0213183873853002,0.0,0,False
2022-04-29,1.0213183873853002,1.0213183873853002,0.0,0,False
2022-04-30,1.0213183873853002,1.0213183873853002,0.0,0,False
2022-05-01,1.0213183873853002,1.0350021483173186,1.3398134314462462,4,True
2022-05-02,1.0350021483173186,1.0350021483173186,0.0,0,False
2022-05-03,1.0350021483173186,1.0350021483173186,0.0,0,False
2022-05-04,1.0350021483173186,1.0350021483173186,0.0,0,False
2022-05-05,1.0350021483173186,1.0350021483173186,0.0,0,False
2022-05-06,1.0350021483173186,1.0357521221712969,0.07246109152503344,1,True
2022-05-07,1.0357521221712969,1.03496938307428,-0.07557204858782418,0,True
2022-05-08,1.03496938307428,1.03496938307428,0.0,0,False
2022-05-09,1.03496938307428,1.03496938307428,0.0,0,False
2022-05-10,1.03496938307428,1.03496938307428,0.0,0,False
2022-05-11,1.03496938307428,1.03496938307428,0.0,0,False
2022-05-12,1.03496938307428,1.03496938307428,0.0,0,False
2022-05-13,1.03496938307428,1.03496938307428,0.0,0,False
2022-05-14,1.03496938307428,1.03496938307428,0.0,0,False
2022-05-15,1.03496938307428,1.03496938307428,0.0,0,False
2022-05-16,1.03496938307428,1.03496938307428,0.0,0,False
2022-05-17,1.03496938307428,1.03496938307428,0.0,0,False
2022-05-18,1.03496938307428,1.03496938307428,0.0,0,False
2022-05-19,1.03496938307428,1.03496938307428,0.0,0,False
2022-05-20,1.03496938307428,1.0382063440484475,0.31275910448214095,1,True
2022-05-21,1.0382063440484475,1.0382063440484475,0.0,0,False
2022-05-22,1.0382063440484475,1.0382063440484475,0.0,0,False
2022-05-23,1.0382063440484475,1.0382063440484475,0.0,0,False
2022-05-24,1.0382063440484475,1.0382063440484475,0.0,0,False
2022-05-25,1.0382063440484475,1.03302368408455,-0.4991936327115809,1,True
2022-05-26,1.03302368408455,1.03302368408455,0.0,0,False
2022-05-27,1.03302368408455,1.03302368408455,0.0,0,False
2022-05-28,1.03302368408455,1.03302368408455,0.0,0,False
2022-05-29,1.03302368408455,1.03302368408455,0.0,0,False
2022-05-30,1.03302368408455,1.03302368408455,0.0,0,False
2022-05-31,1.03302368408455,1.03302368408455,0.0,0,False
2022-06-01,1.03302368408455,1.03302368408455,0.0,0,False
2022-06-02,1.03302368408455,1.03302368408455,0.0,0,False
2022-06-03,1.03302368408455,1.03302368408455,0.0,0,False
2022-06-04,1.03302368408455,1.03302368408455,0.0,0,False
2022-06-05,1.03302368408455,1.03302368408455,0.0,0,False
2022-06-06,1.03302368408455,1.03302368408455,0.0,0,False
2022-06-07,1.03302368408455,1.03302368408455,0.0,0,False
2022-06-08,1.03302368408455,1.03302368408455,0.0,0,False
2022-06-09,1.03302368408455,1.03302368408455,0.0,0,False
2022-06-10,1.03302368408455,1.03302368408455,0.0,0,False
2022-06-11,1.03302368408455,1.03302368408455,0.0,0,False
2022-06-12,1.03302368408455,1.03302368408455,0.0,0,False
2022-06-13,1.03302368408455,1.03302368408455,0.0,0,False
2022-06-14,1.03302368408455,1.03302368408455,0.0,0,False
2022-06-15,1.03302368408455,1.03302368408455,0.0,0,False
2022-06-16,1.03302368408455,1.03302368408455,0.0,0,False
2022-06-17,1.03302368408455,1.03302368408455,0.0,0,False
2022-06-18,1.03302368408455,1.0257890187604768,-0.7003387662388727,4,True
2022-06-19,1.0257890187604768,1.0258377052095473,0.004746243933206884,0,True
2022-06-20,1.0258377052095473,1.0258377052095473,0.0,0,False
2022-06-21,1.0258377052095473,1.0258377052095473,0.0,0,False
2022-06-22,1.0258377052095473,1.0258377052095473,0.0,0,False
2022-06-23,1.0258377052095473,1.0258377052095473,0.0,0,False
2022-06-24,1.0258377052095473,1.0258377052095473,0.0,0,False
2022-06-25,1.0258377052095473,1.0258377052095473,0.0,0,False
2022-06-26,1.0258377052095473,1.0258377052095473,0.0,0,False
2022-06-27,1.0258377052095473,1.0258377052095473,0.0,0,False
2022-06-28,1.0258377052095473,1.0271721767012851,0.1300860248127922,1,True
2022-06-29,1.0271721767012851,1.0316103268491943,0.4320746072155268,0,True
2022-06-30,1.0316103268491943,1.0316103268491943,0.0,0,False
2022-07-01,1.0316103268491943,1.0316103268491943,0.0,0,False
2022-07-02,1.0316103268491943,1.0316103268491943,0.0,0,False
2022-07-03,1.0316103268491943,1.0316103268491943,0.0,0,False
2022-07-04,1.0316103268491943,1.0316103268491943,0.0,0,False
2022-07-05,1.0316103268491943,1.0316103268491943,0.0,0,False
2022-07-06,1.0316103268491943,1.0316103268491943,0.0,0,False
2022-07-07,1.0316103268491943,1.0316103268491943,0.0,0,False
2022-07-08,1.0316103268491943,1.0316103268491943,0.0,0,False
2022-07-09,1.0316103268491943,1.0316103268491943,0.0,0,False
2022-07-10,1.0316103268491943,1.0316103268491943,0.0,0,False
2022-07-11,1.0316103268491943,1.0316103268491943,0.0,0,False
2022-07-12,1.0316103268491943,1.0316103268491943,0.0,0,False
2022-07-13,1.0316103268491943,1.0409376706874955,0.9041537870980276,4,True
2022-07-14,1.0409376706874955,1.0601188420520855,1.8426820264773047,0,True
2022-07-15,1.0601188420520855,1.0601188420520855,0.0,0,False
2022-07-16,1.0601188420520855,1.0601188420520855,0.0,0,False
2022-07-17,1.0601188420520855,1.0601188420520855,0.0,0,False
2022-07-18,1.0601188420520855,1.0601188420520855,0.0,0,False
2022-07-19,1.0601188420520855,1.0601188420520855,0.0,0,False
2022-07-20,1.0601188420520855,1.0601188420520855,0.0,0,False
2022-07-21,1.0601188420520855,1.0553458766178598,-0.4502292804254404,3,True
2022-07-22,1.0553458766178598,1.0553458766178598,0.0,0,False
2022-07-23,1.0553458766178598,1.0553458766178598,0.0,0,False
2022-07-24,1.0553458766178598,1.0553458766178598,0.0,0,False
2022-07-25,1.0553458766178598,1.0562384981364898,0.08458094530019444,1,True
2022-07-26,1.0562384981364898,1.0562384981364898,0.0,0,False
2022-07-27,1.0562384981364898,1.0562384981364898,0.0,0,False
2022-07-28,1.0562384981364898,1.0562384981364898,0.0,0,False
2022-07-29,1.0562384981364898,1.0562384981364898,0.0,0,False
2022-07-30,1.0562384981364898,1.0562384981364898,0.0,0,False
2022-07-31,1.0562384981364898,1.0562384981364898,0.0,0,False
2022-08-01,1.0562384981364898,1.0562384981364898,0.0,0,False
2022-08-02,1.0562384981364898,1.0562384981364898,0.0,0,False
2022-08-03,1.0562384981364898,1.0562384981364898,0.0,0,False
2022-08-04,1.0562384981364898,1.0562384981364898,0.0,0,False
2022-08-05,1.0562384981364898,1.0562384981364898,0.0,0,False
2022-08-06,1.0562384981364898,1.0562384981364898,0.0,0,False
2022-08-07,1.0562384981364898,1.0562384981364898,0.0,0,False
2022-08-08,1.0562384981364898,1.0562384981364898,0.0,0,False
2022-08-09,1.0562384981364898,1.0578995110239997,0.15725737041778487,1,True
2022-08-10,1.0578995110239997,1.0578995110239997,0.0,0,False
2022-08-11,1.0578995110239997,1.0578995110239997,0.0,0,False
2022-08-12,1.0578995110239997,1.0581972851718962,0.028147677997147902,1,True
2022-08-13,1.0581972851718962,1.0581972851718962,0.0,0,False
2022-08-14,1.0581972851718962,1.0581972851718962,0.0,0,False
2022-08-15,1.0581972851718962,1.0581972851718962,0.0,0,False
2022-08-16,1.0581972851718962,1.0581972851718962,0.0,0,False
2022-08-17,1.0581972851718962,1.0581972851718962,0.0,0,False
2022-08-18,1.0581972851718962,1.0581972851718962,0.0,0,False
2022-08-19,1.0581972851718962,1.0423464996021812,-1.4979045771356447,7,True
2022-08-20,1.0423464996021812,1.0438472163444446,0.14397484357036028,0,True
2022-08-21,1.0438472163444446,1.0438472163444446,0.0,0,False
2022-08-22,1.0438472163444446,1.0438472163444446,0.0,0,False
2022-08-23,1.0438472163444446,1.0438472163444446,0.0,0,False
2022-08-24,1.0438472163444446,1.0438472163444446,0.0,0,False
2022-08-25,1.0438472163444446,1.0438472163444446,0.0,0,False
2022-08-26,1.0438472163444446,1.0438472163444446,0.0,0,False
2022-08-27,1.0438472163444446,1.0438472163444446,0.0,0,False
2022-08-28,1.0438472163444446,1.0438472163444446,0.0,0,False
2022-08-29,1.0438472163444446,1.0438472163444446,0.0,0,False
2022-08-30,1.0438472163444446,1.0438472163444446,0.0,0,False
2022-08-31,1.0438472163444446,1.0438472163444446,0.0,0,False
2022-09-01,1.0438472163444446,1.0438472163444446,0.0,0,False
2022-09-02,1.0438472163444446,1.0438472163444446,0.0,0,False
2022-09-03,1.0438472163444446,1.0438472163444446,0.0,0,False
2022-09-04,1.0438472163444446,1.0438472163444446,0.0,0,False
2022-09-05,1.0438472163444446,1.0438472163444446,0.0,0,False
2022-09-06,1.0438472163444446,1.0438472163444446,0.0,0,False
2022-09-07,1.0438472163444446,1.0287889078519425,-1.442577827168634,4,True
2022-09-08,1.0287889078519425,1.0287889078519425,0.0,0,False
2022-09-09,1.0287889078519425,1.0287889078519425,0.0,0,False
2022-09-10,1.0287889078519425,1.0287889078519425,0.0,0,False
2022-09-11,1.0287889078519425,1.0287889078519425,0.0,0,False
2022-09-12,1.0287889078519425,1.0287889078519425,0.0,0,False
2022-09-13,1.0287889078519425,1.0224754486090164,-0.6136787823760925,4,True
2022-09-14,1.0224754486090164,1.0161559185591795,-0.6180617890076512,0,True
2022-09-15,1.0161559185591795,1.0201036688086311,0.3884984752191567,1,True
2022-09-16,1.0201036688086311,1.0201036688086311,0.0,0,False
2022-09-17,1.0201036688086311,1.0201036688086311,0.0,0,False
2022-09-18,1.0201036688086311,1.0201036688086311,0.0,0,False
2022-09-19,1.0201036688086311,1.0163132248269842,-0.37157438969647183,5,True
2022-09-20,1.0163132248269842,1.0163132248269842,0.0,0,False
2022-09-21,1.0163132248269842,1.0163132248269842,0.0,0,False
2022-09-22,1.0163132248269842,1.0163132248269842,0.0,0,False
2022-09-23,1.0163132248269842,1.0163132248269842,0.0,0,False
2022-09-24,1.0163132248269842,1.0163132248269842,0.0,0,False
2022-09-25,1.0163132248269842,1.0163132248269842,0.0,0,False
2022-09-26,1.0163132248269842,1.0163132248269842,0.0,0,False
2022-09-27,1.0163132248269842,1.0163132248269842,0.0,0,False
2022-09-28,1.0163132248269842,1.0163132248269842,0.0,0,False
2022-09-29,1.0163132248269842,1.0163132248269842,0.0,0,False
2022-09-30,1.0163132248269842,1.0163132248269842,0.0,0,False
2022-10-01,1.0163132248269842,1.0163132248269842,0.0,0,False
2022-10-02,1.0163132248269842,1.0163132248269842,0.0,0,False
2022-10-03,1.0163132248269842,1.0163132248269842,0.0,0,False
2022-10-04,1.0163132248269842,1.0163132248269842,0.0,0,False
2022-10-05,1.0163132248269842,1.0163132248269842,0.0,0,False
2022-10-06,1.0163132248269842,1.0163132248269842,0.0,0,False
2022-10-07,1.0163132248269842,1.0163132248269842,0.0,0,False
2022-10-08,1.0163132248269842,1.0163132248269842,0.0,0,False
2022-10-09,1.0163132248269842,1.0163132248269842,0.0,0,False
2022-10-10,1.0163132248269842,1.0163132248269842,0.0,0,False
2022-10-11,1.0163132248269842,1.036091768988104,1.9461071329153423,4,True
2022-10-12,1.036091768988104,1.036091768988104,0.0,0,False
2022-10-13,1.036091768988104,1.036091768988104,0.0,0,False
2022-10-14,1.036091768988104,1.036091768988104,0.0,0,False
2022-10-15,1.036091768988104,1.036091768988104,0.0,0,False
2022-10-16,1.036091768988104,1.036091768988104,0.0,0,False
2022-10-17,1.036091768988104,1.036091768988104,0.0,0,False
2022-10-18,1.036091768988104,1.036091768988104,0.0,0,False
2022-10-19,1.036091768988104,1.036091768988104,0.0,0,False
2022-10-20,1.036091768988104,1.0394042588171242,0.3197100805322872,1,True
2022-10-21,1.0394042588171242,1.0394042588171242,0.0,0,False
2022-10-22,1.0394042588171242,1.0394042588171242,0.0,0,False
2022-10-23,1.0394042588171242,1.0394042588171242,0.0,0,False
2022-10-24,1.0394042588171242,1.0394042588171242,0.0,0,False
2022-10-25,1.0394042588171242,1.0394042588171242,0.0,0,False
2022-10-26,1.0394042588171242,1.0394042588171242,0.0,0,False
2022-10-27,1.0394042588171242,1.0394042588171242,0.0,0,False
2022-10-28,1.0394042588171242,1.0394042588171242,0.0,0,False
2022-10-29,1.0394042588171242,1.0394042588171242,0.0,0,False
2022-10-30,1.0394042588171242,1.0394042588171242,0.0,0,False
2022-10-31,1.0394042588171242,1.0394042588171242,0.0,0,False
2022-11-01,1.0394042588171242,1.0394042588171242,0.0,0,False
2022-11-02,1.0394042588171242,1.0430615270821302,0.35186196650456303,1,True
2022-11-03,1.0430615270821302,1.0430615270821302,0.0,0,False
2022-11-04,1.0430615270821302,1.0378545329817122,-0.49920296791926555,1,True
2022-11-05,1.0378545329817122,1.0378545329817122,0.0,0,False
2022-11-06,1.0378545329817122,1.0378545329817122,0.0,0,False
2022-11-07,1.0378545329817122,1.0378545329817122,0.0,0,False
2022-11-08,1.0378545329817122,1.0372782008005528,-0.05553111373938213,2,True
2022-11-09,1.0372782008005528,1.0397839715170951,0.2415717128354311,0,True
2022-11-10,1.0397839715170951,1.0397839715170951,0.0,0,False
2022-11-11,1.0397839715170951,1.036589888362777,-0.30718718905213827,2,True
2022-11-12,1.036589888362777,1.0383810623033716,0.17279484979575432,0,True
2022-11-13,1.0383810623033716,1.0352276057100953,-0.3036897250688675,1,True
2022-11-14,1.0352276057100953,1.0352276057100953,0.0,0,False
2022-11-15,1.0352276057100953,1.0352276057100953,0.0,0,False
2022-11-16,1.0352276057100953,1.0352276057100953,0.0,0,False
2022-11-17,1.0352276057100953,1.0352276057100953,0.0,0,False
2022-11-18,1.0352276057100953,1.0352276057100953,0.0,0,False
2022-11-19,1.0352276057100953,1.0354870524322048,0.02506180483194953,2,True
2022-11-20,1.0354870524322048,1.0311798024895322,-0.4159636697103619,0,True
2022-11-21,1.0311798024895322,1.0311798024895322,0.0,0,False
2022-11-22,1.0311798024895322,1.0311798024895322,0.0,0,False
2022-11-23,1.0311798024895322,1.0311798024895322,0.0,0,False
2022-11-24,1.0311798024895322,1.0311798024895322,0.0,0,False
2022-11-25,1.0311798024895322,1.0311798024895322,0.0,0,False
2022-11-26,1.0311798024895322,1.0311798024895322,0.0,0,False
2022-11-27,1.0311798024895322,1.0311798024895322,0.0,0,False
2022-11-28,1.0311798024895322,1.0285149025584142,-0.2584321303311321,2,True
2022-11-29,1.0285149025584142,1.0285149025584142,0.0,0,False
2022-11-30,1.0285149025584142,1.0285149025584142,0.0,0,False
2022-12-01,1.0285149025584142,1.0284640691582592,-0.004942407740382571,1,True
2022-12-02,1.0284640691582592,1.0284640691582592,0.0,0,False
2022-12-03,1.0284640691582592,1.0284640691582592,0.0,0,False
2022-12-04,1.0284640691582592,1.0284640691582592,0.0,0,False
2022-12-05,1.0284640691582592,1.0284640691582592,0.0,0,False
2022-12-06,1.0284640691582592,1.0284640691582592,0.0,0,False
2022-12-07,1.0284640691582592,1.0284640691582592,0.0,0,False
2022-12-08,1.0284640691582592,1.0233291153038342,-0.4992837385780158,1,True
2022-12-09,1.0233291153038342,1.0233291153038342,0.0,0,False
2022-12-10,1.0233291153038342,1.0233291153038342,0.0,0,False
2022-12-11,1.0233291153038342,1.0233291153038342,0.0,0,False
2022-12-12,1.0233291153038342,1.0233291153038342,0.0,0,False
2022-12-13,1.0233291153038342,1.0233291153038342,0.0,0,False
2022-12-14,1.0233291153038342,1.0233291153038342,0.0,0,False
2022-12-15,1.0233291153038342,1.0233291153038342,0.0,0,False
2022-12-16,1.0233291153038342,1.0233291153038342,0.0,0,False
2022-12-17,1.0233291153038342,1.0262674492733148,0.28713479618023285,4,True
2022-12-18,1.0262674492733148,1.0262674492733148,0.0,0,False
2022-12-19,1.0262674492733148,1.0262674492733148,0.0,0,False
2022-12-20,1.0262674492733148,1.0262674492733148,0.0,0,False
2022-12-21,1.0262674492733148,1.0262674492733148,0.0,0,False
2022-12-22,1.0262674492733148,1.0262674492733148,0.0,0,False
2022-12-23,1.0262674492733148,1.0262674492733148,0.0,0,False
2022-12-24,1.0262674492733148,1.0262674492733148,0.0,0,False
2022-12-25,1.0262674492733148,1.0262674492733148,0.0,0,False
2022-12-26,1.0262674492733148,1.0262674492733148,0.0,0,False
2022-12-27,1.0262674492733148,1.0262674492733148,0.0,0,False
2022-12-28,1.0262674492733148,1.0283858640032555,0.2064193628513511,1,True
2022-12-29,1.0283858640032555,1.0275912219817023,-0.07727080363200134,0,True
2022-12-30,1.0275912219817023,1.0275912219817023,0.0,0,False
2022-12-31,1.0275912219817023,1.0275912219817023,0.0,0,False
2023-01-01,1.0275912219817023,1.0275912219817023,0.0,0,False
2023-01-02,1.0275912219817023,1.0275912219817023,0.0,0,False
2023-01-03,1.0275912219817023,1.0275912219817023,0.0,0,False
2023-01-04,1.0275912219817023,1.0275912219817023,0.0,0,False
2023-01-05,1.0275912219817023,1.0275912219817023,0.0,0,False
2023-01-06,1.0275912219817023,1.0275912219817023,0.0,0,False
2023-01-07,1.0275912219817023,1.0275912219817023,0.0,0,False
2023-01-08,1.0275912219817023,1.0275912219817023,0.0,0,False
2023-01-09,1.0275912219817023,1.0275912219817023,0.0,0,False
2023-01-10,1.0275912219817023,1.0260118707665262,-0.15369450238493787,2,True
2023-01-11,1.0260118707665262,1.0265575683589296,0.05318628448185425,0,True
2023-01-12,1.0265575683589296,1.0265575683589296,0.0,0,False
2023-01-13,1.0265575683589296,1.0265575683589296,0.0,0,False
2023-01-14,1.0265575683589296,1.0265575683589296,0.0,0,False
2023-01-15,1.0265575683589296,1.0265575683589296,0.0,0,False
2023-01-16,1.0265575683589296,1.0265575683589296,0.0,0,False
2023-01-17,1.0265575683589296,1.0265575683589296,0.0,0,False
2023-01-18,1.0265575683589296,1.0265575683589296,0.0,0,False
2023-01-19,1.0265575683589296,1.0265575683589296,0.0,0,False
2023-01-20,1.0265575683589296,1.0265575683589296,0.0,0,False
2023-01-21,1.0265575683589296,1.0265575683589296,0.0,0,False
2023-01-22,1.0265575683589296,1.0265575683589296,0.0,0,False
2023-01-23,1.0265575683589296,1.0265575683589296,0.0,0,False
2023-01-24,1.0265575683589296,1.0265575683589296,0.0,0,False
2023-01-25,1.0265575683589296,1.035210896446524,0.8429462072378158,4,True
2023-01-26,1.035210896446524,1.035210896446524,0.0,0,False
2023-01-27,1.035210896446524,1.035210896446524,0.0,0,False
2023-01-28,1.035210896446524,1.035210896446524,0.0,0,False
2023-01-29,1.035210896446524,1.035210896446524,0.0,0,False
2023-01-30,1.035210896446524,1.0363167985951518,0.10682868123044198,1,True
2023-01-31,1.0363167985951518,1.0370310328364285,0.06892045388484647,1,True
2023-02-01,1.0370310328364285,1.0370310328364285,0.0,0,False
2023-02-02,1.0370310328364285,1.0370310328364285,0.0,0,False
2023-02-03,1.0370310328364285,1.0370310328364285,0.0,0,False
2023-02-04,1.0370310328364285,1.0370310328364285,0.0,0,False
2023-02-05,1.0370310328364285,1.0394769403472104,0.23585673266612872,4,True
2023-02-06,1.0394769403472104,1.0509295928285864,1.1017707114840514,0,True
2023-02-07,1.0509295928285864,1.0509295928285864,0.0,0,False
2023-02-08,1.0509295928285864,1.0509295928285864,0.0,0,False
2023-02-09,1.0509295928285864,1.0509295928285864,0.0,0,False
2023-02-10,1.0509295928285864,1.0509295928285864,0.0,0,False
2023-02-11,1.0509295928285864,1.0509295928285864,0.0,0,False
2023-02-12,1.0509295928285864,1.0509295928285864,0.0,0,False
2023-02-13,1.0509295928285864,1.0509295928285864,0.0,0,False
2023-02-14,1.0509295928285864,1.0509295928285864,0.0,0,False
2023-02-15,1.0509295928285864,1.0509295928285864,0.0,0,False
2023-02-16,1.0509295928285864,1.0509295928285864,0.0,0,False
2023-02-17,1.0509295928285864,1.0509295928285864,0.0,0,False
2023-02-18,1.0509295928285864,1.0509295928285864,0.0,0,False
2023-02-19,1.0509295928285864,1.0509295928285864,0.0,0,False
2023-02-20,1.0509295928285864,1.0509295928285864,0.0,0,False
2023-02-21,1.0509295928285864,1.0509295928285864,0.0,0,False
2023-02-22,1.0509295928285864,1.0509295928285864,0.0,0,False
2023-02-23,1.0509295928285864,1.0599628129680034,0.8595457013541585,1,True
2023-02-24,1.0599628129680034,1.0599628129680034,0.0,0,False
2023-02-25,1.0599628129680034,1.0599628129680034,0.0,0,False
2023-02-26,1.0599628129680034,1.0599628129680034,0.0,0,False
2023-02-27,1.0599628129680034,1.0599628129680034,0.0,0,False
2023-02-28,1.0599628129680034,1.0599628129680034,0.0,0,False
2023-03-01,1.0599628129680034,1.0599628129680034,0.0,0,False
2023-03-02,1.0599628129680034,1.0599628129680034,0.0,0,False
2023-03-03,1.0599628129680034,1.0608023981223729,0.0792089254545214,1,True
2023-03-04,1.0608023981223729,1.0608023981223729,0.0,0,False
2023-03-05,1.0608023981223729,1.0608023981223729,0.0,0,False
2023-03-06,1.0608023981223729,1.0608023981223729,0.0,0,False
2023-03-07,1.0608023981223729,1.0608023981223729,0.0,0,False
2023-03-08,1.0608023981223729,1.0608023981223729,0.0,0,False
2023-03-09,1.0608023981223729,1.0608023981223729,0.0,0,False
2023-03-10,1.0608023981223729,1.0608023981223729,0.0,0,False
2023-03-11,1.0608023981223729,1.0608023981223729,0.0,0,False
2023-03-12,1.0608023981223729,1.0608023981223729,0.0,0,False
2023-03-13,1.0608023981223729,1.0608023981223729,0.0,0,False
2023-03-14,1.0608023981223729,1.0608023981223729,0.0,0,False
2023-03-15,1.0608023981223729,1.0608023981223729,0.0,0,False
2023-03-16,1.0608023981223729,1.0608023981223729,0.0,0,False
2023-03-17,1.0608023981223729,1.0608023981223729,0.0,0,False
2023-03-18,1.0608023981223729,1.0608023981223729,0.0,0,False
2023-03-19,1.0608023981223729,1.0608023981223729,0.0,0,False
2023-03-20,1.0608023981223729,1.0608023981223729,0.0,0,False
2023-03-21,1.0608023981223729,1.0608023981223729,0.0,0,False
2023-03-22,1.0608023981223729,1.0608023981223729,0.0,0,False
2023-03-23,1.0608023981223729,1.068746859646353,0.7489105924007866,3,True
2023-03-24,1.068746859646353,1.0697411045499947,0.09302903626502435,0,True
2023-03-25,1.0697411045499947,1.0653956753272433,-0.4062131673045699,1,True
2023-03-26,1.0653956753272433,1.0656911060673862,0.02772967330209042,0,True
2023-03-27,1.0656911060673862,1.0656911060673862,0.0,0,False
2023-03-28,1.0656911060673862,1.0656911060673862,0.0,0,False
2023-03-29,1.0656911060673862,1.0656911060673862,0.0,0,False
2023-03-30,1.0656911060673862,1.0656911060673862,0.0,0,False
2023-03-31,1.0656911060673862,1.0656911060673862,0.0,0,False
2023-04-01,1.0656911060673862,1.0656911060673862,0.0,0,False
2023-04-02,1.0656911060673862,1.0656911060673862,0.0,0,False
2023-04-03,1.0656911060673862,1.0656911060673862,0.0,0,False
2023-04-04,1.0656911060673862,1.0656911060673862,0.0,0,False
2023-04-05,1.0656911060673862,1.0656911060673862,0.0,0,False
2023-04-06,1.0656911060673862,1.0656911060673862,0.0,0,False
2023-04-07,1.0656911060673862,1.063085103733874,-0.24453636881036633,1,True
2023-04-08,1.063085103733874,1.063085103733874,0.0,0,False
2023-04-09,1.063085103733874,1.063085103733874,0.0,0,False
2023-04-10,1.063085103733874,1.063085103733874,0.0,0,False
2023-04-11,1.063085103733874,1.063085103733874,0.0,0,False
2023-04-12,1.063085103733874,1.063085103733874,0.0,0,False
2023-04-13,1.063085103733874,1.063085103733874,0.0,0,False
2023-04-14,1.063085103733874,1.063085103733874,0.0,0,False
2023-04-15,1.063085103733874,1.063085103733874,0.0,0,False
2023-04-16,1.063085103733874,1.063085103733874,0.0,0,False
2023-04-17,1.063085103733874,1.063085103733874,0.0,0,False
2023-04-18,1.063085103733874,1.063085103733874,0.0,0,False
2023-04-19,1.063085103733874,1.056980377830163,-0.5742462087249045,2,True
2023-04-20,1.056980377830163,1.0543294215848078,-0.2508046791556584,0,True
2023-04-21,1.0543294215848078,1.0543294215848078,0.0,0,False
2023-04-22,1.0543294215848078,1.0543294215848078,0.0,0,False
2023-04-23,1.0543294215848078,1.0543294215848078,0.0,0,False
2023-04-24,1.0543294215848078,1.0543294215848078,0.0,0,False
2023-04-25,1.0543294215848078,1.0543294215848078,0.0,0,False
2023-04-26,1.0543294215848078,1.0543294215848078,0.0,0,False
2023-04-27,1.0543294215848078,1.0543294215848078,0.0,0,False
2023-04-28,1.0543294215848078,1.0543294215848078,0.0,0,False
2023-04-29,1.0543294215848078,1.0543294215848078,0.0,0,False
2023-04-30,1.0543294215848078,1.0543294215848078,0.0,0,False
2023-05-01,1.0543294215848078,1.0543294215848078,0.0,0,False
2023-05-02,1.0543294215848078,1.0543294215848078,0.0,0,False
2023-05-03,1.0543294215848078,1.0543294215848078,0.0,0,False
2023-05-04,1.0543294215848078,1.0543294215848078,0.0,0,False
2023-05-05,1.0543294215848078,1.0543294215848078,0.0,0,False
2023-05-06,1.0543294215848078,1.0543294215848078,0.0,0,False
2023-05-07,1.0543294215848078,1.0543294215848078,0.0,0,False
2023-05-08,1.0543294215848078,1.0611870765733524,0.6504281155539138,4,True
2023-05-09,1.0611870765733524,1.055889612412895,-0.49920172205294433,1,True
2023-05-10,1.055889612412895,1.055889612412895,0.0,0,False
2023-05-11,1.055889612412895,1.055889612412895,0.0,0,False
2023-05-12,1.055889612412895,1.055889612412895,0.0,0,False
2023-05-13,1.055889612412895,1.055889612412895,0.0,0,False
2023-05-14,1.055889612412895,1.055889612412895,0.0,0,False
2023-05-15,1.055889612412895,1.055889612412895,0.0,0,False
2023-05-16,1.055889612412895,1.055889612412895,0.0,0,False
2023-05-17,1.055889612412895,1.055889612412895,0.0,0,False
2023-05-18,1.055889612412895,1.055889612412895,0.0,0,False
2023-05-19,1.055889612412895,1.055889612412895,0.0,0,False
2023-05-20,1.055889612412895,1.055889612412895,0.0,0,False
2023-05-21,1.055889612412895,1.055889612412895,0.0,0,False
2023-05-22,1.055889612412895,1.055889612412895,0.0,0,False
2023-05-23,1.055889612412895,1.055889612412895,0.0,0,False
2023-05-24,1.055889612412895,1.055889612412895,0.0,0,False
2023-05-25,1.055889612412895,1.055889612412895,0.0,0,False
2023-05-26,1.055889612412895,1.0574784389721195,0.15047279001010327,1,True
2023-05-27,1.0574784389721195,1.060237438571752,0.2609036267741116,0,True
2023-05-28,1.060237438571752,1.060237438571752,0.0,0,False
2023-05-29,1.060237438571752,1.060237438571752,0.0,0,False
2023-05-30,1.060237438571752,1.060237438571752,0.0,0,False
2023-05-31,1.060237438571752,1.060237438571752,0.0,0,False
2023-06-01,1.060237438571752,1.060237438571752,0.0,0,False
2023-06-02,1.060237438571752,1.060237438571752,0.0,0,False
2023-06-03,1.060237438571752,1.060237438571752,0.0,0,False
2023-06-04,1.060237438571752,1.060237438571752,0.0,0,False
2023-06-05,1.060237438571752,1.060237438571752,0.0,0,False
2023-06-06,1.060237438571752,1.0520425725662916,-0.7729274318495682,4,True
2023-06-07,1.0520425725662916,1.0520425725662916,0.0,0,False
2023-06-08,1.0520425725662916,1.0520425725662916,0.0,0,False
2023-06-09,1.0520425725662916,1.0520425725662916,0.0,0,False
2023-06-10,1.0520425725662916,1.0643987775964106,1.1744966745953933,5,True
2023-06-11,1.0643987775964106,1.0634519426680156,-0.08895490565417052,0,True
2023-06-12,1.0634519426680156,1.0634519426680156,0.0,0,False
2023-06-13,1.0634519426680156,1.0634519426680156,0.0,0,False
2023-06-14,1.0634519426680156,1.0634519426680156,0.0,0,False
2023-06-15,1.0634519426680156,1.0634519426680156,0.0,0,False
2023-06-16,1.0634519426680156,1.0634519426680156,0.0,0,False
2023-06-17,1.0634519426680156,1.0634519426680156,0.0,0,False
2023-06-18,1.0634519426680156,1.0634519426680156,0.0,0,False
2023-06-19,1.0634519426680156,1.0634519426680156,0.0,0,False
2023-06-20,1.0634519426680156,1.0634519426680156,0.0,0,False
2023-06-21,1.0634519426680156,1.0634519426680156,0.0,0,False
2023-06-22,1.0634519426680156,1.0634519426680156,0.0,0,False
2023-06-23,1.0634519426680156,1.0634519426680156,0.0,0,False
2023-06-24,1.0634519426680156,1.0634519426680156,0.0,0,False
2023-06-25,1.0634519426680156,1.0634519426680156,0.0,0,False
2023-06-26,1.0634519426680156,1.0634519426680156,0.0,0,False
2023-06-27,1.0634519426680156,1.0634519426680156,0.0,0,False
2023-06-28,1.0634519426680156,1.0634519426680156,0.0,0,False
2023-06-29,1.0634519426680156,1.0634519426680156,0.0,0,False
2023-06-30,1.0634519426680156,1.0513356792548318,-1.1393334223252394,3,True
2023-07-01,1.0513356792548318,1.0551201802046426,0.35997075191942507,0,True
2023-07-02,1.0551201802046426,1.0551201802046426,0.0,0,False
2023-07-03,1.0551201802046426,1.0551201802046426,0.0,0,False
2023-07-04,1.0551201802046426,1.0551201802046426,0.0,0,False
2023-07-05,1.0551201802046426,1.0551201802046426,0.0,0,False
2023-07-06,1.0551201802046426,1.0551201802046426,0.0,0,False
2023-07-07,1.0551201802046426,1.0551201802046426,0.0,0,False
2023-07-08,1.0551201802046426,1.0551201802046426,0.0,0,False
2023-07-09,1.0551201802046426,1.0551201802046426,0.0,0,False
2023-07-10,1.0551201802046426,1.0551201802046426,0.0,0,False
2023-07-11,1.0551201802046426,1.0551201802046426,0.0,0,False
2023-07-12,1.0551201802046426,1.0551201802046426,0.0,0,False
2023-07-13,1.0551201802046426,1.0551201802046426,0.0,0,False
2023-07-14,1.0551201802046426,1.0551201802046426,0.0,0,False
2023-07-15,1.0551201802046426,1.0551201802046426,0.0,0,False
2023-07-16,1.0551201802046426,1.0551201802046426,0.0,0,False
2023-07-17,1.0551201802046426,1.0551201802046426,0.0,0,False
2023-07-18,1.0551201802046426,1.0551201802046426,0.0,0,False
2023-07-19,1.0551201802046426,1.0551201802046426,0.0,0,False
2023-07-20,1.0551201802046426,1.0551201802046426,0.0,0,False
2023-07-21,1.0551201802046426,1.0551201802046426,0.0,0,False
2023-07-22,1.0551201802046426,1.0551201802046426,0.0,0,False
2023-07-23,1.0551201802046426,1.0551201802046426,0.0,0,False
2023-07-24,1.0551201802046426,1.055091726980116,-0.0026966809146822257,1,True
2023-07-25,1.055091726980116,1.0553709583957676,0.026465131752151372,0,True
2023-07-26,1.0553709583957676,1.0553709583957676,0.0,0,False
2023-07-27,1.0553709583957676,1.0553709583957676,0.0,0,False
2023-07-28,1.0553709583957676,1.0553709583957676,0.0,0,False
2023-07-29,1.0553709583957676,1.0553709583957676,0.0,0,False
2023-07-30,1.0553709583957676,1.0553709583957676,0.0,0,False
2023-07-31,1.0553709583957676,1.0553709583957676,0.0,0,False
2023-08-01,1.0553709583957676,1.0553709583957676,0.0,0,False
2023-08-02,1.0553709583957676,1.0553709583957676,0.0,0,False
2023-08-03,1.0553709583957676,1.0553709583957676,0.0,0,False
2023-08-04,1.0553709583957676,1.0553709583957676,0.0,0,False
2023-08-05,1.0553709583957676,1.0553709583957676,0.0,0,False
2023-08-06,1.0553709583957676,1.0553709583957676,0.0,0,False
2023-08-07,1.0553709583957676,1.0553709583957676,0.0,0,False
2023-08-08,1.0553709583957676,1.0553709583957676,0.0,0,False
2023-08-09,1.0553709583957676,1.0553709583957676,0.0,0,False
2023-08-10,1.0553709583957676,1.0553709583957676,0.0,0,False
2023-08-11,1.0553709583957676,1.0553709583957676,0.0,0,False
2023-08-12,1.0553709583957676,1.0553709583957676,0.0,0,False
2023-08-13,1.0553709583957676,1.0553709583957676,0.0,0,False
2023-08-14,1.0553709583957676,1.0553709583957676,0.0,0,False
2023-08-15,1.0553709583957676,1.0553709583957676,0.0,0,False
2023-08-16,1.0553709583957676,1.058512770805039,0.2976974479236505,4,True
2023-08-17,1.058512770805039,1.058512770805039,0.0,0,False
2023-08-18,1.058512770805039,1.0915094393325977,3.117266927489548,4,True
2023-08-19,1.0915094393325977,1.0915094393325977,0.0,0,False
2023-08-20,1.0915094393325977,1.0915094393325977,0.0,0,False
2023-08-21,1.0915094393325977,1.0915094393325977,0.0,0,False
2023-08-22,1.0915094393325977,1.0915094393325977,0.0,0,False
2023-08-23,1.0915094393325977,1.0915094393325977,0.0,0,False
2023-08-24,1.0915094393325977,1.0915094393325977,0.0,0,False
2023-08-25,1.0915094393325977,1.0765298287096972,-1.3723757287944172,3,True
2023-08-26,1.0765298287096972,1.0765298287096972,0.0,0,False
2023-08-27,1.0765298287096972,1.0765298287096972,0.0,0,False
2023-08-28,1.0765298287096972,1.0765298287096972,0.0,0,False
2023-08-29,1.0765298287096972,1.0765298287096972,0.0,0,False
2023-08-30,1.0765298287096972,1.0765298287096972,0.0,0,False
2023-08-31,1.0765298287096972,1.0765298287096972,0.0,0,False
2023-09-01,1.0765298287096972,1.0765298287096972,0.0,0,False
2023-09-02,1.0765298287096972,1.0765298287096972,0.0,0,False
2023-09-03,1.0765298287096972,1.0765298287096972,0.0,0,False
2023-09-04,1.0765298287096972,1.0765298287096972,0.0,0,False
2023-09-05,1.0765298287096972,1.0765298287096972,0.0,0,False
2023-09-06,1.0765298287096972,1.0765298287096972,0.0,0,False
2023-09-07,1.0765298287096972,1.0765298287096972,0.0,0,False
2023-09-08,1.0765298287096972,1.0765298287096972,0.0,0,False
2023-09-09,1.0765298287096972,1.0765298287096972,0.0,0,False
2023-09-10,1.0765298287096972,1.0751669982908907,-0.12659476611437404,1,True
2023-09-11,1.0751669982908907,1.0751669982908907,0.0,0,False
2023-09-12,1.0751669982908907,1.0751669982908907,0.0,0,False
2023-09-13,1.0751669982908907,1.0751669982908907,0.0,0,False
2023-09-14,1.0751669982908907,1.0751669982908907,0.0,0,False
2023-09-15,1.0751669982908907,1.0751669982908907,0.0,0,False
2023-09-16,1.0751669982908907,1.0751669982908907,0.0,0,False
2023-09-17,1.0751669982908907,1.0751669982908907,0.0,0,False
2023-09-18,1.0751669982908907,1.0751669982908907,0.0,0,False
2023-09-19,1.0751669982908907,1.0751669982908907,0.0,0,False
2023-09-20,1.0751669982908907,1.0751669982908907,0.0,0,False
2023-09-21,1.0751669982908907,1.0751669982908907,0.0,0,False
2023-09-22,1.0751669982908907,1.0751669982908907,0.0,0,False
2023-09-23,1.0751669982908907,1.0751669982908907,0.0,0,False
2023-09-24,1.0751669982908907,1.0751669982908907,0.0,0,False
2023-09-25,1.0751669982908907,1.0751669982908907,0.0,0,False
2023-09-26,1.0751669982908907,1.0751669982908907,0.0,0,False
2023-09-27,1.0751669982908907,1.0751669982908907,0.0,0,False
2023-09-28,1.0751669982908907,1.0751669982908907,0.0,0,False
2023-09-29,1.0751669982908907,1.0751669982908907,0.0,0,False
2023-09-30,1.0751669982908907,1.0751669982908907,0.0,0,False
2023-10-01,1.0751669982908907,1.0751669982908907,0.0,0,False
2023-10-02,1.0751669982908907,1.0751669982908907,0.0,0,False
2023-10-03,1.0751669982908907,1.075482069684403,0.029304414478237284,1,True
2023-10-04,1.075482069684403,1.072396176113338,-0.28693119653501187,0,True
2023-10-05,1.072396176113338,1.072396176113338,0.0,0,False
2023-10-06,1.072396176113338,1.072396176113338,0.0,0,False
2023-10-07,1.072396176113338,1.072396176113338,0.0,0,False
2023-10-08,1.072396176113338,1.072396176113338,0.0,0,False
2023-10-09,1.072396176113338,1.072396176113338,0.0,0,False
2023-10-10,1.072396176113338,1.072396176113338,0.0,0,False
2023-10-11,1.072396176113338,1.072396176113338,0.0,0,False
2023-10-12,1.072396176113338,1.072396176113338,0.0,0,False
2023-10-13,1.072396176113338,1.072396176113338,0.0,0,False
2023-10-14,1.072396176113338,1.072396176113338,0.0,0,False
2023-10-15,1.072396176113338,1.072396176113338,0.0,0,False
2023-10-16,1.072396176113338,1.072396176113338,0.0,0,False
2023-10-17,1.072396176113338,1.072396176113338,0.0,0,False
2023-10-18,1.072396176113338,1.072396176113338,0.0,0,False
2023-10-19,1.072396176113338,1.0670422708679623,-0.49924695412284503,1,True
2023-10-20,1.0670422708679623,1.0670422708679623,0.0,0,False
2023-10-21,1.0670422708679623,1.0678462381077138,0.07534539743185853,1,True
2023-10-22,1.0678462381077138,1.0678462381077138,0.0,0,False
2023-10-23,1.0678462381077138,1.0678462381077138,0.0,0,False
2023-10-24,1.0678462381077138,1.0678462381077138,0.0,0,False
2023-10-25,1.0678462381077138,1.0678462381077138,0.0,0,False
2023-10-26,1.0678462381077138,1.0678462381077138,0.0,0,False
2023-10-27,1.0678462381077138,1.068636635354391,0.0740178893243959,1,True
2023-10-28,1.068636635354391,1.0696907952584682,0.09864530834913232,0,True
2023-10-29,1.0696907952584682,1.0696907952584682,0.0,0,False
2023-10-30,1.0696907952584682,1.0696907952584682,0.0,0,False
2023-10-31,1.0696907952584682,1.0696907952584682,0.0,0,False
2023-11-01,1.0696907952584682,1.0696907952584682,0.0,0,False
2023-11-02,1.0696907952584682,1.0696907952584682,0.0,0,False
2023-11-03,1.0696907952584682,1.0696907952584682,0.0,0,False
2023-11-04,1.0696907952584682,1.0696907952584682,0.0,0,False
2023-11-05,1.0696907952584682,1.0696907952584682,0.0,0,False
2023-11-06,1.0696907952584682,1.0696907952584682,0.0,0,False
2023-11-07,1.0696907952584682,1.0696907952584682,0.0,0,False
2023-11-08,1.0696907952584682,1.0696907952584682,0.0,0,False
2023-11-09,1.0696907952584682,1.0696907952584682,0.0,0,False
2023-11-10,1.0696907952584682,1.0844303366647285,1.3779254221495618,4,True
2023-11-11,1.0844303366647285,1.0844303366647285,0.0,0,False
2023-11-12,1.0844303366647285,1.0844303366647285,0.0,0,False
2023-11-13,1.0844303366647285,1.0844303366647285,0.0,0,False
2023-11-14,1.0844303366647285,1.0844303366647285,0.0,0,False
2023-11-15,1.0844303366647285,1.0844303366647285,0.0,0,False
2023-11-16,1.0844303366647285,1.0844303366647285,0.0,0,False
2023-11-17,1.0844303366647285,1.0844303366647285,0.0,0,False
2023-11-18,1.0844303366647285,1.0844303366647285,0.0,0,False
2023-11-19,1.0844303366647285,1.0844303366647285,0.0,0,False
2023-11-20,1.0844303366647285,1.0844303366647285,0.0,0,False
2023-11-21,1.0844303366647285,1.0844303366647285,0.0,0,False
2023-11-22,1.0844303366647285,1.0844303366647285,0.0,0,False
2023-11-23,1.0844303366647285,1.0844303366647285,0.0,0,False
2023-11-24,1.0844303366647285,1.0844303366647285,0.0,0,False
2023-11-25,1.0844303366647285,1.0844303366647285,0.0,0,False
2023-11-26,1.0844303366647285,1.0844303366647285,0.0,0,False
2023-11-27,1.0844303366647285,1.0844303366647285,0.0,0,False
2023-11-28,1.0844303366647285,1.0844303366647285,0.0,0,False
2023-11-29,1.0844303366647285,1.0844303366647285,0.0,0,False
2023-11-30,1.0844303366647285,1.0844303366647285,0.0,0,False
2023-12-01,1.0844303366647285,1.0844303366647285,0.0,0,False
2023-12-02,1.0844303366647285,1.0844303366647285,0.0,0,False
2023-12-03,1.0844303366647285,1.0851016348260805,0.061903299700794,1,True
2023-12-04,1.0851016348260805,1.0928987266936658,0.7185586692840085,4,True
2023-12-05,1.0928987266936658,1.0974982192873006,0.4208525896584714,0,True
2023-12-06,1.0974982192873006,1.0974982192873006,0.0,0,False
2023-12-07,1.0974982192873006,1.0974982192873006,0.0,0,False
2023-12-08,1.0974982192873006,1.0974982192873006,0.0,0,False
2023-12-09,1.0974982192873006,1.0974982192873006,0.0,0,False
2023-12-10,1.0974982192873006,1.0974982192873006,0.0,0,False
2023-12-11,1.0974982192873006,1.1090178631207344,1.0496275648551379,4,True
2023-12-12,1.1090178631207344,1.1090178631207344,0.0,0,False
2023-12-13,1.1090178631207344,1.1090178631207344,0.0,0,False
2023-12-14,1.1090178631207344,1.1090178631207344,0.0,0,False
2023-12-15,1.1090178631207344,1.1090178631207344,0.0,0,False
2023-12-16,1.1090178631207344,1.1090178631207344,0.0,0,False
2023-12-17,1.1090178631207344,1.1090178631207344,0.0,0,False
2023-12-18,1.1090178631207344,1.1090178631207344,0.0,0,False
2023-12-19,1.1090178631207344,1.1090178631207344,0.0,0,False
2023-12-20,1.1090178631207344,1.1090178631207344,0.0,0,False
2023-12-21,1.1090178631207344,1.1090178631207344,0.0,0,False
2023-12-22,1.1090178631207344,1.1090178631207344,0.0,0,False
2023-12-23,1.1090178631207344,1.1090178631207344,0.0,0,False
2023-12-24,1.1090178631207344,1.1078209297834427,-0.10792732715084741,1,True
2023-12-25,1.1078209297834427,1.1104699279355423,0.2391179008160993,0,True
2023-12-26,1.1104699279355423,1.1104699279355423,0.0,0,False
2023-12-27,1.1104699279355423,1.1051427583831652,-0.4797220904739663,1,True
2023-12-28,1.1051427583831652,1.1051427583831652,0.0,0,False
2023-12-29,1.1051427583831652,1.1051427583831652,0.0,0,False
2023-12-30,1.1051427583831652,1.1051427583831652,0.0,0,False
2023-12-31,1.1051427583831652,1.1051427583831652,0.0,0,False
