day,start_equity,end_equity,return_pct,entries,active
2024-01-02,1.0,1.0,0.0,0,False
2024-01-03,1.0,0.9927789230118099,-0.7221076988190078,6,True
2024-01-04,0.9927789230118099,0.9952869573600038,0.2526276787369053,1,True
2024-01-05,0.9952869573600038,0.9940619341151123,-0.12308241716950663,1,True
2024-01-06,0.9940619341151123,0.9944078680338682,0.03480003678681953,2,True
2024-01-07,0.9944078680338682,0.9905576832519126,-0.38718366031919027,1,True
2024-01-08,0.9905576832519126,0.9948850056531189,0.436857184025885,3,True
2024-01-09,0.9948850056531189,1.0100628055034777,1.525583335170988,0,True
2024-01-10,1.0100628055034777,1.0100628055034777,0.0,0,False
2024-01-11,1.0100628055034777,1.010734306371624,0.06648110043134814,1,True
2024-01-12,1.010734306371624,1.0034918739958223,-0.7165515536720068,2,True
2024-01-13,1.0034918739958223,1.0081931498529488,0.46849167182654305,4,True
2024-01-14,1.0081931498529488,1.011119624025361,0.29026919820265284,0,True
2024-01-15,1.011119624025361,1.011119624025361,0.0,0,False
2024-01-16,1.011119624025361,1.0106709932729945,-0.04436970084513714,1,True
2024-01-17,1.0106709932729945,1.0123718062201423,0.16828552105170314,0,True
2024-01-18,1.0123718062201423,1.0123718062201423,0.0,0,False
2024-01-19,1.0123718062201423,1.0123718062201423,0.0,0,False
2024-01-20,1.0123718062201423,1.0249908584534375,1.2464839652548632,6,True
2024-01-21,1.0249908584534375,1.0272778442277848,0.22312255328773567,0,True
2024-01-22,1.0272778442277848,1.0272778442277848,0.0,0,False
2024-01-23,1.0272778442277848,1.0048894040826575,-2.1793948220461212,8,True
2024-01-24,1.0048894040826575,1.0048894040826575,0.0,0,False
2024-01-25,1.0048894040826575,1.0033212376899499,-0.15605363001505168,1,True
2024-01-26,1.0033212376899499,1.0033212376899499,0.0,0,False
2024-01-27,1.0033212376899499,1.0033212376899499,0.0,0,False
2024-01-28,1.0033212376899499,1.0033212376899499,0.0,0,False
2024-01-29,1.0033212376899499,1.0033212376899499,0.0,0,False
2024-01-30,1.0033212376899499,1.0033212376899499,0.0,0,False
2024-01-31,1.0033212376899499,0.9989196187618659,-0.4387048497267232,1,True
2024-02-01,0.9989196187618659,0.9989196187618659,0.0,0,False
2024-02-02,0.9989196187618659,0.9984454624549224,-0.04746691305664852,2,True
2024-02-03,0.9984454624549224,1.0062718852517818,0.7838608207619391,1,True
2024-02-04,1.0062718852517818,1.0045625026337957,-0.1698728388459747,1,True
2024-02-05,1.0045625026337957,1.0045625026337957,0.0,0,False
2024-02-06,1.0045625026337957,0.9995562296929993,-0.49835355467388043,1,True
2024-02-07,0.9995562296929993,0.9972399608342479,-0.23172972064440245,3,True
2024-02-08,0.9972399608342479,1.0055819304997142,0.8365057551933397,0,True
2024-02-09,1.0055819304997142,1.0055819304997142,0.0,0,False
2024-02-10,1.0055819304997142,1.0055819304997142,0.0,0,False
2024-02-11,1.0055819304997142,1.0055819304997142,0.0,0,False
2024-02-12,1.0055819304997142,1.0055819304997142,0.0,0,False
2024-02-13,1.0055819304997142,1.0055819304997142,0.0,0,False
2024-02-14,1.0055819304997142,1.0067166212522762,0.11283921460265578,1,True
2024-02-15,1.0067166212522762,1.0073638546095298,0.06429151397624455,0,True
2024-02-16,1.0073638546095298,1.0122606861629773,0.4861035594080798,1,True
2024-02-17,1.0122606861629773,1.008933944016548,-0.3286448038439138,2,True
2024-02-18,1.008933944016548,1.0103709884300454,0.14243196217351706,0,True
2024-02-19,1.0103709884300454,1.0103709884300454,0.0,0,False
2024-02-20,1.0103709884300454,1.0116570034277208,0.12728146516496341,7,True
2024-02-21,1.0116570034277208,1.0062450773188563,-0.5349566197365041,6,True
2024-02-22,1.0062450773188563,1.0304248066649233,2.402966224738612,3,True
2024-02-23,1.0304248066649233,1.0308768638727144,0.043870955441582815,1,True
2024-02-24,1.0308768638727144,1.027089517503604,-0.36739076235373647,3,True
2024-02-25,1.027089517503604,1.0235411383241144,-0.3454790569875743,1,True
2024-02-26,1.0235411383241144,1.0286335110583653,0.49752496930302037,0,True
2024-02-27,1.0286335110583653,1.0283341487770326,-0.029102909648037745,1,True
2024-02-28,1.0283341487770326,1.0282249904319443,-0.010615065659169698,1,True
2024-02-29,1.0282249904319443,1.0516129636919953,2.274596851631272,5,True
2024-03-01,1.0516129636919953,1.0483023073744138,-0.3148169936930567,1,True
2024-03-02,1.0483023073744138,1.0477658777776102,-0.051171269301797384,1,True
2024-03-03,1.0477658777776102,1.0510270852728572,0.31125345503368873,6,True
2024-03-04,1.0510270852728572,1.0644273698838906,1.2749704359478642,0,True
2024-03-05,1.0644273698838906,1.0565886491020726,-0.7364260825680424,5,True
2024-03-06,1.0565886491020726,1.0352801182474105,-2.0167291095518514,4,True
2024-03-07,1.0352801182474105,1.0352801182474105,0.0,0,False
2024-03-08,1.0352801182474105,1.035859364334197,0.055950662683157404,2,True
2024-03-09,1.035859364334197,1.0266036171949093,-0.8935331820103531,3,True
2024-03-10,1.0266036171949093,1.024482877046109,-0.20657828525824096,2,True
2024-03-11,1.024482877046109,1.0207154156477358,-0.36774273956006187,0,True
2024-03-12,1.0207154156477358,1.0169107380263949,-0.3727461702855317,1,True
2024-03-13,1.0169107380263949,1.0208285402651882,0.3852651065910706,2,True
2024-03-14,1.0208285402651882,1.015813241310228,-0.4912968982682675,1,True
2024-03-15,1.015813241310228,0.9932603031072816,-2.2201854913662,6,True
2024-03-16,0.9932603031072816,0.9943370750777831,0.1084078329852689,1,True
2024-03-17,0.9943370750777831,0.9798600006326098,-1.4559523936126806,4,True
2024-03-18,0.9798600006326098,0.9798600006326098,0.0,0,False
2024-03-19,0.9798600006326098,0.9577213706481976,-2.2593666411649838,5,True
2024-03-20,0.9577213706481976,0.9577213706481976,0.0,0,False
2024-03-21,0.9577213706481976,0.9584453730791405,0.07559635329561498,2,True
2024-03-22,0.9584453730791405,0.9584453730791405,0.0,0,False
2024-03-23,0.9584453730791405,0.9591783014532185,0.07647054226194161,1,True
2024-03-24,0.9591783014532185,0.9574801550369799,-0.1770417881290398,2,True
2024-03-25,0.9574801550369799,0.9611774352068063,0.38614692433844855,2,True
2024-03-26,0.9611774352068063,0.9675109550502966,0.6589334717504558,2,True
2024-03-27,0.9675109550502966,0.9670176228700641,-0.05098982886523329,2,True
2024-03-28,0.9670176228700641,0.9664301820745242,-0.060747682528927704,0,True
2024-03-29,0.9664301820745242,0.960613958211622,-0.6018255607888046,4,True
2024-03-30,0.960613958211622,0.9601829098558664,-0.0448721728505852,0,True
2024-03-31,0.9601829098558664,0.9601829098558664,0.0,0,False
2024-04-01,0.9601829098558664,0.9591141972422915,-0.11130302389316116,4,True
2024-04-02,0.9591141972422915,0.9531580007783437,-0.6210101446807337,5,True
2024-04-03,0.9531580007783437,0.9522740358352408,-0.0927406518521634,1,True
2024-04-04,0.9522740358352408,0.9519968027366726,-0.029112743615344883,1,True
2024-04-05,0.9519968027366726,0.9478943479508721,-0.43093157182958475,3,True
2024-04-06,0.9478943479508721,0.9470233797591703,-0.09188452210783238,1,True
2024-04-07,0.9470233797591703,0.9541133780243665,0.7486613759207561,1,True
2024-04-08,0.9541133780243665,0.9514765610803333,-0.27636306174566583,0,True
2024-04-09,0.9514765610803333,0.9491033476137866,-0.24942426998434408,1,True
2024-04-10,0.9491033476137866,0.9460913408831911,-0.3173528718624974,4,True
2024-04-11,0.9460913408831911,0.9452742175253331,-0.08636833702496682,1,True
2024-04-12,0.9452742175253331,0.9435560709134542,-0.18176171316477419,2,True
2024-04-13,0.9435560709134542,0.9330838133286034,-1.1098712527717214,7,True
2024-04-14,0.9330838133286034,0.9115376006629504,-2.3091401177339876,10,True
2024-04-15,0.9115376006629504,0.9115376006629504,0.0,0,False
2024-04-16,0.9115376006629504,0.9115376006629504,0.0,0,False
2024-04-17,0.9115376006629504,0.9115376006629504,0.0,0,False
2024-04-18,0.9115376006629504,0.9115376006629504,0.0,0,False
2024-04-19,0.9115376006629504,0.9098766024961484,-0.18221938026407036,4,True
2024-04-20,0.9098766024961484,0.9098766024961484,0.0,0,False
2024-04-21,0.9098766024961484,0.9098766024961484,0.0,0,False
2024-04-22,0.9098766024961484,0.9098766024961484,0.0,0,False
2024-04-23,0.9098766024961484,0.9098766024961484,0.0,0,False
2024-04-24,0.9098766024961484,0.9098766024961484,0.0,0,False
2024-04-25,0.9098766024961484,0.9098766024961484,0.0,0,False
2024-04-26,0.9098766024961484,0.9098766024961484,0.0,0,False
2024-04-27,0.9098766024961484,0.9098766024961484,0.0,0,False
2024-04-28,0.9098766024961484,0.9098766024961484,0.0,0,False
2024-04-29,0.9098766024961484,0.9098766024961484,0.0,0,False
2024-04-30,0.9098766024961484,0.9098766024961484,0.0,0,False
2024-05-01,0.9098766024961484,0.9098766024961484,0.0,0,False
2024-05-02,0.9098766024961484,0.9098766024961484,0.0,0,False
2024-05-03,0.9098766024961484,0.9098766024961484,0.0,0,False
2024-05-04,0.9098766024961484,0.9098766024961484,0.0,0,False
2024-05-05,0.9098766024961484,0.9098766024961484,0.0,0,False
2024-05-06,0.9098766024961484,0.9098766024961484,0.0,0,False
2024-05-07,0.9098766024961484,0.9098766024961484,0.0,0,False
2024-05-08,0.9098766024961484,0.9098766024961484,0.0,0,False
2024-05-09,0.9098766024961484,0.9098766024961484,0.0,0,False
2024-05-10,0.9098766024961484,0.9098766024961484,0.0,0,False
2024-05-11,0.9098766024961484,0.9098766024961484,0.0,0,False
2024-05-12,0.9098766024961484,0.9098766024961484,0.0,0,False
2024-05-13,0.9098766024961484,0.9098766024961484,0.0,0,False
2024-05-14,0.9098766024961484,0.9098766024961484,0.0,0,False
2024-05-15,0.9098766024961484,0.9098766024961484,0.0,0,False
2024-05-16,0.9098766024961484,0.9098766024961484,0.0,0,False
2024-05-17,0.9098766024961484,0.9098766024961484,0.0,0,False
2024-05-18,0.9098766024961484,0.9098766024961484,0.0,0,False
2024-05-19,0.9098766024961484,0.9098766024961484,0.0,0,False
2024-05-20,0.9098766024961484,0.9098766024961484,0.0,0,False
2024-05-21,0.9098766024961484,0.9098766024961484,0.0,0,False
2024-05-22,0.9098766024961484,0.9098766024961484,0.0,0,False
2024-05-23,0.9098766024961484,0.9098766024961484,0.0,0,False
2024-05-24,0.9098766024961484,0.9098766024961484,0.0,0,False
2024-05-25,0.9098766024961484,0.9098766024961484,0.0,0,False
2024-05-26,0.9098766024961484,0.9098766024961484,0.0,0,False
2024-05-27,0.9098766024961484,0.9098766024961484,0.0,0,False
2024-05-28,0.9098766024961484,0.9098766024961484,0.0,0,False
2024-05-29,0.9098766024961484,0.9098766024961484,0.0,0,False
2024-05-30,0.9098766024961484,0.9098766024961484,0.0,0,False
2024-05-31,0.9098766024961484,0.9098766024961484,0.0,0,False
2024-06-01,0.9098766024961484,0.9098766024961484,0.0,0,False
2024-06-02,0.9098766024961484,0.9098766024961484,0.0,0,False
2024-06-03,0.9098766024961484,0.9098766024961484,0.0,0,False
2024-06-04,0.9098766024961484,0.9098766024961484,0.0,0,False
2024-06-05,0.9098766024961484,0.9098766024961484,0.0,0,False
2024-06-06,0.9098766024961484,0.9098766024961484,0.0,0,False
2024-06-07,0.9098766024961484,0.9098766024961484,0.0,0,False
2024-06-08,0.9098766024961484,0.9098766024961484,0.0,0,False
2024-06-09,0.9098766024961484,0.9098766024961484,0.0,0,False
2024-06-10,0.9098766024961484,0.9098766024961484,0.0,0,False
2024-06-11,0.9098766024961484,0.9098766024961484,0.0,0,False
2024-06-12,0.9098766024961484,0.9098766024961484,0.0,0,False
2024-06-13,0.9098766024961484,0.9098766024961484,0.0,0,False
2024-06-14,0.9098766024961484,0.9098766024961484,0.0,0,False
2024-06-15,0.9098766024961484,0.9098766024961484,0.0,0,False
2024-06-16,0.9098766024961484,0.9098766024961484,0.0,0,False
2024-06-17,0.9098766024961484,0.9098766024961484,0.0,0,False
2024-06-18,0.9098766024961484,0.9098766024961484,0.0,0,False
2024-06-19,0.9098766024961484,0.9098766024961484,0.0,0,False
2024-06-20,0.9098766024961484,0.9098766024961484,0.0,0,False
2024-06-21,0.9098766024961484,0.9098766024961484,0.0,0,False
2024-06-22,0.9098766024961484,0.9098766024961484,0.0,0,False
2024-06-23,0.9098766024961484,0.9098766024961484,0.0,0,False
2024-06-24,0.9098766024961484,0.9098766024961484,0.0,0,False
2024-06-25,0.9098766024961484,0.9098766024961484,0.0,0,False
2024-06-26,0.9098766024961484,0.9098766024961484,0.0,0,False
2024-06-27,0.9098766024961484,0.9098766024961484,0.0,0,False
2024-06-28,0.9098766024961484,0.9098766024961484,0.0,0,False
2024-06-29,0.9098766024961484,0.9098766024961484,0.0,0,False
2024-06-30,0.9098766024961484,0.9098766024961484,0.0,0,False
2024-07-01,0.9098766024961484,0.9098766024961484,0.0,0,False
2024-07-02,0.9098766024961484,0.9098766024961484,0.0,0,False
2024-07-03,0.9098766024961484,0.9098766024961484,0.0,0,False
2024-07-04,0.9098766024961484,0.9098766024961484,0.0,0,False
2024-07-05,0.9098766024961484,0.9098766024961484,0.0,0,False
2024-07-06,0.9098766024961484,0.9098766024961484,0.0,0,False
2024-07-07,0.9098766024961484,0.9098766024961484,0.0,0,False
2024-07-08,0.9098766024961484,0.9098766024961484,0.0,0,False
2024-07-09,0.9098766024961484,0.9098766024961484,0.0,0,False
2024-07-10,0.9098766024961484,0.9098766024961484,0.0,0,False
2024-07-11,0.9098766024961484,0.9098766024961484,0.0,0,False
2024-07-12,0.9098766024961484,0.9098766024961484,0.0,0,False
2024-07-13,0.9098766024961484,0.9098766024961484,0.0,0,False
2024-07-14,0.9098766024961484,0.9098766024961484,0.0,0,False
2024-07-15,0.9098766024961484,0.9098766024961484,0.0,0,False
2024-07-16,0.9098766024961484,0.9098766024961484,0.0,0,False
2024-07-17,0.9098766024961484,0.9098766024961484,0.0,0,False
2024-07-18,0.9098766024961484,0.9098766024961484,0.0,0,False
2024-07-19,0.9098766024961484,0.9098766024961484,0.0,0,False
2024-07-20,0.9098766024961484,0.9098766024961484,0.0,0,False
2024-07-21,0.9098766024961484,0.9098766024961484,0.0,0,False
2024-07-22,0.9098766024961484,0.9098766024961484,0.0,0,False
2024-07-23,0.9098766024961484,0.9098766024961484,0.0,0,False
2024-07-24,0.9098766024961484,0.9098766024961484,0.0,0,False
2024-07-25,0.9098766024961484,0.9098766024961484,0.0,0,False
2024-07-26,0.9098766024961484,0.9098766024961484,0.0,0,False
2024-07-27,0.9098766024961484,0.9098766024961484,0.0,0,False
2024-07-28,0.9098766024961484,0.9098766024961484,0.0,0,False
2024-07-29,0.9098766024961484,0.9098766024961484,0.0,0,False
2024-07-30,0.9098766024961484,0.9098766024961484,0.0,0,False
2024-07-31,0.9098766024961484,0.9098766024961484,0.0,0,False
2024-08-01,0.9098766024961484,0.9098766024961484,0.0,0,False
2024-08-02,0.9098766024961484,0.9098766024961484,0.0,0,False
2024-08-03,0.9098766024961484,0.9098766024961484,0.0,0,False
2024-08-04,0.9098766024961484,0.9098766024961484,0.0,0,False
2024-08-05,0.9098766024961484,0.9098766024961484,0.0,0,False
2024-08-06,0.9098766024961484,0.9098766024961484,0.0,0,False
2024-08-07,0.9098766024961484,0.9098766024961484,0.0,0,False
2024-08-08,0.9098766024961484,0.9098766024961484,0.0,0,False
2024-08-09,0.9098766024961484,0.9098766024961484,0.0,0,False
2024-08-10,0.9098766024961484,0.9098766024961484,0.0,0,False
2024-08-11,0.9098766024961484,0.9098766024961484,0.0,0,False
2024-08-12,0.9098766024961484,0.9098766024961484,0.0,0,False
2024-08-13,0.9098766024961484,0.9098766024961484,0.0,0,False
2024-08-14,0.9098766024961484,0.9098766024961484,0.0,0,False
2024-08-15,0.9098766024961484,0.9098766024961484,0.0,0,False
2024-08-16,0.9098766024961484,0.9098766024961484,0.0,0,False
2024-08-17,0.9098766024961484,0.9098766024961484,0.0,0,False
2024-08-18,0.9098766024961484,0.9098766024961484,0.0,0,False
2024-08-19,0.9098766024961484,0.9098766024961484,0.0,0,False
2024-08-20,0.9098766024961484,0.9098766024961484,0.0,0,False
2024-08-21,0.9098766024961484,0.9098766024961484,0.0,0,False
2024-08-22,0.9098766024961484,0.9098766024961484,0.0,0,False
2024-08-23,0.9098766024961484,0.9098766024961484,0.0,0,False
2024-08-24,0.9098766024961484,0.9098766024961484,0.0,0,False
2024-08-25,0.9098766024961484,0.9098766024961484,0.0,0,False
2024-08-26,0.9098766024961484,0.9098766024961484,0.0,0,False
2024-08-27,0.9098766024961484,0.9098766024961484,0.0,0,False
2024-08-28,0.9098766024961484,0.9098766024961484,0.0,0,False
2024-08-29,0.9098766024961484,0.9098766024961484,0.0,0,False
2024-08-30,0.9098766024961484,0.9098766024961484,0.0,0,False
2024-08-31,0.9098766024961484,0.9098766024961484,0.0,0,False
2024-09-01,0.9098766024961484,0.9098766024961484,0.0,0,False
2024-09-02,0.9098766024961484,0.9098766024961484,0.0,0,False
2024-09-03,0.9098766024961484,0.9098766024961484,0.0,0,False
2024-09-04,0.9098766024961484,0.9098766024961484,0.0,0,False
2024-09-05,0.9098766024961484,0.9098766024961484,0.0,0,False
2024-09-06,0.9098766024961484,0.9098766024961484,0.0,0,False
2024-09-07,0.9098766024961484,0.9098766024961484,0.0,0,False
2024-09-08,0.9098766024961484,0.9098766024961484,0.0,0,False
2024-09-09,0.9098766024961484,0.9098766024961484,0.0,0,False
2024-09-10,0.9098766024961484,0.9098766024961484,0.0,0,False
2024-09-11,0.9098766024961484,0.9098766024961484,0.0,0,False
2024-09-12,0.9098766024961484,0.9098766024961484,0.0,0,False
2024-09-13,0.9098766024961484,0.9098766024961484,0.0,0,False
2024-09-14,0.9098766024961484,0.9098766024961484,0.0,0,False
2024-09-15,0.9098766024961484,0.9098766024961484,0.0,0,False
2024-09-16,0.9098766024961484,0.9098766024961484,0.0,0,False
2024-09-17,0.9098766024961484,0.9098766024961484,0.0,0,False
2024-09-18,0.9098766024961484,0.9098766024961484,0.0,0,False
2024-09-19,0.9098766024961484,0.9098766024961484,0.0,0,False
2024-09-20,0.9098766024961484,0.9098766024961484,0.0,0,False
2024-09-21,0.9098766024961484,0.9098766024961484,0.0,0,False
2024-09-22,0.9098766024961484,0.9098766024961484,0.0,0,False
2024-09-23,0.9098766024961484,0.9098766024961484,0.0,0,False
2024-09-24,0.9098766024961484,0.9098766024961484,0.0,0,False
2024-09-25,0.9098766024961484,0.9098766024961484,0.0,0,False
2024-09-26,0.9098766024961484,0.9098766024961484,0.0,0,False
2024-09-27,0.9098766024961484,0.9098766024961484,0.0,0,False
2024-09-28,0.9098766024961484,0.9098766024961484,0.0,0,False
2024-09-29,0.9098766024961484,0.9098766024961484,0.0,0,False
2024-09-30,0.9098766024961484,0.9098766024961484,0.0,0,False
2024-10-01,0.9098766024961484,0.9098766024961484,0.0,0,False
2024-10-02,0.9098766024961484,0.9098766024961484,0.0,0,False
2024-10-03,0.9098766024961484,0.9098766024961484,0.0,0,False
2024-10-04,0.9098766024961484,0.9098766024961484,0.0,0,False
2024-10-05,0.9098766024961484,0.9098766024961484,0.0,0,False
2024-10-06,0.9098766024961484,0.9098766024961484,0.0,0,False
2024-10-07,0.9098766024961484,0.9098766024961484,0.0,0,False
2024-10-08,0.9098766024961484,0.9098766024961484,0.0,0,False
2024-10-09,0.9098766024961484,0.9098766024961484,0.0,0,False
2024-10-10,0.9098766024961484,0.9098766024961484,0.0,0,False
2024-10-11,0.9098766024961484,0.9098766024961484,0.0,0,False
2024-10-12,0.9098766024961484,0.9098766024961484,0.0,0,False
2024-10-13,0.9098766024961484,0.9098766024961484,0.0,0,False
2024-10-14,0.9098766024961484,0.9098766024961484,0.0,0,False
2024-10-15,0.9098766024961484,0.9098766024961484,0.0,0,False
2024-10-16,0.9098766024961484,0.9098766024961484,0.0,0,False
2024-10-17,0.9098766024961484,0.9098766024961484,0.0,0,False
2024-10-18,0.9098766024961484,0.9098766024961484,0.0,0,False
2024-10-19,0.9098766024961484,0.9098766024961484,0.0,0,False
2024-10-20,0.9098766024961484,0.9098766024961484,0.0,0,False
2024-10-21,0.9098766024961484,0.9098766024961484,0.0,0,False
2024-10-22,0.9098766024961484,0.9098766024961484,0.0,0,False
2024-10-23,0.9098766024961484,0.9098766024961484,0.0,0,False
2024-10-24,0.9098766024961484,0.9098766024961484,0.0,0,False
2024-10-25,0.9098766024961484,0.9098766024961484,0.0,0,False
2024-10-26,0.9098766024961484,0.9098766024961484,0.0,0,False
2024-10-27,0.9098766024961484,0.9098766024961484,0.0,0,False
2024-10-28,0.9098766024961484,0.9098766024961484,0.0,0,False
2024-10-29,0.9098766024961484,0.9098766024961484,0.0,0,False
2024-10-30,0.9098766024961484,0.9098766024961484,0.0,0,False
2024-10-31,0.9098766024961484,0.9098766024961484,0.0,0,False
2024-11-01,0.9098766024961484,0.9098766024961484,0.0,0,False
2024-11-02,0.9098766024961484,0.9098766024961484,0.0,0,False
2024-11-03,0.9098766024961484,0.9098766024961484,0.0,0,False
2024-11-04,0.9098766024961484,0.9098766024961484,0.0,0,False
2024-11-05,0.9098766024961484,0.9098766024961484,0.0,0,False
2024-11-06,0.9098766024961484,0.9098766024961484,0.0,0,False
2024-11-07,0.9098766024961484,0.9098766024961484,0.0,0,False
2024-11-08,0.9098766024961484,0.9098766024961484,0.0,0,False
2024-11-09,0.9098766024961484,0.9098766024961484,0.0,0,False
2024-11-10,0.9098766024961484,0.9098766024961484,0.0,0,False
2024-11-11,0.9098766024961484,0.9098766024961484,0.0,0,False
2024-11-12,0.9098766024961484,0.9098766024961484,0.0,0,False
2024-11-13,0.9098766024961484,0.9098766024961484,0.0,0,False
2024-11-14,0.9098766024961484,0.9098766024961484,0.0,0,False
2024-11-15,0.9098766024961484,0.9098766024961484,0.0,0,False
2024-11-16,0.9098766024961484,0.9098766024961484,0.0,0,False
2024-11-17,0.9098766024961484,0.9098766024961484,0.0,0,False
2024-11-18,0.9098766024961484,0.9098766024961484,0.0,0,False
2024-11-19,0.9098766024961484,0.9098766024961484,0.0,0,False
2024-11-20,0.9098766024961484,0.9098766024961484,0.0,0,False
2024-11-21,0.9098766024961484,0.9098766024961484,0.0,0,False
2024-11-22,0.9098766024961484,0.9098766024961484,0.0,0,False
2024-11-23,0.9098766024961484,0.9098766024961484,0.0,0,False
2024-11-24,0.9098766024961484,0.9098766024961484,0.0,0,False
2024-11-25,0.9098766024961484,0.9098766024961484,0.0,0,False
2024-11-26,0.9098766024961484,0.9098766024961484,0.0,0,False
2024-11-27,0.9098766024961484,0.9098766024961484,0.0,0,False
2024-11-28,0.9098766024961484,0.9098766024961484,0.0,0,False
2024-11-29,0.9098766024961484,0.9098766024961484,0.0,0,False
2024-11-30,0.9098766024961484,0.9098766024961484,0.0,0,False
2024-12-01,0.9098766024961484,0.9098766024961484,0.0,0,False
2024-12-02,0.9098766024961484,0.9098766024961484,0.0,0,False
2024-12-03,0.9098766024961484,0.9098766024961484,0.0,0,False
2024-12-04,0.9098766024961484,0.9098766024961484,0.0,0,False
2024-12-05,0.9098766024961484,0.9098766024961484,0.0,0,False
2024-12-06,0.9098766024961484,0.9098766024961484,0.0,0,False
2024-12-07,0.9098766024961484,0.9098766024961484,0.0,0,False
2024-12-08,0.9098766024961484,0.9098766024961484,0.0,0,False
2024-12-09,0.9098766024961484,0.9098766024961484,0.0,0,False
2024-12-10,0.9098766024961484,0.9098766024961484,0.0,0,False
2024-12-11,0.9098766024961484,0.9098766024961484,0.0,0,False
2024-12-12,0.9098766024961484,0.9098766024961484,0.0,0,False
2024-12-13,0.9098766024961484,0.9098766024961484,0.0,0,False
2024-12-14,0.9098766024961484,0.9098766024961484,0.0,0,False
2024-12-15,0.9098766024961484,0.9098766024961484,0.0,0,False
2024-12-16,0.9098766024961484,0.9098766024961484,0.0,0,False
2024-12-17,0.9098766024961484,0.9098766024961484,0.0,0,False
2024-12-18,0.9098766024961484,0.9098766024961484,0.0,0,False
2024-12-19,0.9098766024961484,0.9098766024961484,0.0,0,False
2024-12-20,0.9098766024961484,0.9098766024961484,0.0,0,False
2024-12-21,0.9098766024961484,0.9098766024961484,0.0,0,False
2024-12-22,0.9098766024961484,0.9098766024961484,0.0,0,False
2024-12-23,0.9098766024961484,0.9098766024961484,0.0,0,False
2024-12-24,0.9098766024961484,0.9098766024961484,0.0,0,False
2024-12-25,0.9098766024961484,0.9098766024961484,0.0,0,False
2024-12-26,0.9098766024961484,0.9098766024961484,0.0,0,False
2024-12-27,0.9098766024961484,0.9098766024961484,0.0,0,False
2024-12-28,0.9098766024961484,0.9098766024961484,0.0,0,False
2024-12-29,0.9098766024961484,0.9098766024961484,0.0,0,False
2024-12-30,0.9098766024961484,0.9098766024961484,0.0,0,False
2024-12-31,0.9098766024961484,0.9098766024961484,0.0,0,False
