day,start_equity,end_equity,return_pct,entries,active
2021-09-02,1.0,1.0,0.0,0,False
2021-09-03,1.0,1.0,0.0,0,False
2021-09-04,1.0,1.0,0.0,0,False
2021-09-05,1.0,1.0,0.0,0,False
2021-09-06,1.0,1.0,0.0,0,False
2021-09-07,1.0,1.0,0.0,0,False
2021-09-08,1.0,1.0,0.0,0,False
2021-09-09,1.0,1.0,0.0,0,False
2021-09-10,1.0,1.0,0.0,0,False
2021-09-11,1.0,1.0,0.0,0,False
2021-09-12,1.0,1.0,0.0,0,False
2021-09-13,1.0,1.0,0.0,0,False
2021-09-14,1.0,1.0,0.0,0,False
2021-09-15,1.0,1.0,0.0,0,False
2021-09-16,1.0,1.0,0.0,0,False
2021-09-17,1.0,1.0,0.0,0,False
2021-09-18,1.0,1.0,0.0,0,False
2021-09-19,1.0,1.0,0.0,0,False
2021-09-20,1.0,1.0,0.0,0,False
2021-09-21,1.0,1.0,0.0,0,False
2021-09-22,1.0,1.0,0.0,0,False
2021-09-23,1.0,1.0,0.0,0,False
2021-09-24,1.0,1.0,0.0,0,False
2021-09-25,1.0,1.0,0.0,0,False
2021-09-26,1.0,1.0,0.0,0,False
2021-09-27,1.0,1.0,0.0,0,False
2021-09-28,1.0,1.0,0.0,0,False
2021-09-29,1.0,1.0,0.0,0,False
2021-09-30,1.0,1.0,0.0,0,False
2021-10-01,1.0,1.0,0.0,0,False
2021-10-02,1.0,1.0,0.0,0,False
2021-10-03,1.0,1.0,0.0,0,False
2021-10-04,1.0,1.0,0.0,0,False
2021-10-05,1.0,0.9991229226558256,-0.08770773441744151,1,True
2021-10-06,0.9991229226558256,1.0069038235836238,0.7787731370545892,5,True
2021-10-07,1.0069038235836238,0.9928403438298518,-1.3967053679187935,2,True
2021-10-08,0.9928403438298518,0.992001382517593,-0.08450113026455819,1,True
2021-10-09,0.992001382517593,0.9978168951262704,0.5862403733670529,4,True
2021-10-10,0.9978168951262704,0.9856241663236088,-1.2219405045370113,1,True
2021-10-11,0.9856241663236088,0.9831757562997095,-0.2484121339102141,0,True
2021-10-12,0.9831757562997095,0.9831757562997095,0.0,0,False
2021-10-13,0.9831757562997095,1.0072751549821337,2.4511791028213326,4,True
2021-10-14,1.0072751549821337,1.0235463045665656,1.6153629426827854,1,True
2021-10-15,1.0235463045665656,1.040534938011285,1.6597816209119598,7,True
2021-10-16,1.040534938011285,1.0419679668985335,0.13772040081494463,3,True
2021-10-17,1.0419679668985335,1.0419679668985335,0.0,0,False
2021-10-18,1.0419679668985335,1.044892408769125,0.2806652376556418,2,True
2021-10-19,1.044892408769125,1.044892408769125,0.0,0,False
2021-10-20,1.044892408769125,1.044892408769125,0.0,0,False
2021-10-21,1.044892408769125,1.044892408769125,0.0,0,False
2021-10-22,1.044892408769125,1.044892408769125,0.0,0,False
2021-10-23,1.044892408769125,1.044892408769125,0.0,0,False
2021-10-24,1.044892408769125,1.049054749686195,0.3983511490884828,1,True
2021-10-25,1.049054749686195,1.0408850529543219,-0.7787674317586313,2,True
2021-10-26,1.0408850529543219,1.0408850529543219,0.0,0,False
2021-10-27,1.0408850529543219,1.0369250554643312,-0.3804452257961666,7,True
2021-10-28,1.0369250554643312,1.0305459125377563,-0.615198069808276,6,True
2021-10-29,1.0305459125377563,1.0263738122855337,-0.4048437048232656,3,True
2021-10-30,1.0263738122855337,1.0359893293548574,0.936843570464041,3,True
2021-10-31,1.0359893293548574,1.0281723164317405,-0.7545456986497001,13,True
2021-11-01,1.0281723164317405,1.0187586931637853,-0.9155686374269445,8,True
2021-11-02,1.0187586931637853,1.0433524512033385,2.414090618768272,3,True
2021-11-03,1.0433524512033385,1.0372407219814233,-0.5857780096137577,2,True
2021-11-04,1.0372407219814233,1.0461575533533836,0.8596684629703644,7,True
2021-11-05,1.0461575533533836,1.033784487785588,-1.1827153116788836,6,True
2021-11-06,1.033784487785588,1.0321023283460447,-0.16271858007335105,2,True
2021-11-07,1.0321023283460447,1.0321023283460447,0.0,0,False
2021-11-08,1.0321023283460447,1.0321023283460447,0.0,0,False
2021-11-09,1.0321023283460447,1.039613556811914,0.7277600543645901,2,True
2021-11-10,1.039613556811914,1.0603676783872835,1.996330409446978,1,True
2021-11-11,1.0603676783872835,1.0578290682926896,-0.23940847560111056,19,True
2021-11-12,1.0578290682926896,1.016907878933576,-3.868412259190368,7,True
2021-11-13,1.016907878933576,1.0147328453364222,-0.21388698447638577,1,True
2021-11-14,1.0147328453364222,1.0194321771276214,0.4631102474702331,2,True
2021-11-15,1.0194321771276214,1.0194321771276214,0.0,0,False
2021-11-16,1.0194321771276214,1.027245487643103,0.7664375022472525,9,True
2021-11-17,1.027245487643103,1.025945842200079,-0.12651751296625102,1,True
2021-11-18,1.025945842200079,1.0132793100564832,-1.2346199597079166,4,True
2021-11-19,1.0132793100564832,1.0194687174388275,0.610829345957864,7,True
2021-11-20,1.0194687174388275,1.0293416488358307,0.9684388768501417,0,True
2021-11-21,1.0293416488358307,1.0190670080693245,-0.9981759484935515,3,True
2021-11-22,1.0190670080693245,1.0058776343029168,-1.2942597161884062,10,True
2021-11-23,1.0058776343029168,0.9995136305309543,-0.6326817055011591,0,True
2021-11-24,0.9995136305309543,0.9849548016047511,-1.4565913341741399,4,True
2021-11-25,0.9849548016047511,0.9887952689400189,0.38991305276248056,11,True
2021-11-26,0.9887952689400189,0.9500812470091065,-3.9152717601909193,14,True
2021-11-27,0.9500812470091065,0.962891010993838,1.3482808996659212,7,True
2021-11-28,0.962891010993838,0.9202348977601058,-4.430004304402546,9,True
2021-11-29,0.9202348977601058,0.9064346203728105,-1.4996472553785778,2,True
2021-11-30,0.9064346203728105,0.8965001176349792,-1.0959977161668188,3,True
2021-12-01,0.8965001176349792,0.8890058040263248,-0.8359523285311754,1,True
2021-12-02,0.8890058040263248,0.8815645446645132,-0.8370315838333142,8,True
2021-12-03,0.8815645446645132,0.8617754049584133,-2.244774909094238,3,True
2021-12-04,0.8617754049584133,0.8022994899147262,-6.9015563337592845,25,True
2021-12-05,0.8022994899147262,0.7994820989547646,-0.3511644959740656,4,True
2021-12-06,0.7994820989547646,0.7711596638871063,-3.542597777321943,15,True
2021-12-07,0.7711596638871063,0.7852121299480086,1.8222511781891493,1,True
2021-12-08,0.7852121299480086,0.7780870685548907,-0.9074059252739297,4,True
2021-12-09,0.7780870685548907,0.7667836109819162,-1.452723998352523,4,True
2021-12-10,0.7667836109819162,0.7524533638026513,-1.8688776043236044,4,True
2021-12-11,0.7524533638026513,0.7456106234432219,-0.9093906265297824,2,True
2021-12-12,0.7456106234432219,0.7456106234432219,0.0,0,False
2021-12-13,0.7456106234432219,0.7381781247532343,-0.9968337971989261,2,True
2021-12-14,0.7381781247532343,0.7344994285988301,-0.49834803159927166,1,True
2021-12-15,0.7344994285988301,0.7329801054009103,-0.20685151529908907,1,True
2021-12-16,0.7329801054009103,0.7336542693028324,0.09197574353718707,1,True
2021-12-17,0.7336542693028324,0.7273531037247203,-0.8588739739904927,5,True
2021-12-18,0.7273531037247203,0.7305441930673234,0.4387262976210282,2,True
2021-12-19,0.7305441930673234,0.7265752043223724,-0.5432920804265717,1,True
2021-12-20,0.7265752043223724,0.7265752043223724,0.0,0,False
2021-12-21,0.7265752043223724,0.7229575564059327,-0.49790412539795215,1,True
2021-12-22,0.7229575564059327,0.7177169237589573,-0.7248880104425925,2,True
2021-12-23,0.7177169237589573,0.7179225090135777,0.028644337037997403,0,True
2021-12-24,0.7179225090135777,0.7179225090135777,0.0,0,False
2021-12-25,0.7179225090135777,0.7233670802294684,0.7583786756277577,2,True
2021-12-26,0.7233670802294684,0.7202854720234356,-0.42600890892839915,0,True
2021-12-27,0.7202854720234356,0.7202854720234356,0.0,0,False
2021-12-28,0.7202854720234356,0.7166964734471293,-0.4982744641821135,1,True
2021-12-29,0.7166964734471293,0.7166964734471293,0.0,0,False
2021-12-30,0.7166964734471293,0.7166964734471293,0.0,0,False
2021-12-31,0.7166964734471293,0.7166964734471293,0.0,0,False
2022-01-01,0.7166964734471293,0.7166964734471293,0.0,0,False
2022-01-02,0.7166964734471293,0.7166964734471293,0.0,0,False
2022-01-03,0.7166964734471293,0.7166964734471293,0.0,0,False
2022-01-04,0.7166964734471293,0.7166964734471293,0.0,0,False
2022-01-05,0.7166964734471293,0.7184101945630949,0.23911393169315787,1,True
2022-01-06,0.7184101945630949,0.6788672330625873,-5.504231677079108,15,True
2022-01-07,0.6788672330625873,0.6779274026938842,-0.13844096797296368,5,True
2022-01-08,0.6779274026938842,0.6779274026938842,0.0,0,False
2022-01-09,0.6779274026938842,0.678580712383732,0.09636868007572019,1,True
2022-01-10,0.678580712383732,0.6804434466098894,0.2745044461422985,0,True
2022-01-11,0.6804434466098894,0.6804434466098894,0.0,0,False
2022-01-12,0.6804434466098894,0.6804434466098894,0.0,0,False
2022-01-13,0.6804434466098894,0.6804434466098894,0.0,0,False
2022-01-14,0.6804434466098894,0.6804434466098894,0.0,0,False
2022-01-15,0.6804434466098894,0.6808919354090491,0.06591125263888387,1,True
2022-01-16,0.6808919354090491,0.679591736717363,-0.19095521977434693,0,True
2022-01-17,0.679591736717363,0.685255436582338,0.8333974000820588,1,True
2022-01-18,0.685255436582338,0.685255436582338,0.0,0,False
2022-01-19,0.685255436582338,0.6818415799266778,-0.4981874602391412,1,True
2022-01-20,0.6818415799266778,0.6818415799266778,0.0,0,False
2022-01-21,0.6818415799266778,0.6518260952116637,-4.402120022988609,9,True
2022-01-22,0.6518260952116637,0.6132334821806212,-5.920691625349928,27,True
2022-01-23,0.6132334821806212,0.6157680504228311,0.4133121096384196,0,True
2022-01-24,0.6157680504228311,0.6083956872522799,-1.197263022251449,6,True
2022-01-25,0.6083956872522799,0.6223720533503693,2.2972493709170427,0,True
2022-01-26,0.6223720533503693,0.6232274420436849,0.13744008727751833,1,True
2022-01-27,0.6232274420436849,0.617206801542276,-0.9660422656720624,10,True
2022-01-28,0.617206801542276,0.6062501799768496,-1.775194560080673,0,True
2022-01-29,0.6062501799768496,0.6062501799768496,0.0,0,False
2022-01-30,0.6062501799768496,0.611260687126358,0.8264751607495846,1,True
2022-01-31,0.611260687126358,0.6100604185296247,-0.19635952745070684,2,True
2022-02-01,0.6100604185296247,0.6070181762737683,-0.49867884613605806,1,True
2022-02-02,0.6070181762737683,0.6123178998112445,0.8730749332761301,1,True
2022-02-03,0.6123178998112445,0.6169040241252803,0.7489776659231451,4,True
2022-02-04,0.6169040241252803,0.6213104766065518,0.714284930710174,1,True
2022-02-05,0.6213104766065518,0.6213104766065518,0.0,0,False
2022-02-06,0.6213104766065518,0.6213104766065518,0.0,0,False
2022-02-07,0.6213104766065518,0.6213104766065518,0.0,0,False
2022-02-08,0.6213104766065518,0.6150765021372786,-1.003358981377822,3,True
2022-02-09,0.6150765021372786,0.623201998151094,1.3210545331484358,2,True
2022-02-10,0.623201998151094,0.6359732725524909,2.049299334611665,5,True
2022-02-11,0.6359732725524909,0.6257476417241883,-1.607871158997276,0,True
2022-02-12,0.6257476417241883,0.6102684001980911,-2.473719514698536,5,True
2022-02-13,0.6102684001980911,0.6102684001980911,0.0,0,False
2022-02-14,0.6102684001980911,0.6102684001980911,0.0,0,False
2022-02-15,0.6102684001980911,0.6102684001980911,0.0,0,False
2022-02-16,0.6102684001980911,0.6102684001980911,0.0,0,False
2022-02-17,0.6102684001980911,0.6102684001980911,0.0,0,False
2022-02-18,0.6102684001980911,0.6102684001980911,0.0,0,False
2022-02-19,0.6102684001980911,0.6102684001980911,0.0,0,False
2022-02-20,0.6102684001980911,0.6102684001980911,0.0,0,False
2022-02-21,0.6102684001980911,0.6102684001980911,0.0,0,False
2022-02-22,0.6102684001980911,0.6042067698247743,-0.9932728568854743,2,True
2022-02-23,0.6042067698247743,0.6042067698247743,0.0,0,False
2022-02-24,0.6042067698247743,0.5926769645585512,-1.908254895847461,11,True
2022-02-25,0.5926769645585512,0.6028742786864295,1.7205517908855494,0,True
2022-02-26,0.6028742786864295,0.6028742786864295,0.0,0,False
2022-02-27,0.6028742786864295,0.6028742786864295,0.0,0,False
2022-02-28,0.6028742786864295,0.5968703664990442,-0.9958812972526987,2,True
2022-03-01,0.5968703664990442,0.5968703664990442,0.0,0,False
2022-03-02,0.5968703664990442,0.5968703664990442,0.0,0,False
2022-03-03,0.5968703664990442,0.5968703664990442,0.0,0,False
2022-03-04,0.5968703664990442,0.6039737049209006,1.190097351208963,3,True
2022-03-05,0.6039737049209006,0.6044158564526976,0.07320708305584844,3,True
2022-03-06,0.6044158564526976,0.6009462953996981,-0.5740354122015012,4,True
2022-03-07,0.6009462953996981,0.5989603763394825,-0.3304653136924185,0,True
2022-03-08,0.5989603763394825,0.5959807889726709,-0.49745984617900474,1,True
2022-03-09,0.5959807889726709,0.6057401075675846,1.6375223456005061,2,True
2022-03-10,0.6057401075675846,0.601721066305825,-0.6634926780560213,4,True
2022-03-11,0.601721066305825,0.5935914473997403,-1.3510610416210267,2,True
2022-03-12,0.5935914473997403,0.591463236418911,-0.3585312743558111,0,True
2022-03-13,0.591463236418911,0.591463236418911,0.0,0,False
2022-03-14,0.591463236418911,0.5885168169319528,-0.498157671607391,1,True
2022-03-15,0.5885168169319528,0.5893937754182283,0.14901162737324114,1,True
2022-03-16,0.5893937754182283,0.5940308270284351,0.7867493352667898,1,True
2022-03-17,0.5940308270284351,0.5960216433666321,0.3351368729727078,1,True
2022-03-18,0.5960216433666321,0.5946661387820474,-0.22742539632085723,0,True
2022-03-19,0.5946661387820474,0.5946661387820474,0.0,0,False
2022-03-20,0.5946661387820474,0.5911021649812904,-0.5993234805762637,4,True
2022-03-21,0.5911021649812904,0.5974959713017783,1.0816753345321173,4,True
2022-03-22,0.5974959713017783,0.5948271162250052,-0.4466733174716575,0,True
2022-03-23,0.5948271162250052,0.5940216064746928,-0.13541913748391643,2,True
2022-03-24,0.5940216064746928,0.5888834948121888,-0.8649705004834529,0,True
2022-03-25,0.5888834948121888,0.5888834948121888,0.0,0,False
2022-03-26,0.5888834948121888,0.5903303694256838,0.2456979396164627,1,True
2022-03-27,0.5903303694256838,0.5927448170423628,0.4089993911422729,2,True
2022-03-28,0.5927448170423628,0.6040542466941755,1.9079761352015945,5,True
2022-03-29,0.6040542466941755,0.6078556420407463,0.6293135703249852,1,True
2022-03-30,0.6078556420407463,0.6164358353724234,1.4115511542956094,7,True
2022-03-31,0.6164358353724234,0.6131036939370329,-0.5405495988690223,7,True
2022-04-01,0.6131036939370329,0.598131200560413,-2.442081743216118,11,True
2022-04-02,0.598131200560413,0.5982554449464587,0.020772095809284963,1,True
2022-04-03,0.5982554449464587,0.5917134101392341,-1.0935186403209562,3,True
2022-04-04,0.5917134101392341,0.583795167109309,-1.3381888756014204,3,True
2022-04-05,0.583795167109309,0.5825156778703208,-0.21916749419556014,7,True
2022-04-06,0.5825156778703208,0.5548821469173602,-4.743826132540995,14,True
2022-04-07,0.5548821469173602,0.5490522098095422,-1.0506622244392139,3,True
2022-04-08,0.5490522098095422,0.5471820642916062,-0.3406134215514167,0,True
2022-04-09,0.5471820642916062,0.5467768752295358,-0.07405013587113984,1,True
2022-04-10,0.5467768752295358,0.5444474100066979,-0.42603579784897816,0,True
2022-04-11,0.5444474100066979,0.5355242251682213,-1.6389433900267592,7,True
2022-04-12,0.5355242251682213,0.5275940818195147,-1.4808187895170355,1,True
2022-04-13,0.5275940818195147,0.5235445344570346,-0.7675498080862431,1,True
2022-04-14,0.5235445344570346,0.5229850330716642,-0.1068679641457182,0,True
2022-04-15,0.5229850330716642,0.5274002025017723,0.8442248154170606,1,True
2022-04-16,0.5274002025017723,0.5274002025017723,0.0,0,False
2022-04-17,0.5274002025017723,0.5312885170509641,0.7372607235923034,1,True
2022-04-18,0.5312885170509641,0.5403081460501986,1.697689430462379,6,True
2022-04-19,0.5403081460501986,0.5516971607799409,2.1078739628486387,2,True
2022-04-20,0.5516971607799409,0.5607416401421976,1.6393920442639986,1,True
2022-04-21,0.5607416401421976,0.558052261184979,-0.47961106589777813,5,True
2022-04-22,0.558052261184979,0.5518154833519832,-1.1175974486247076,2,True
2022-04-23,0.5518154833519832,0.5457261043549767,-1.1035172409474159,2,True
2022-04-24,0.5457261043549767,0.5457261043549767,0.0,0,False
2022-04-25,0.5457261043549767,0.5375862647371159,-1.4915613442171183,3,True
2022-04-26,0.5375862647371159,0.5331631939538272,-0.822764842299617,2,True
2022-04-27,0.5331631939538272,0.5295820859967109,-0.6716720129459008,1,True
2022-04-28,0.5295820859967109,0.5312749892134674,0.31966776473761893,1,True
2022-04-29,0.5312749892134674,0.5191503767613588,-2.282172640962943,4,True
2022-04-30,0.5191503767613588,0.5117120257378684,-1.4327931475063838,5,True
2022-05-01,0.5117120257378684,0.5072340441214787,-0.8750979830760675,10,True
2022-05-02,0.5072340441214787,0.5125954533089324,1.0569892241242718,1,True
2022-05-03,0.5125954533089324,0.5183777058992929,1.1280343110799285,3,True
2022-05-04,0.5183777058992929,0.5123633223181422,-1.160231914433285,2,True
2022-05-05,0.5123633223181422,0.5123633223181422,0.0,0,False
2022-05-06,0.5123633223181422,0.4859314854361656,-5.15880737957356,13,True
2022-05-07,0.4859314854361656,0.4822975651248558,-0.7478256544846129,2,True
2022-05-08,0.4822975651248558,0.4780518083027021,-0.8803189419076873,3,True
2022-05-09,0.4780518083027021,0.46874795231414074,-1.946202446465839,5,True
2022-05-10,0.46874795231414074,0.45887600732530054,-2.1060241309010186,25,True
2022-05-11,0.45887600732530054,0.44006360107899006,-4.099670923298948,38,True
2022-05-12,0.44006360107899006,0.4274491735877894,-2.86650099219099,28,True
2022-05-13,0.4274491735877894,0.4430105407135385,3.6405187066183675,12,True
2022-05-14,0.4430105407135385,0.4232154095879952,-4.468320571709228,14,True
2022-05-15,0.4232154095879952,0.4339004243266595,2.5247225163814946,4,True
2022-05-16,0.4339004243266595,0.4369464716110734,0.7020152813035141,10,True
2022-05-17,0.4369464716110734,0.4477636970212093,2.4756408651731343,4,True
2022-05-18,0.4477636970212093,0.4354140771879904,-2.758066345122634,2,True
2022-05-19,0.4354140771879904,0.4373013012496191,0.4334320272364245,8,True
2022-05-20,0.4373013012496191,0.43983104206442153,0.5784892035705314,2,True
2022-05-21,0.43983104206442153,0.43983104206442153,0.0,0,False
2022-05-22,0.43983104206442153,0.43870675089914873,-0.25561887582916665,1,True
2022-05-23,0.43870675089914873,0.43859945474958745,-0.024457373710662367,4,True
2022-05-24,0.43859945474958745,0.4159999912308681,-5.152642866740953,16,True
2022-05-25,0.4159999912308681,0.41622523782803006,0.05414581776683747,1,True
2022-05-26,0.41622523782803006,0.4130279228651166,-0.7681694122148586,14,True
2022-05-27,0.4130279228651166,0.410879532057561,-0.5201563111405405,6,True
2022-05-28,0.410879532057561,0.4135557757273647,0.6513450929039655,1,True
2022-05-29,0.4135557757273647,0.41665132734536053,0.7485209492120726,4,True
2022-05-30,0.41665132734536053,0.4194692862410298,0.6763350338095719,0,True
2022-05-31,0.4194692862410298,0.4091441645934317,-2.461472624163763,10,True
2022-06-01,0.4091441645934317,0.4021358892469295,-1.7129109866363068,5,True
2022-06-02,0.4021358892469295,0.39529994820043723,-1.6999082223906337,12,True
2022-06-03,0.39529994820043723,0.3976882752053195,0.604180955690703,0,True
2022-06-04,0.3976882752053195,0.3976882752053195,0.0,0,False
2022-06-05,0.3976882752053195,0.3976882752053195,0.0,0,False
2022-06-06,0.3976882752053195,0.3991612647924875,0.3703879845106117,1,True
2022-06-07,0.3991612647924875,0.3958745840024764,-0.8233967270646292,5,True
2022-06-08,0.3958745840024764,0.4018557109919036,1.5108641047260951,6,True
2022-06-09,0.4018557109919036,0.40361439778492775,0.43764135855708375,7,True
2022-06-10,0.40361439778492775,0.4027916250828165,-0.20385117741752445,8,True
2022-06-11,0.4027916250828165,0.39100796554792416,-2.92549765215937,8,True
2022-06-12,0.39100796554792416,0.3858711220828505,-1.3137439432660436,15,True
2022-06-13,0.3858711220828505,0.3574879083384437,-7.355620081440728,16,True
2022-06-14,0.3574879083384437,0.36934432514089116,3.316592401000218,15,True
2022-06-15,0.36934432514089116,0.365574085450969,-1.0207926407110657,10,True
2022-06-16,0.365574085450969,0.3682325615357889,0.7272058361413869,10,True
2022-06-17,0.3682325615357889,0.3687635881560185,0.14420957723424443,2,True
2022-06-18,0.3687635881560185,0.3651205815394757,-0.9878975944342727,9,True
2022-06-19,0.3651205815394757,0.3629871838292682,-0.5842994939404211,4,True
2022-06-20,0.3629871838292682,0.36570125806057524,0.7477052502723014,2,True
2022-06-21,0.36570125806057524,0.368485312881685,0.7612921092682301,1,True
2022-06-22,0.368485312881685,0.37388379181474785,1.4650458903897157,9,True
2022-06-23,0.37388379181474785,0.3723824783251456,-0.40154548618307473,1,True
2022-06-24,0.3723824783251456,0.368683337702315,-0.9933712884312218,2,True
2022-06-25,0.368683337702315,0.369002153754369,0.08647422312082487,4,True
2022-06-26,0.369002153754369,0.3710103120774717,0.5442131712974918,0,True
2022-06-27,0.3710103120774717,0.3690331422806912,-0.5329150517971781,5,True
2022-06-28,0.3690331422806912,0.3701630794084854,0.3061885230174699,4,True
2022-06-29,0.3701630794084854,0.3626752076615293,-2.022857535905964,5,True
2022-06-30,0.3626752076615293,0.35691594140795774,-1.5879955761813336,4,True
2022-07-01,0.35691594140795774,0.36180386616619736,1.3694890564309947,1,True
2022-07-02,0.36180386616619736,0.3607257120342046,-0.29799408818298456,2,True
2022-07-03,0.3607257120342046,0.3594879008568154,-0.34314470416010323,3,True
2022-07-04,0.3594879008568154,0.361601530493985,0.5879557092552723,0,True
2022-07-05,0.361601530493985,0.36180487519730736,0.056234469761373695,1,True
2022-07-06,0.36180487519730736,0.3646744698163404,0.7931332095699739,0,True
2022-07-07,0.3646744698163404,0.3646744698163404,0.0,0,False
2022-07-08,0.3646744698163404,0.3646744698163404,0.0,0,False
2022-07-09,0.3646744698163404,0.3646744698163404,0.0,0,False
2022-07-10,0.3646744698163404,0.3646744698163404,0.0,0,False
2022-07-11,0.3646744698163404,0.3628594039190648,-0.4977222283176874,1,True
2022-07-12,0.3628594039190648,0.3640007187091009,0.3145336121123776,2,True
2022-07-13,0.3640007187091009,0.36970499940845103,1.5671069880246247,5,True
2022-07-14,0.36970499940845103,0.37553866878752284,1.577925477990827,0,True
2022-07-15,0.37553866878752284,0.37553866878752284,0.0,0,False
2022-07-16,0.37553866878752284,0.37553866878752284,0.0,0,False
2022-07-17,0.37553866878752284,0.37553866878752284,0.0,0,False
2022-07-18,0.37553866878752284,0.37634026350861727,0.21345197917499448,1,True
2022-07-19,0.37634026350861727,0.3780511436284562,0.4546099064416831,4,True
2022-07-20,0.3780511436284562,0.3736566923209378,-1.1623959830782127,2,True
2022-07-21,0.3736566923209378,0.363442241786212,-2.7336458157030674,8,True
2022-07-22,0.363442241786212,0.36541916455521645,0.54394413794292,0,True
2022-07-23,0.36541916455521645,0.3669987631227868,0.4322703133244232,3,True
2022-07-24,0.3669987631227868,0.3690890861625736,0.5695722301623851,3,True
2022-07-25,0.3690890861625736,0.3695706264147333,0.13046721515563853,1,True
2022-07-26,0.3695706264147333,0.36910705148066647,-0.12543608743045276,1,True
2022-07-27,0.36910705148066647,0.36704447614112756,-0.5588013914296419,1,True
2022-07-28,0.36704447614112756,0.36588932316706896,-0.31471743866114954,0,True
2022-07-29,0.36588932316706896,0.36580805810145256,-0.02221028613598186,5,True
2022-07-30,0.36580805810145256,0.3687201249621534,0.7960641643091515,2,True
2022-07-31,0.3687201249621534,0.3656782260850156,-0.8249885675348012,6,True
2022-08-01,0.3656782260850156,0.3616130970714716,-1.1116683257479276,2,True
2022-08-02,0.3616130970714716,0.3555182943852892,-1.6854485458467128,6,True
2022-08-03,0.3555182943852892,0.356420950859458,0.2538987411968563,2,True
2022-08-04,0.356420950859458,0.356420950859458,0.0,0,False
2022-08-05,0.356420950859458,0.3608041889905738,1.2297925025300138,2,True
2022-08-06,0.3608041889905738,0.3607045298226932,-0.027621399895449983,0,True
2022-08-07,0.3607045298226932,0.3612400812109241,0.14847370741204458,2,True
2022-08-08,0.3612400812109241,0.3616832922714269,0.12269155156237055,0,True
2022-08-09,0.3616832922714269,0.3583626367194468,-0.9181114037991378,7,True
2022-08-10,0.3583626367194468,0.3669784541111828,2.404217546395926,2,True
2022-08-11,0.3669784541111828,0.36872280883648334,0.47532892074695354,3,True
2022-08-12,0.36872280883648334,0.37181090367414726,0.8375112045301725,5,True
2022-08-13,0.37181090367414726,0.3709066144056631,-0.24321214347083897,0,True
2022-08-14,0.3709066144056631,0.3709066144056631,0.0,0,False
2022-08-15,0.3709066144056631,0.36905444831080275,-0.4993618401300859,1,True
2022-08-16,0.36905444831080275,0.3652321710259211,-1.035694679301813,3,True
2022-08-17,0.3652321710259211,0.36341605354749984,-0.49725013908820115,1,True
2022-08-18,0.36341605354749984,0.3616074347828146,-0.4976716760391686,1,True
2022-08-19,0.3616074347828146,0.35094755249379533,-2.9479156852573296,12,True
2022-08-20,0.35094755249379533,0.3494709931586163,-0.42073504279678264,2,True
2022-08-21,0.3494709931586163,0.3527153944517444,0.9283749886662251,1,True
2022-08-22,0.3527153944517444,0.3510552738569763,-0.4706685959507184,0,True
2022-08-23,0.3510552738569763,0.3510552738569763,0.0,0,False
2022-08-24,0.3510552738569763,0.3510552738569763,0.0,0,False
2022-08-25,0.3510552738569763,0.3498221812705287,-0.35125311547091753,1,True
2022-08-26,0.3498221812705287,0.3522996695327658,0.7082135996176797,1,True
2022-08-27,0.3522996695327658,0.34662112682176466,-1.6118501384154826,7,True
2022-08-28,0.34662112682176466,0.3467108125189124,0.02587427314950652,1,True
2022-08-29,0.3467108125189124,0.34689616101141946,0.0534591036144727,2,True
2022-08-30,0.34689616101141946,0.34517243402952197,-0.4968999878441238,1,True
2022-08-31,0.34517243402952197,0.3444144109332086,-0.2196070779651227,2,True
2022-09-01,0.3444144109332086,0.3390340920764156,-1.5621642666503899,2,True
2022-09-02,0.3390340920764156,0.3390978131299767,0.018794880824768434,0,True
2022-09-03,0.3390978131299767,0.3390978131299767,0.0,0,False
2022-09-04,0.3390978131299767,0.3390978131299767,0.0,0,False
2022-09-05,0.3390978131299767,0.3390978131299767,0.0,0,False
2022-09-06,0.3390978131299767,0.33741048984540095,-0.49759190983901247,1,True
2022-09-07,0.33741048984540095,0.3336976438082771,-1.1003943709115394,5,True
2022-09-08,0.3336976438082771,0.3322745068178943,-0.42647498919724525,2,True
2022-09-09,0.3322745068178943,0.33190862859817843,-0.11011323836419562,0,True
2022-09-10,0.33190862859817843,0.3311069115653738,-0.24154751149154663,2,True
2022-09-11,0.3311069115653738,0.3330806228020913,0.5960948466422478,0,True
2022-09-12,0.3330806228020913,0.3330806228020913,0.0,0,False
2022-09-13,0.3330806228020913,0.3247497715818604,-2.501151568093729,7,True
2022-09-14,0.3247497715818604,0.3275063011046091,0.8488164623862815,5,True
2022-09-15,0.3275063011046091,0.32694287533278826,-0.17203509365179004,3,True
2022-09-16,0.32694287533278826,0.3220709116383559,-1.4901574745965318,3,True
2022-09-17,0.3220709116383559,0.32046780162330446,-0.49775063724212254,1,True
2022-09-18,0.32046780162330446,0.32046780162330446,0.0,0,False
2022-09-19,0.32046780162330446,0.3232597278819219,0.8712033609851622,9,True
2022-09-20,0.3232597278819219,0.3232562546766225,-0.001074431795811126,0,True
2022-09-21,0.3232562546766225,0.3232562546766225,0.0,0,False
2022-09-22,0.3232562546766225,0.3243904573532006,0.3508679755362287,2,True
2022-09-23,0.3243904573532006,0.32008109285864994,-1.328449834718337,3,True
2022-09-24,0.32008109285864994,0.3201225415075019,0.01294942118630349,0,True
2022-09-25,0.3201225415075019,0.3201225415075019,0.0,0,False
2022-09-26,0.3201225415075019,0.3201225415075019,0.0,0,False
2022-09-27,0.3201225415075019,0.3201225415075019,0.0,0,False
2022-09-28,0.3201225415075019,0.3201225415075019,0.0,0,False
2022-09-29,0.3201225415075019,0.3201225415075019,0.0,0,False
2022-09-30,0.3201225415075019,0.31898875722557285,-0.3541719607091487,1,True
2022-10-01,0.31898875722557285,0.3185226819376761,-0.14611025540539613,0,True
2022-10-02,0.3185226819376761,0.3185226819376761,0.0,0,False
2022-10-03,0.3185226819376761,0.3185226819376761,0.0,0,False
2022-10-04,0.3185226819376761,0.3185226819376761,0.0,0,False
2022-10-05,0.3185226819376761,0.3185226819376761,0.0,0,False
2022-10-06,0.3185226819376761,0.3185226819376761,0.0,0,False
2022-10-07,0.3185226819376761,0.3185226819376761,0.0,0,False
2022-10-08,0.3185226819376761,0.3169355175191587,-0.4982892925747495,1,True
2022-10-09,0.3169355175191587,0.3169355175191587,0.0,0,False
2022-10-10,0.3169355175191587,0.3158490802895123,-0.342794407566116,2,True
2022-10-11,0.3158490802895123,0.32321497000575705,2.332091551285531,6,True
2022-10-12,0.32321497000575705,0.32262219565707495,-0.18339941020415473,2,True
2022-10-13,0.32262219565707495,0.32338426234697165,0.23621024844389105,1,True
2022-10-14,0.32338426234697165,0.32338426234697165,0.0,0,False
2022-10-15,0.32338426234697165,0.32338426234697165,0.0,0,False
2022-10-16,0.32338426234697165,0.32338426234697165,0.0,0,False
2022-10-17,0.32338426234697165,0.32338426234697165,0.0,0,False
2022-10-18,0.32338426234697165,0.32338426234697165,0.0,0,False
2022-10-19,0.32338426234697165,0.32338426234697165,0.0,0,False
2022-10-20,0.32338426234697165,0.32606505687082066,0.8289811335879582,2,True
2022-10-21,0.32606505687082066,0.32355759789447963,-0.7690057316796173,0,True
2022-10-22,0.32355759789447963,0.32355759789447963,0.0,0,False
2022-10-23,0.32355759789447963,0.32355759789447963,0.0,0,False
2022-10-24,0.32355759789447963,0.32355759789447963,0.0,0,False
2022-10-25,0.32355759789447963,0.32194322730297825,-0.49894380537089944,1,True
2022-10-26,0.32194322730297825,0.32194322730297825,0.0,0,False
2022-10-27,0.32194322730297825,0.32194322730297825,0.0,0,False
2022-10-28,0.32194322730297825,0.3203396523830429,-0.4980924535574194,1,True
2022-10-29,0.3203396523830429,0.3203396523830429,0.0,0,False
2022-10-30,0.3203396523830429,0.3136099488200254,-2.1008025428492783,6,True
2022-10-31,0.3136099488200254,0.3149795257149821,0.4367134716579679,3,True
2022-11-01,0.3149795257149821,0.31325939879033154,-0.5461075353218603,1,True
2022-11-02,0.31325939879033154,0.3168508261260608,1.1464707362645044,3,True
2022-11-03,0.3168508261260608,0.32351110564617735,2.102023719346957,8,True
2022-11-04,0.32351110564617735,0.3257657656263399,0.6969343372800418,6,True
2022-11-05,0.3257657656263399,0.31897691718980936,-2.0839661968401813,7,True
2022-11-06,0.31897691718980936,0.3173704123471283,-0.503642977314589,2,True
2022-11-07,0.3173704123471283,0.31419930648742755,-0.999181315059805,8,True
2022-11-08,0.31419930648742755,0.30169554687744504,-3.979563083625981,12,True
2022-11-09,0.30169554687744504,0.28214584311004787,-6.479944424018513,29,True
2022-11-10,0.28214584311004787,0.2827239057814374,0.204880803848706,19,True
2022-11-11,0.2827239057814374,0.2882337610832139,1.948846627082168,15,True
2022-11-12,0.2882337610832139,0.282030468473607,-2.1521741888577695,4,True
2022-11-13,0.282030468473607,0.28213557214730234,0.037266779814304485,3,True
2022-11-14,0.28213557214730234,0.2769860563521336,-1.8251919656838589,11,True
2022-11-15,0.2769860563521336,0.2793278876094917,0.8454690059852332,3,True
2022-11-16,0.2793278876094917,0.28301519881387316,1.3200655458850852,2,True
2022-11-17,0.28301519881387316,0.28137238965488043,-0.5804667614593861,3,True
2022-11-18,0.28137238965488043,0.282935080134535,0.555381600011029,0,True
2022-11-19,0.282935080134535,0.2826746355078212,-0.09205101982757702,3,True
2022-11-20,0.2826746355078212,0.2790685424219272,-1.2757045142786527,3,True
2022-11-21,0.2790685424219272,0.26712676860827317,-4.2791544005698405,10,True
2022-11-22,0.26712676860827317,0.2642626417073466,-1.07219763704276,5,True
2022-11-23,0.2642626417073466,0.2664254797043853,0.8184425854010469,1,True
2022-11-24,0.2664254797043853,0.26377069772965206,-0.9964444758357449,2,True
2022-11-25,0.26377069772965206,0.2632506135955907,-0.19717282417563986,3,True
2022-11-26,0.2632506135955907,0.2639532585630406,0.266911046418028,0,True
2022-11-27,0.2639532585630406,0.2639532585630406,0.0,0,False
2022-11-28,0.2639532585630406,0.2596901502729767,-1.615099701088063,8,True
2022-11-29,0.2596901502729767,0.2600924494706275,0.1549150775367769,0,True
2022-11-30,0.2600924494706275,0.2600924494706275,0.0,0,False
2022-12-01,0.2600924494706275,0.26016826643009006,0.02915000401468859,2,True
2022-12-02,0.26016826643009006,0.2599818457193939,-0.07165390047529918,2,True
2022-12-03,0.2599818457193939,0.2598911469388909,-0.03488658227347452,0,True
2022-12-04,0.2598911469388909,0.25961632896140135,-0.10574349327651111,3,True
2022-12-05,0.25961632896140135,0.26247157371571295,1.0997939789588962,2,True
2022-12-06,0.26247157371571295,0.2638972366056509,0.5431684924029456,2,True
2022-12-07,0.2638972366056509,0.26297186655010396,-0.35065545492229955,2,True
2022-12-08,0.26297186655010396,0.26023649350116157,-1.040177067162129,2,True
2022-12-09,0.26023649350116157,0.26023649350116157,0.0,0,False
2022-12-10,0.26023649350116157,0.26023649350116157,0.0,0,False
2022-12-11,0.26023649350116157,0.26023649350116157,0.0,0,False
2022-12-12,0.26023649350116157,0.2599168733140765,-0.12281912608989032,1,True
2022-12-13,0.2599168733140765,0.26033844404197054,0.16219444413854145,1,True
2022-12-14,0.26033844404197054,0.26023943319710374,-0.038031588162534824,0,True
2022-12-15,0.26023943319710374,0.26023943319710374,0.0,0,False
2022-12-16,0.26023943319710374,0.2606013588450576,0.13907409938129778,5,True
2022-12-17,0.2606013588450576,0.25755467470969684,-1.1690975629840006,7,True
2022-12-18,0.25755467470969684,0.25830559096649514,0.291556058007747,0,True
2022-12-19,0.25830559096649514,0.25701919670304013,-0.49801255119633625,1,True
2022-12-20,0.25701919670304013,0.25701919670304013,0.0,0,False
2022-12-21,0.25701919670304013,0.25701919670304013,0.0,0,False
2022-12-22,0.25701919670304013,0.25701919670304013,0.0,0,False
2022-12-23,0.25701919670304013,0.25701919670304013,0.0,0,False
2022-12-24,0.25701919670304013,0.25701919670304013,0.0,0,False
2022-12-25,0.25701919670304013,0.25701919670304013,0.0,0,False
2022-12-26,0.25701919670304013,0.25701919670304013,0.0,0,False
2022-12-27,0.25701919670304013,0.25701919670304013,0.0,0,False
2022-12-28,0.25701919670304013,0.25928697746421103,0.8823390588178937,4,True
2022-12-29,0.25928697746421103,0.2569459291723553,-0.9028792401187369,0,True
2022-12-30,0.2569459291723553,0.2591305924600737,0.8502424205572678,1,True
2022-12-31,0.2591305924600737,0.2591305924600737,0.0,0,False
2023-01-01,0.2591305924600737,0.2591305924600737,0.0,0,False
2023-01-02,0.2591305924600737,0.2592153408770515,0.03270490611442245,1,True
2023-01-03,0.2592153408770515,0.2592480751833279,0.012628228779054673,0,True
2023-01-04,0.2592480751833279,0.2592480751833279,0.0,0,False
2023-01-05,0.2592480751833279,0.2592480751833279,0.0,0,False
2023-01-06,0.2592480751833279,0.25879132555299333,-0.1761824576755444,1,True
2023-01-07,0.25879132555299333,0.259612179536222,0.31718759563315047,0,True
2023-01-08,0.259612179536222,0.259612179536222,0.0,0,False
2023-01-09,0.259612179536222,0.259632242736734,0.007728143012331046,1,True
2023-01-10,0.259632242736734,0.25637281171470433,-1.2554030222412527,6,True
2023-01-11,0.25637281171470433,0.2544610774033248,-0.7456852770749145,3,True
2023-01-12,0.2544610774033248,0.25395765162202844,-0.19783999440450284,0,True
2023-01-13,0.25395765162202844,0.25389580153780833,-0.024354487382072243,1,True
2023-01-14,0.25389580153780833,0.2522338631067357,-0.6545749953353108,6,True
2023-01-15,0.2522338631067357,0.2534950670183635,0.5000137158800655,3,True
2023-01-16,0.2534950670183635,0.25346376758946815,-0.01234715502099748,2,True
2023-01-17,0.25346376758946815,0.2528070987552272,-0.25907798991787745,0,True
2023-01-18,0.2528070987552272,0.2528070987552272,0.0,0,False
2023-01-19,0.2528070987552272,0.24787930529722296,-1.949230651460243,8,True
2023-01-20,0.24787930529722296,0.24876985526630085,0.3592675750039076,0,True
2023-01-21,0.24876985526630085,0.2483408779139581,-0.1724394428270104,4,True
2023-01-22,0.2483408779139581,0.2488531675169368,0.20628484818203674,2,True
2023-01-23,0.2488531675169368,0.24717125602904125,-0.6758650109531361,2,True
2023-01-24,0.24717125602904125,0.2494953778229498,0.9402880542207948,4,True
2023-01-25,0.2494953778229498,0.24939489168047435,-0.04027575314311527,11,True
2023-01-26,0.24939489168047435,0.25517846837021774,2.3190437666034125,4,True
2023-01-27,0.25517846837021774,0.2534031481101197,-0.6957171078879387,3,True
2023-01-28,0.2534031481101197,0.25620121341878005,1.1041951647121628,0,True
2023-01-29,0.25620121341878005,0.25492240307236164,-0.4991429702278949,1,True
2023-01-30,0.25492240307236164,0.2558800415004445,0.3756587952024937,5,True
2023-01-31,0.2558800415004445,0.2597824824408006,1.525105638357993,6,True
2023-02-01,0.2597824824408006,0.25719515677040017,-0.9959584826856216,2,True
2023-02-02,0.25719515677040017,0.25719515677040017,0.0,0,False
2023-02-03,0.25719515677040017,0.25802732423320335,0.3235548729815463,4,True
2023-02-04,0.25802732423320335,0.25995352068040634,0.7465087090784639,0,True
2023-02-05,0.25995352068040634,0.2609933818519419,0.4000181143205106,6,True
2023-02-06,0.2609933818519419,0.252728086591773,-3.166860094888413,3,True
2023-02-07,0.252728086591773,0.25229598246171664,-0.170975903740489,0,True
2023-02-08,0.25229598246171664,0.2471484345335555,-2.04028137029183,5,True
2023-02-09,0.2471484345335555,0.24276805315486027,-1.77236865245064,10,True
2023-02-10,0.24276805315486027,0.2351237356539114,-3.1488152586834017,10,True
2023-02-11,0.2351237356539114,0.23949838602648674,1.860573693425227,3,True
2023-02-12,0.23949838602648674,0.24037771299232427,0.3671536081835125,2,True
2023-02-13,0.24037771299232427,0.24433950429328796,1.6481525061727398,3,True
2023-02-14,0.24433950429328796,0.24411801899653623,-0.09064653601239536,1,True
2023-02-15,0.24411801899653623,0.24462912669949977,0.20936910149627064,0,True
2023-02-16,0.24462912669949977,0.24462912669949977,0.0,0,False
2023-02-17,0.24462912669949977,0.24663782716785196,0.821120728939051,1,True
2023-02-18,0.24663782716785196,0.24694769279830703,0.1256358904930588,1,True
2023-02-19,0.24694769279830703,0.24756870987772894,0.25147717412736803,2,True
2023-02-20,0.24756870987772894,0.24629583134383567,-0.5141516205832031,6,True
2023-02-21,0.24629583134383567,0.24253577399837312,-1.5266427064343668,10,True
2023-02-22,0.24253577399837312,0.2384377485075261,-1.689658157758822,4,True
2023-02-23,0.2384377485075261,0.24048029983486666,0.8566392444676607,2,True
2023-02-24,0.24048029983486666,0.23903322977065522,-0.6017416250749474,1,True
2023-02-25,0.23903322977065522,0.23602368451614028,-1.2590489018629358,3,True
2023-02-26,0.23602368451614028,0.2356018250948791,-0.17873605444556073,2,True
2023-02-27,0.2356018250948791,0.23442559969809035,-0.4992429054040959,1,True
2023-02-28,0.23442559969809035,0.23224246010089017,-0.9312718406231157,3,True
2023-03-01,0.23224246010089017,0.23094274892841632,-0.5596354654136992,1,True
2023-03-02,0.23094274892841632,0.22979467778673496,-0.4971237014404939,1,True
2023-03-03,0.22979467778673496,0.22940257261883745,-0.17063283261129492,9,True
2023-03-04,0.22940257261883745,0.2302576995925853,0.37276259110166077,0,True
2023-03-05,0.2302576995925853,0.23478375250533332,1.965646717028946,4,True
2023-03-06,0.23478375250533332,0.23478375250533332,0.0,0,False
2023-03-07,0.23478375250533332,0.23478375250533332,0.0,0,False
2023-03-08,0.23478375250533332,0.23478375250533332,0.0,0,False
2023-03-09,0.23478375250533332,0.23478375250533332,0.0,0,False
2023-03-10,0.23478375250533332,0.22806532801544943,-2.861537230831712,12,True
2023-03-11,0.22806532801544943,0.22870026694178103,0.2784022156531396,7,True
2023-03-12,0.22870026694178103,0.2315398739671088,1.241628207653389,0,True
2023-03-13,0.2315398739671088,0.2315398739671088,0.0,0,False
2023-03-14,0.2315398739671088,0.23350643688703232,0.8493409304536792,1,True
2023-03-15,0.23350643688703232,0.23239140317070062,-0.4775173357945306,7,True
2023-03-16,0.23239140317070062,0.2325240066420961,0.057060403089903566,8,True
2023-03-17,0.2325240066420961,0.23158254515616855,-0.4048878649234089,3,True
2023-03-18,0.23158254515616855,0.2323133595192329,0.3155740267780205,3,True
2023-03-19,0.2323133595192329,0.23516806731956097,1.2288177512631338,3,True
2023-03-20,0.23516806731956097,0.23795668508614115,1.1857977991505342,5,True
2023-03-21,0.23795668508614115,0.23543503972029928,-1.0597077215666495,4,True
2023-03-22,0.23543503972029928,0.23525327238221208,-0.07720487923256192,0,True
2023-03-23,0.23525327238221208,0.24211989973368317,2.918823309847518,8,True
2023-03-24,0.24211989973368317,0.24148774524708308,-0.2610915035465622,1,True
2023-03-25,0.24148774524708308,0.2402825368006064,-0.4990764418474125,1,True
2023-03-26,0.2402825368006064,0.2402825368006064,0.0,0,False
2023-03-27,0.2402825368006064,0.23908633436604027,-0.4978316154364504,1,True
2023-03-28,0.23908633436604027,0.24530031728436677,2.599053992275824,4,True
2023-03-29,0.24530031728436677,0.24565615219919903,0.1450609272631853,1,True
2023-03-30,0.24565615219919903,0.24398876408442866,-0.6787487713388551,3,True
2023-03-31,0.24398876408442866,0.24398876408442866,0.0,0,False
2023-04-01,0.24398876408442866,0.24368853711935332,-0.12304950443187135,1,True
2023-04-02,0.24368853711935332,0.24277040607069925,-0.37676415128398144,0,True
2023-04-03,0.24277040607069925,0.24277040607069925,0.0,0,False
2023-04-04,0.24277040607069925,0.24035558119714742,-0.9946949105685388,2,True
2023-04-05,0.24035558119714742,0.23919758865251503,-0.4817830893981023,2,True
2023-04-06,0.23919758865251503,0.23239287434713546,-2.844808906190466,6,True
2023-04-07,0.23239287434713546,0.2305477607246598,-0.7939630798315833,1,True
2023-04-08,0.2305477607246598,0.23119886839679968,0.2824176951852886,1,True
2023-04-09,0.23119886839679968,0.23127390204112877,0.03245415725838807,0,True
2023-04-10,0.23127390204112877,0.23127390204112877,0.0,0,False
2023-04-11,0.23127390204112877,0.23127390204112877,0.0,0,False
2023-04-12,0.23127390204112877,0.23311420120490173,0.7957227977438031,1,True
2023-04-13,0.23311420120490173,0.23311420120490173,0.0,0,False
2023-04-14,0.23311420120490173,0.2349847031462116,0.8023972506358446,2,True
2023-04-15,0.2349847031462116,0.23412479101797729,-0.36594387495055836,1,True
2023-04-16,0.23412479101797729,0.23355791326190276,-0.24212632656701594,1,True
2023-04-17,0.23355791326190276,0.23299383770535387,-0.24151421318632238,4,True
2023-04-18,0.23299383770535387,0.23263190543538725,-0.155339846551783,0,True
2023-04-19,0.23263190543538725,0.2278279476113825,-2.065046845149554,10,True
2023-04-20,0.2278279476113825,0.2236012939689524,-1.8551954168676943,0,True
2023-04-21,0.2236012939689524,0.22248585529456788,-0.49885161869385186,1,True
2023-04-22,0.22248585529456788,0.22213803566771223,-0.15633336617968396,1,True
2023-04-23,0.22213803566771223,0.22216785017397708,0.013421612456077092,0,True
2023-04-24,0.22216785017397708,0.22216785017397708,0.0,0,False
2023-04-25,0.22216785017397708,0.22216785017397708,0.0,0,False
2023-04-26,0.22216785017397708,0.22216785017397708,0.0,0,False
2023-04-27,0.22216785017397708,0.21984506370023207,-1.0455097224580712,12,True
2023-04-28,0.21984506370023207,0.21984506370023207,0.0,0,False
2023-04-29,0.21984506370023207,0.21875010138000253,-0.49806090789582536,1,True
2023-04-30,0.21875010138000253,0.21875010138000253,0.0,0,False
2023-05-01,0.21875010138000253,0.21875010138000253,0.0,0,False
2023-05-02,0.21875010138000253,0.21875010138000253,0.0,0,False
2023-05-03,0.21875010138000253,0.21875010138000253,0.0,0,False
2023-05-04,0.21875010138000253,0.21875010138000253,0.0,0,False
2023-05-05,0.21875010138000253,0.21875010138000253,0.0,0,False
2023-05-06,0.21875010138000253,0.21657620319581772,-0.993781566486418,2,True
2023-05-07,0.21657620319581772,0.21657620319581772,0.0,0,False
2023-05-08,0.21657620319581772,0.21166583717512347,-2.267269417524387,8,True
2023-05-09,0.21166583717512347,0.20983052637706692,-0.8670793655464082,6,True
2023-05-10,0.20983052637706692,0.20872505749803058,-0.5268389200195789,2,True
2023-05-11,0.20872505749803058,0.21282337397179524,1.9634999855268065,5,True
2023-05-12,0.21282337397179524,0.21197219575069098,-0.3999458354687402,0,True
2023-05-13,0.21197219575069098,0.21091383941222763,-0.49929017091850936,1,True
2023-05-14,0.21091383941222763,0.21091383941222763,0.0,0,False
2023-05-15,0.21091383941222763,0.21091383941222763,0.0,0,False
2023-05-16,0.21091383941222763,0.21091383941222763,0.0,0,False
2023-05-17,0.21091383941222763,0.21091383941222763,0.0,0,False
2023-05-18,0.21091383941222763,0.20986170243381078,-0.49884681884742044,1,True
2023-05-19,0.20986170243381078,0.20986170243381078,0.0,0,False
2023-05-20,0.20986170243381078,0.20986170243381078,0.0,0,False
2023-05-21,0.20986170243381078,0.20986170243381078,0.0,0,False
2023-05-22,0.20986170243381078,0.20881463606037928,-0.49893161128897745,1,True
2023-05-23,0.20881463606037928,0.20881463606037928,0.0,0,False
2023-05-24,0.20881463606037928,0.20777420815472258,-0.498254301176404,1,True
2023-05-25,0.20777420815472258,0.2082026124879149,0.2061874459766022,1,True
2023-05-26,0.2082026124879149,0.20892641846960247,0.3476450045647672,1,True
2023-05-27,0.20892641846960247,0.20700582464896564,-0.919268053655109,3,True
2023-05-28,0.20700582464896564,0.20700582464896564,0.0,0,False
2023-05-29,0.20700582464896564,0.20795560616537123,0.4588187400118793,1,True
2023-05-30,0.20795560616537123,0.21189430737111795,1.894010591190587,4,True
2023-05-31,0.21189430737111795,0.2107143706846152,-0.5568515271324181,2,True
2023-06-01,0.2107143706846152,0.2127706076204709,0.9758408641873606,0,True
2023-06-02,0.2127706076204709,0.21425472079411112,0.697517946786852,3,True
2023-06-03,0.21425472079411112,0.20959750663795632,-2.173680999369987,3,True
2023-06-04,0.20959750663795632,0.20730682018209903,-1.0928977603793966,4,True
2023-06-05,0.20730682018209903,0.20718875229901423,-0.05695320731903264,1,True
2023-06-06,0.20718875229901423,0.2010467390596671,-2.964453027103997,12,True
2023-06-07,0.2010467390596671,0.20010546269425597,-0.4681878302596032,2,True
2023-06-08,0.20010546269425597,0.1971073278854441,-1.4982773425794793,3,True
2023-06-09,0.1971073278854441,0.1962598835952484,-0.4299405300082104,1,True
2023-06-10,0.1962598835952484,0.20211771249017518,2.9847306477606583,8,True
2023-06-11,0.20211771249017518,0.20324723449384963,0.5588436509389894,1,True
2023-06-12,0.20324723449384963,0.20308401957331892,-0.08030363657205442,0,True
2023-06-13,0.20308401957331892,0.20232021682642187,-0.37610184617273834,2,True
2023-06-14,0.20232021682642187,0.20230440691159743,-0.007814303025388547,0,True
2023-06-15,0.20230440691159743,0.20311051039401382,0.3984606636713739,7,True
2023-06-16,0.20311051039401382,0.20492833806160443,0.8949943870773636,0,True
2023-06-17,0.20492833806160443,0.20536983901682537,0.21544163164404218,1,True
2023-06-18,0.20536983901682537,0.20574170388799823,0.18107082955953757,0,True
2023-06-19,0.20574170388799823,0.2075313892490439,0.869870000697559,1,True
2023-06-20,0.2075313892490439,0.20649842030554888,-0.49774106328340784,1,True
2023-06-21,0.20649842030554888,0.20649842030554888,0.0,0,False
2023-06-22,0.20649842030554888,0.20594216462656767,-0.2693752708413655,6,True
2023-06-23,0.20594216462656767,0.2043802934923931,-0.7584027957590389,0,True
2023-06-24,0.2043802934923931,0.20438420109432773,0.0019119269611955758,1,True
2023-06-25,0.20438420109432773,0.20177376608338016,-1.2772195683279808,7,True
2023-06-26,0.20177376608338016,0.20230908916490392,0.2653085640987429,0,True
2023-06-27,0.20230908916490392,0.20230908916490392,0.0,0,False
2023-06-28,0.20230908916490392,0.20230908916490392,0.0,0,False
2023-06-29,0.20230908916490392,0.2019013503162265,-0.20154252602317957,2,True
2023-06-30,0.2019013503162265,0.19888858156341604,-1.4921984167474478,10,True
2023-07-01,0.19888858156341604,0.20400543153652254,2.572721838973435,1,True
2023-07-02,0.20400543153652254,0.20399922326950634,-0.0030431871197889038,0,True
2023-07-03,0.20399922326950634,0.20399922326950634,0.0,0,False
2023-07-04,0.20399922326950634,0.2036175076235992,-0.18711622514505644,1,True
2023-07-05,0.2036175076235992,0.20095135164396366,-1.3093942710290518,2,True
2023-07-06,0.20095135164396366,0.2011233826975392,0.08560830876138681,4,True
2023-07-07,0.2011233826975392,0.19970172038865536,-0.706860778600682,0,True
2023-07-08,0.19970172038865536,0.19970172038865536,0.0,0,False
2023-07-09,0.19970172038865536,0.19970172038865536,0.0,0,False
2023-07-10,0.19970172038865536,0.19966767796289886,-0.017046636198347898,1,True
2023-07-11,0.19966767796289886,0.19898469251247689,-0.3420610974145144,0,True
2023-07-12,0.19898469251247689,0.19839813469634368,-0.2947753461470026,1,True
2023-07-13,0.19839813469634368,0.19817268783576586,-0.1136335585628756,0,True
2023-07-14,0.19817268783576586,0.19718418594402748,-0.4988083385928488,1,True
2023-07-15,0.19718418594402748,0.19802868131142543,0.42827743175999355,7,True
2023-07-16,0.19802868131142543,0.1972563249034231,-0.39002249718953497,2,True
2023-07-17,0.1972563249034231,0.1959201585002104,-0.6773756957435317,3,True
2023-07-18,0.1959201585002104,0.19282040013223548,-1.5821538690576342,2,True
2023-07-19,0.19282040013223548,0.19186004933594938,-0.4980545604238329,1,True
2023-07-20,0.19186004933594938,0.1907599632249722,-0.5733794579875773,2,True
2023-07-21,0.1907599632249722,0.19063478179676646,-0.06562248497506973,0,True
2023-07-22,0.19063478179676646,0.19063478179676646,0.0,0,False
2023-07-23,0.19063478179676646,0.19063478179676646,0.0,0,False
2023-07-24,0.19063478179676646,0.1861807831096168,-2.336404010417159,7,True
2023-07-25,0.1861807831096168,0.18603419345787953,-0.07873511395156685,0,True
2023-07-26,0.18603419345787953,0.18603419345787953,0.0,0,False
2023-07-27,0.18603419345787953,0.18603419345787953,0.0,0,False
2023-07-28,0.18603419345787953,0.18603419345787953,0.0,0,False
2023-07-29,0.18603419345787953,0.18603419345787953,0.0,0,False
2023-07-30,0.18603419345787953,0.18603419345787953,0.0,0,False
2023-07-31,0.18603419345787953,0.18510820055640162,-0.49775414092763093,1,True
2023-08-01,0.18510820055640162,0.18722663066791784,1.1444280183960487,3,True
2023-08-02,0.18722663066791784,0.18722663066791784,0.0,0,False
2023-08-03,0.18722663066791784,0.18722663066791784,0.0,0,False
2023-08-04,0.18722663066791784,0.18722663066791784,0.0,0,False
2023-08-05,0.18722663066791784,0.18722663066791784,0.0,0,False
2023-08-06,0.18722663066791784,0.1875131593360766,0.15303841506766336,1,True
2023-08-07,0.1875131593360766,0.1852440465657963,-1.210108548282418,3,True
2023-08-08,0.1852440465657963,0.1810870857883493,-2.244045546678597,5,True
2023-08-09,0.1810870857883493,0.18014625774987963,-0.5195445243231234,0,True
2023-08-10,0.18014625774987963,0.17924896586481623,-0.49809077150479997,1,True
2023-08-11,0.17924896586481623,0.17924896586481623,0.0,0,False
2023-08-12,0.17924896586481623,0.17924896586481623,0.0,0,False
2023-08-13,0.17924896586481623,0.18227702704945034,1.6893046886071073,2,True
2023-08-14,0.18227702704945034,0.18107796327753684,-0.6578249554115234,8,True
2023-08-15,0.18107796327753684,0.1798363534828938,-0.6856769162683851,2,True
2023-08-16,0.1798363534828938,0.18277839633933107,1.6359555782013313,8,True
2023-08-17,0.18277839633933107,0.1797628964399119,-1.6498119908114672,6,True
2023-08-18,0.1797628964399119,0.18598554670905387,3.4615876759762854,10,True
2023-08-19,0.18598554670905387,0.18969038938607163,1.9920056921484575,3,True
2023-08-20,0.18969038938607163,0.1883225077316333,-0.7211127874561463,1,True
2023-08-21,0.1883225077316333,0.1876281989249767,-0.3686807355210209,1,True
2023-08-22,0.1876281989249767,0.18746575204469865,-0.08657913960097297,4,True
2023-08-23,0.18746575204469865,0.18945700354538111,1.0621948163671346,1,True
2023-08-24,0.18945700354538111,0.18945700354538111,0.0,0,False
2023-08-25,0.18945700354538111,0.19130070970601032,0.9731528136343481,10,True
2023-08-26,0.19130070970601032,0.1914268420161668,0.0659340523881502,0,True
2023-08-27,0.1914268420161668,0.1914268420161668,0.0,0,False
2023-08-28,0.1914268420161668,0.18952450434985738,-0.9937674603380686,2,True
2023-08-29,0.18952450434985738,0.19024482402314927,0.38006677593636073,3,True
2023-08-30,0.19024482402314927,0.18829226846288807,-1.0263383355037292,3,True
2023-08-31,0.18829226846288807,0.19005167686091565,0.9344028899276546,3,True
2023-09-01,0.19005167686091565,0.1881805582933885,-0.9845314697730756,3,True
2023-09-02,0.1881805582933885,0.18806260760088653,-0.06267953160075113,7,True
2023-09-03,0.18806260760088653,0.18620330356599823,-0.9886622644487475,3,True
2023-09-04,0.18620330356599823,0.18384548213920163,-1.2662618662728997,7,True
2023-09-05,0.18384548213920163,0.1832694005808721,-0.31335094647217954,2,True
2023-09-06,0.1832694005808721,0.18521888929221414,1.0637284266566738,5,True
2023-09-07,0.18521888929221414,0.18695852243457098,0.9392309547933131,3,True
2023-09-08,0.18695852243457098,0.18495920811449026,-1.069389238878049,9,True
2023-09-09,0.18495920811449026,0.18402745885238897,-0.5037593270428298,7,True
2023-09-10,0.18402745885238897,0.17807296438738848,-3.2356554299739937,7,True
2023-09-11,0.17807296438738848,0.1767071147782332,-0.7670168314736103,2,True
2023-09-12,0.1767071147782332,0.1773184025290406,0.3459327325753492,2,True
2023-09-13,0.1773184025290406,0.17643281131444427,-0.4994355926770111,2,True
2023-09-14,0.17643281131444427,0.17593566005532785,-0.2817793671214486,4,True
2023-09-15,0.17593566005532785,0.1788020051778726,1.6292007667140007,1,True
2023-09-16,0.1788020051778726,0.17998861409401914,0.6636440765673157,8,True
2023-09-17,0.17998861409401914,0.1810716786852434,0.6017406138026704,5,True
2023-09-18,0.1810716786852434,0.1757542494193729,-2.93664326993609,4,True
2023-09-19,0.1757542494193729,0.1772970577545833,0.8778213558461756,1,True
2023-09-20,0.1772970577545833,0.17848687784058387,0.6710884552001639,3,True
2023-09-21,0.17848687784058387,0.18128845992094167,1.5696291594388567,2,True
2023-09-22,0.18128845992094167,0.18161127537956534,0.1780672960454588,1,True
2023-09-23,0.18161127537956534,0.18070550980772762,-0.4987386217869316,1,True
2023-09-24,0.18070550980772762,0.17980575457654138,-0.49791245000972983,1,True
2023-09-25,0.17980575457654138,0.17969053820326908,-0.06407824574005128,1,True
2023-09-26,0.17969053820326908,0.17994138850159325,0.13960128386971693,1,True
2023-09-27,0.17994138850159325,0.1787098181985056,-0.6844285871878464,1,True
2023-09-28,0.1787098181985056,0.17946434595007177,0.4222083370529095,2,True
2023-09-29,0.17946434595007177,0.17832789020106238,-0.6332487620273941,2,True
2023-09-30,0.17832789020106238,0.17832789020106238,0.0,0,False
2023-10-01,0.17832789020106238,0.17811587516346042,-0.11889056577909507,1,True
2023-10-02,0.17811587516346042,0.17978583409848292,0.9375688346083377,1,True
2023-10-03,0.17978583409848292,0.18112528030154204,0.7450232159700532,3,True
2023-10-04,0.18112528030154204,0.1761167257196696,-2.7652432468477484,7,True
2023-10-05,0.1761167257196696,0.17427736578417233,-1.0443982125951212,2,True
2023-10-06,0.17427736578417233,0.17427150313018838,-0.003363978998405237,0,True
2023-10-07,0.17427150313018838,0.17340386863654284,-0.49786366563751017,1,True
2023-10-08,0.17340386863654284,0.17293371208714828,-0.2711338294187682,1,True
2023-10-09,0.17293371208714828,0.16935577726706372,-2.068963174908023,5,True
2023-10-10,0.16935577726706372,0.1674160567845436,-1.145352413612255,1,True
2023-10-11,0.1674160567845436,0.1674160567845436,0.0,0,False
2023-10-12,0.1674160567845436,0.1674160567845436,0.0,0,False
2023-10-13,0.1674160567845436,0.1674160567845436,0.0,0,False
2023-10-14,0.1674160567845436,0.1674160567845436,0.0,0,False
2023-10-15,0.1674160567845436,0.16739566522603141,-0.012180168917985679,1,True
2023-10-16,0.16739566522603141,0.1677998053227153,0.24142805378990495,2,True
2023-10-17,0.1677998053227153,0.16833710193624904,0.320200975501983,2,True
2023-10-18,0.16833710193624904,0.16611784508316785,-1.3183408930977358,4,True
2023-10-19,0.16611784508316785,0.16276725620709678,-2.016995148470402,5,True
2023-10-20,0.16276725620709678,0.16276725620709678,0.0,0,False
2023-10-21,0.16276725620709678,0.16287518903620174,0.06631114366615343,2,True
2023-10-22,0.16287518903620174,0.1640777346036029,0.7383233594491001,1,True
2023-10-23,0.1640777346036029,0.1640777346036029,0.0,0,False
2023-10-24,0.1640777346036029,0.16105063044631934,-1.8449207411333157,8,True
2023-10-25,0.16105063044631934,0.16678392230806013,3.559931337028699,9,True
2023-10-26,0.16678392230806013,0.1687770132574452,1.1950138369474894,7,True
2023-10-27,0.1687770132574452,0.1686960966133103,-0.047942929296584946,5,True
2023-10-28,0.1686960966133103,0.17116498735489014,1.4635138519174307,2,True
2023-10-29,0.17116498735489014,0.17116498735489014,0.0,0,False
2023-10-30,0.17116498735489014,0.1704654290568209,-0.4087040865540903,2,True
2023-10-31,0.1704654290568209,0.1674755280599956,-1.7539632600981458,7,True
2023-11-01,0.1674755280599956,0.16829505888333127,0.48934362699371015,5,True
2023-11-02,0.16829505888333127,0.16882365547382847,0.314089191925504,5,True
2023-11-03,0.16882365547382847,0.16611208440928102,-1.6061558772300089,2,True
2023-11-04,0.16611208440928102,0.16460780941564473,-0.9055783021360009,4,True
2023-11-05,0.16460780941564473,0.16284362416425097,-1.0717506402986632,7,True
2023-11-06,0.16284362416425097,0.16203484895834136,-0.4966575818122543,6,True
2023-11-07,0.16203484895834136,0.1612035566905286,-0.5130330130566407,5,True
2023-11-08,0.1612035566905286,0.1612035566905286,0.0,0,False
2023-11-09,0.1612035566905286,0.16161074323175895,0.25259153680587954,6,True
2023-11-10,0.16161074323175895,0.16061756974124225,-0.614546700705676,12,True
2023-11-11,0.16061756974124225,0.160191412928494,-0.2653239078606373,6,True
2023-11-12,0.160191412928494,0.1589729006394952,-0.7606601794209245,6,True
2023-11-13,0.1589729006394952,0.15979813259198158,0.5191022804306611,4,True
2023-11-14,0.15979813259198158,0.15829162406992747,-0.9427572760820291,8,True
2023-11-15,0.15829162406992747,0.15740919944916407,-0.557467665107525,3,True
2023-11-16,0.15740919944916407,0.15582982665596048,-1.003354822164415,5,True
2023-11-17,0.15582982665596048,0.1574513689675431,1.0405853271996834,5,True
2023-11-18,0.1574513689675431,0.15207510688940573,-3.4145540387430007,7,True
2023-11-19,0.15207510688940573,0.14889698883049785,-2.0898345060635926,4,True
2023-11-20,0.14889698883049785,0.1494324963575595,0.35964966871913084,2,True
2023-11-21,0.1494324963575595,0.14634526562514333,-2.0659701254197804,6,True
2023-11-22,0.14634526562514333,0.14508008512701742,-0.8645175453551146,6,True
2023-11-23,0.14508008512701742,0.14529031483850002,0.14490597472323063,3,True
2023-11-24,0.14529031483850002,0.14649765209768353,0.8309826160990408,1,True
2023-11-25,0.14649765209768353,0.14634897488848048,-0.1014877761344013,6,True
2023-11-26,0.14634897488848048,0.14589295459818868,-0.31159787121111115,1,True
2023-11-27,0.14589295459818868,0.14583732735302052,-0.03812880842763988,7,True
2023-11-28,0.14583732735302052,0.14608876820508035,0.1724118623287696,5,True
2023-11-29,0.14608876820508035,0.14695054565849294,0.5898998697852154,5,True
2023-11-30,0.14695054565849294,0.14499063456768807,-1.3337215469479302,3,True
2023-12-01,0.14499063456768807,0.1449448234739723,-0.031595898488445684,0,True
2023-12-02,0.1449448234739723,0.146265502066465,0.9111595439142084,1,True
2023-12-03,0.146265502066465,0.14713076897816693,0.591572790218664,5,True
2023-12-04,0.14713076897816693,0.1510989909446018,2.697071451467581,7,True
2023-12-05,0.1510989909446018,0.1498323928487633,-0.8382571504417902,7,True
2023-12-06,0.1498323928487633,0.14696076756480458,-1.9165583819096055,7,True
2023-12-07,0.14696076756480458,0.14528531261327163,-1.1400695432501329,5,True
2023-12-08,0.14528531261327163,0.14370171137748414,-1.089994031263719,2,True
2023-12-09,0.14370171137748414,0.14370171137748414,0.0,0,False
2023-12-10,0.14370171137748414,0.14367150395624848,-0.021020919616132616,3,True
2023-12-11,0.14367150395624848,0.1451588326313167,1.0352287225455337,7,True
2023-12-12,0.1451588326313167,0.14623909582094546,0.7441939081809013,1,True
2023-12-13,0.14623909582094546,0.1446587877680384,-1.0806330851785284,6,True
2023-12-14,0.1446587877680384,0.1468854859552009,1.5392761279964695,2,True
2023-12-15,0.1468854859552009,0.14500520604611833,-1.2800991853313848,4,True
2023-12-16,0.14500520604611833,0.14675745742462393,1.208405840234672,5,True
2023-12-17,0.14675745742462393,0.14550729683671546,-0.8518548970845807,6,True
2023-12-18,0.14550729683671546,0.14539565353026812,-0.07672694694659254,8,True
2023-12-19,0.14539565353026812,0.14407085219777613,-0.911169832333536,4,True
2023-12-20,0.14407085219777613,0.14323969916107343,-0.5769057543726586,2,True
2023-12-21,0.14323969916107343,0.14046922071423604,-1.9341554492668833,3,True
2023-12-22,0.14046922071423604,0.13961118267490388,-0.6108370466991531,2,True
2023-12-23,0.13961118267490388,0.13980504684685685,0.13886005994547812,3,True
2023-12-24,0.13980504684685685,0.14476001406565794,3.5441976742290215,4,True
2023-12-25,0.14476001406565794,0.14283923560417147,-1.3268708723772837,6,True
2023-12-26,0.14283923560417147,0.1399380046167449,-2.031116293191526,3,True
2023-12-27,0.1399380046167449,0.13978935546904572,-0.10622500164004789,12,True
2023-12-28,0.13978935546904572,0.13686215274542218,-2.094009743303904,8,True
2023-12-29,0.13686215274542218,0.1369390582244621,0.056191925596094094,3,True
2023-12-30,0.1369390582244621,0.137066367337341,0.0929677146386032,5,True
2023-12-31,0.137066367337341,0.13532681494158083,-1.269131464963158,3,True
