day,start_equity,end_equity,return_pct,entries,active
2024-01-02,1.0,0.9990134675237569,-0.09865324762431404,1,True
2024-01-03,0.9990134675237569,0.9904518335542647,-0.8570088640260098,8,True
2024-01-04,0.9904518335542647,1.0109190142931945,2.0664488716713114,5,True
2024-01-05,1.0109190142931945,0.9935651663624732,-1.716640767990174,4,True
2024-01-06,0.9935651663624732,0.9835792893168576,-1.0050550667124125,7,True
2024-01-07,0.9835792893168576,0.9820541096200074,-0.15506423461899566,3,True
2024-01-08,0.9820541096200074,0.9617950719634313,-2.0629247877609336,4,True
2024-01-09,0.9617950719634313,0.9617950719634313,0.0,0,False
2024-01-10,0.9617950719634313,0.9546429268452843,-0.743624637579654,4,True
2024-01-11,0.9546429268452843,0.9664202397395262,1.2336877551862413,3,True
2024-01-12,0.9664202397395262,0.9455439431343193,-2.160167569631355,3,True
2024-01-13,0.9455439431343193,0.9416021267807304,-0.4168834650373321,6,True
2024-01-14,0.9416021267807304,0.9466915369798975,0.5405053848558605,0,True
2024-01-15,0.9466915369798975,0.9414528764858385,-0.5533650919465449,2,True
2024-01-16,0.9414528764858385,0.9426156978954949,0.12351350117456583,1,True
2024-01-17,0.9426156978954949,0.9479229807292106,0.5630378154708016,0,True
2024-01-18,0.9479229807292106,0.9471737625047032,-0.07903787963142728,1,True
2024-01-19,0.9471737625047032,0.9384793763391596,-0.9179293715392056,1,True
2024-01-20,0.9384793763391596,0.9610613535332575,2.4062305217815494,7,True
2024-01-21,0.9610613535332575,0.9740246315534206,1.3488502032159344,1,True
2024-01-22,0.9740246315534206,0.9540401468250436,-2.051743259973293,4,True
2024-01-23,0.9540401468250436,0.9320198002947239,-2.3081152930095605,8,True
2024-01-24,0.9320198002947239,0.9314220670506291,-0.06413310574578945,1,True
2024-01-25,0.9314220670506291,0.9219141353174202,-1.020797345216018,2,True
2024-01-26,0.9219141353174202,0.9219141353174202,0.0,0,False
2024-01-27,0.9219141353174202,0.9219141353174202,0.0,0,False
2024-01-28,0.9219141353174202,0.9189755904038627,-0.31874388307819856,2,True
2024-01-29,0.9189755904038627,0.9189052523813174,-0.007653959830900003,0,True
2024-01-30,0.9189052523813174,0.9189052523813174,0.0,0,False
2024-01-31,0.9189052523813174,0.9143215871140353,-0.4988180506536044,1,True
2024-02-01,0.9143215871140353,0.9143215871140353,0.0,0,False
2024-02-02,0.9143215871140353,0.912748760093249,-0.17202120599063564,2,True
2024-02-03,0.912748760093249,0.9204538164855636,0.8441596120631667,1,True
2024-02-04,0.9204538164855636,0.9198264999108128,-0.06815296579962826,1,True
2024-02-05,0.9198264999108128,0.9198264999108128,0.0,0,False
2024-02-06,0.9198264999108128,0.9167390283256887,-0.3356580382739005,2,True
2024-02-07,0.9167390283256887,0.9145552560234481,-0.23821090133240297,4,True
2024-02-08,0.9145552560234481,0.9271863768054037,1.3811216652864333,1,True
2024-02-09,0.9271863768054037,0.9271863768054037,0.0,0,False
2024-02-10,0.9271863768054037,0.9244436240154752,-0.295814612740386,2,True
2024-02-11,0.9244436240154752,0.9235387430100789,-0.09788384947324591,0,True
2024-02-12,0.9235387430100789,0.9245661993243389,0.11125210740063896,1,True
2024-02-13,0.9245661993243389,0.9246011430069816,0.003779467891873445,0,True
2024-02-14,0.9246011430069816,0.9254558050511659,0.09243575466548748,2,True
2024-02-15,0.9254558050511659,0.9272345847237067,0.1922057933865906,1,True
2024-02-16,0.9272345847237067,0.9288186732263338,0.17084010117021098,3,True
2024-02-17,0.9288186732263338,0.9306400697359237,0.19609817955781317,5,True
2024-02-18,0.9306400697359237,0.9324356392244806,0.19293919818714755,1,True
2024-02-19,0.9324356392244806,0.9331394824722498,0.07548437856306212,2,True
2024-02-20,0.9331394824722498,0.9327762004328998,-0.03893116154377596,8,True
2024-02-21,0.9327762004328998,0.9260902741772733,-0.7167771060757722,7,True
2024-02-22,0.9260902741772733,0.9416754155935354,1.6828965653599814,3,True
2024-02-23,0.9416754155935354,0.942558004511377,0.09372538596914559,3,True
2024-02-24,0.942558004511377,0.9410323601419249,-0.1618621201188497,5,True
2024-02-25,0.9410323601419249,0.9370221770570274,-0.4261472033005087,4,True
2024-02-26,0.9370221770570274,0.9347398060021193,-0.24357705834417986,5,True
2024-02-27,0.9347398060021193,0.9341509104258222,-0.0630010161668193,3,True
2024-02-28,0.9341509104258222,0.9394230478226966,0.5643774831275428,5,True
2024-02-29,0.9394230478226966,0.9412428974212286,0.19371992232357638,8,True
2024-03-01,0.9412428974212286,0.9398244570353014,-0.15069865491823542,5,True
2024-03-02,0.9398244570353014,0.9426632849732391,0.3020593810564298,4,True
2024-03-03,0.9426632849732391,0.944732828291554,0.21954215797994614,9,True
2024-03-04,0.944732828291554,0.9533623916471853,0.9134395563703324,1,True
2024-03-05,0.9533623916471853,0.9533573496179079,-0.0005288680696491355,9,True
2024-03-06,0.9533573496179079,0.948515107890159,-0.5079146586208783,16,True
2024-03-07,0.948515107890159,0.9468343038813551,-0.17720371503018306,5,True
2024-03-08,0.9468343038813551,0.9491055362989521,0.23987643965650562,5,True
2024-03-09,0.9491055362989521,0.9432375671257011,-0.6182630854871252,5,True
2024-03-10,0.9432375671257011,0.9425918026112932,-0.06846255248036393,8,True
2024-03-11,0.9425918026112932,0.9435024737669986,0.09661352381620247,3,True
2024-03-12,0.9435024737669986,0.9479836354355815,0.4749496469989678,4,True
2024-03-13,0.9479836354355815,0.9521697331622296,0.44157911277915574,5,True
2024-03-14,0.9521697331622296,0.9536716553979011,0.15773681764525982,5,True
2024-03-15,0.9536716553979011,0.931940230596421,-2.278711407482603,10,True
2024-03-16,0.931940230596421,0.9328477357900299,0.09737804676897,3,True
2024-03-17,0.9328477357900299,0.927887228522406,-0.5317595870480196,7,True
2024-03-18,0.927887228522406,0.9307166053277363,0.30492679695957037,4,True
2024-03-19,0.9307166053277363,0.9245623515452512,-0.6612382058358013,14,True
2024-03-20,0.9245623515452512,0.9184454295312372,-0.6616018923754186,4,True
2024-03-21,0.9184454295312372,0.9182697294816341,-0.019130156670577048,4,True
2024-03-22,0.9182697294816341,0.9241389972378524,0.6391659844359188,8,True
2024-03-23,0.9241389972378524,0.9331482608788784,0.9748818811838422,5,True
2024-03-24,0.9331482608788784,0.9313210686479735,-0.19580942359405107,4,True
2024-03-25,0.9313210686479735,0.9389207979909111,0.8160160441737174,4,True
2024-03-26,0.9389207979909111,0.9459488963298647,0.7485294131296394,5,True
2024-03-27,0.9459488963298647,0.9441259515921226,-0.1927106997867245,6,True
2024-03-28,0.9441259515921226,0.938800746577819,-0.5640354451991847,2,True
2024-03-29,0.938800746577819,0.9366490522103558,-0.22919606479934185,6,True
2024-03-30,0.9366490522103558,0.9321010310919329,-0.4855629872992706,2,True
2024-03-31,0.9321010310919329,0.9320589437062902,-0.004515324437892598,0,True
2024-04-01,0.9320589437062902,0.9313987778854205,-0.07082876306562236,5,True
2024-04-02,0.9313987778854205,0.9174282771413359,-1.4999483653824641,5,True
2024-04-03,0.9174282771413359,0.9067204539288352,-1.1671564392876421,3,True
2024-04-04,0.9067204539288352,0.9064373079644448,-0.031227481762818865,1,True
2024-04-05,0.9064373079644448,0.9038846205001143,-0.2816176520870406,5,True
2024-04-06,0.9038846205001143,0.9030069029900759,-0.09710503864450715,1,True
2024-04-07,0.9030069029900759,0.9100229012282811,0.7769595354114811,3,True
2024-04-08,0.9100229012282811,0.9074268649106961,-0.2852715370218806,1,True
2024-04-09,0.9074268649106961,0.9018807622860191,-0.611190040667664,3,True
2024-04-10,0.9018807622860191,0.8989739160352352,-0.32230937528989756,5,True
2024-04-11,0.8989739160352352,0.9025168784175205,0.39411181115363014,1,True
2024-04-12,0.9025168784175205,0.9011937311159346,-0.14660637747915262,9,True
2024-04-13,0.9011937311159346,0.8884424763806942,-1.4149293647938155,11,True
2024-04-14,0.8884424763806942,0.8646229424921291,-2.6810440204975583,10,True
2024-04-15,0.8646229424921291,0.8623062323980244,-0.26794455481683466,4,True
2024-04-16,0.8623062323980244,0.8623062323980244,0.0,0,False
2024-04-17,0.8623062323980244,0.8623062323980244,0.0,0,False
2024-04-18,0.8623062323980244,0.8623062323980244,0.0,0,False
2024-04-19,0.8623062323980244,0.8623062323980244,0.0,0,False
2024-04-20,0.8623062323980244,0.8623062323980244,0.0,0,False
2024-04-21,0.8623062323980244,0.8623062323980244,0.0,0,False
2024-04-22,0.8623062323980244,0.8623062323980244,0.0,0,False
2024-04-23,0.8623062323980244,0.8623062323980244,0.0,0,False
2024-04-24,0.8623062323980244,0.8623062323980244,0.0,0,False
2024-04-25,0.8623062323980244,0.8623062323980244,0.0,0,False
2024-04-26,0.8623062323980244,0.8623062323980244,0.0,0,False
2024-04-27,0.8623062323980244,0.8623062323980244,0.0,0,False
2024-04-28,0.8623062323980244,0.8623062323980244,0.0,0,False
2024-04-29,0.8623062323980244,0.8623062323980244,0.0,0,False
2024-04-30,0.8623062323980244,0.8623062323980244,0.0,0,False
2024-05-01,0.8623062323980244,0.8623062323980244,0.0,0,False
2024-05-02,0.8623062323980244,0.8623062323980244,0.0,0,False
2024-05-03,0.8623062323980244,0.8623062323980244,0.0,0,False
2024-05-04,0.8623062323980244,0.8623062323980244,0.0,0,False
2024-05-05,0.8623062323980244,0.8623062323980244,0.0,0,False
2024-05-06,0.8623062323980244,0.8623062323980244,0.0,0,False
2024-05-07,0.8623062323980244,0.8623062323980244,0.0,0,False
2024-05-08,0.8623062323980244,0.8623062323980244,0.0,0,False
2024-05-09,0.8623062323980244,0.8623062323980244,0.0,0,False
2024-05-10,0.8623062323980244,0.8623062323980244,0.0,0,False
2024-05-11,0.8623062323980244,0.8623062323980244,0.0,0,False
2024-05-12,0.8623062323980244,0.8623062323980244,0.0,0,False
2024-05-13,0.8623062323980244,0.8623062323980244,0.0,0,False
2024-05-14,0.8623062323980244,0.8623062323980244,0.0,0,False
2024-05-15,0.8623062323980244,0.8623062323980244,0.0,0,False
2024-05-16,0.8623062323980244,0.8623062323980244,0.0,0,False
2024-05-17,0.8623062323980244,0.8623062323980244,0.0,0,False
2024-05-18,0.8623062323980244,0.8623062323980244,0.0,0,False
2024-05-19,0.8623062323980244,0.8623062323980244,0.0,0,False
2024-05-20,0.8623062323980244,0.8623062323980244,0.0,0,False
2024-05-21,0.8623062323980244,0.8623062323980244,0.0,0,False
2024-05-22,0.8623062323980244,0.8623062323980244,0.0,0,False
2024-05-23,0.8623062323980244,0.8623062323980244,0.0,0,False
2024-05-24,0.8623062323980244,0.8623062323980244,0.0,0,False
2024-05-25,0.8623062323980244,0.8623062323980244,0.0,0,False
2024-05-26,0.8623062323980244,0.8623062323980244,0.0,0,False
2024-05-27,0.8623062323980244,0.8623062323980244,0.0,0,False
2024-05-28,0.8623062323980244,0.8623062323980244,0.0,0,False
2024-05-29,0.8623062323980244,0.8623062323980244,0.0,0,False
2024-05-30,0.8623062323980244,0.8623062323980244,0.0,0,False
2024-05-31,0.8623062323980244,0.8623062323980244,0.0,0,False
2024-06-01,0.8623062323980244,0.8623062323980244,0.0,0,False
2024-06-02,0.8623062323980244,0.8623062323980244,0.0,0,False
2024-06-03,0.8623062323980244,0.8623062323980244,0.0,0,False
2024-06-04,0.8623062323980244,0.8623062323980244,0.0,0,False
2024-06-05,0.8623062323980244,0.8623062323980244,0.0,0,False
2024-06-06,0.8623062323980244,0.8623062323980244,0.0,0,False
2024-06-07,0.8623062323980244,0.8623062323980244,0.0,0,False
2024-06-08,0.8623062323980244,0.8623062323980244,0.0,0,False
2024-06-09,0.8623062323980244,0.8623062323980244,0.0,0,False
2024-06-10,0.8623062323980244,0.8623062323980244,0.0,0,False
2024-06-11,0.8623062323980244,0.8623062323980244,0.0,0,False
2024-06-12,0.8623062323980244,0.8623062323980244,0.0,0,False
2024-06-13,0.8623062323980244,0.8623062323980244,0.0,0,False
2024-06-14,0.8623062323980244,0.8623062323980244,0.0,0,False
2024-06-15,0.8623062323980244,0.8623062323980244,0.0,0,False
2024-06-16,0.8623062323980244,0.8623062323980244,0.0,0,False
2024-06-17,0.8623062323980244,0.8623062323980244,0.0,0,False
2024-06-18,0.8623062323980244,0.8623062323980244,0.0,0,False
2024-06-19,0.8623062323980244,0.8623062323980244,0.0,0,False
2024-06-20,0.8623062323980244,0.8623062323980244,0.0,0,False
2024-06-21,0.8623062323980244,0.8623062323980244,0.0,0,False
2024-06-22,0.8623062323980244,0.8623062323980244,0.0,0,False
2024-06-23,0.8623062323980244,0.8623062323980244,0.0,0,False
2024-06-24,0.8623062323980244,0.8623062323980244,0.0,0,False
2024-06-25,0.8623062323980244,0.8623062323980244,0.0,0,False
2024-06-26,0.8623062323980244,0.8623062323980244,0.0,0,False
2024-06-27,0.8623062323980244,0.8623062323980244,0.0,0,False
2024-06-28,0.8623062323980244,0.8623062323980244,0.0,0,False
2024-06-29,0.8623062323980244,0.8623062323980244,0.0,0,False
2024-06-30,0.8623062323980244,0.8623062323980244,0.0,0,False
2024-07-01,0.8623062323980244,0.8623062323980244,0.0,0,False
2024-07-02,0.8623062323980244,0.8623062323980244,0.0,0,False
2024-07-03,0.8623062323980244,0.8623062323980244,0.0,0,False
2024-07-04,0.8623062323980244,0.8623062323980244,0.0,0,False
2024-07-05,0.8623062323980244,0.8623062323980244,0.0,0,False
2024-07-06,0.8623062323980244,0.8623062323980244,0.0,0,False
2024-07-07,0.8623062323980244,0.8623062323980244,0.0,0,False
2024-07-08,0.8623062323980244,0.8623062323980244,0.0,0,False
2024-07-09,0.8623062323980244,0.8623062323980244,0.0,0,False
2024-07-10,0.8623062323980244,0.8623062323980244,0.0,0,False
2024-07-11,0.8623062323980244,0.8623062323980244,0.0,0,False
2024-07-12,0.8623062323980244,0.8623062323980244,0.0,0,False
2024-07-13,0.8623062323980244,0.8623062323980244,0.0,0,False
2024-07-14,0.8623062323980244,0.8623062323980244,0.0,0,False
2024-07-15,0.8623062323980244,0.8623062323980244,0.0,0,False
2024-07-16,0.8623062323980244,0.8623062323980244,0.0,0,False
2024-07-17,0.8623062323980244,0.8623062323980244,0.0,0,False
2024-07-18,0.8623062323980244,0.8623062323980244,0.0,0,False
2024-07-19,0.8623062323980244,0.8623062323980244,0.0,0,False
2024-07-20,0.8623062323980244,0.8623062323980244,0.0,0,False
2024-07-21,0.8623062323980244,0.8623062323980244,0.0,0,False
2024-07-22,0.8623062323980244,0.8623062323980244,0.0,0,False
2024-07-23,0.8623062323980244,0.8623062323980244,0.0,0,False
2024-07-24,0.8623062323980244,0.8623062323980244,0.0,0,False
2024-07-25,0.8623062323980244,0.8623062323980244,0.0,0,False
2024-07-26,0.8623062323980244,0.8623062323980244,0.0,0,False
2024-07-27,0.8623062323980244,0.8623062323980244,0.0,0,False
2024-07-28,0.8623062323980244,0.8623062323980244,0.0,0,False
2024-07-29,0.8623062323980244,0.8623062323980244,0.0,0,False
2024-07-30,0.8623062323980244,0.8623062323980244,0.0,0,False
2024-07-31,0.8623062323980244,0.8623062323980244,0.0,0,False
2024-08-01,0.8623062323980244,0.8623062323980244,0.0,0,False
2024-08-02,0.8623062323980244,0.8623062323980244,0.0,0,False
2024-08-03,0.8623062323980244,0.8623062323980244,0.0,0,False
2024-08-04,0.8623062323980244,0.8623062323980244,0.0,0,False
2024-08-05,0.8623062323980244,0.8623062323980244,0.0,0,False
2024-08-06,0.8623062323980244,0.8623062323980244,0.0,0,False
2024-08-07,0.8623062323980244,0.8623062323980244,0.0,0,False
2024-08-08,0.8623062323980244,0.8623062323980244,0.0,0,False
2024-08-09,0.8623062323980244,0.8623062323980244,0.0,0,False
2024-08-10,0.8623062323980244,0.8623062323980244,0.0,0,False
2024-08-11,0.8623062323980244,0.8623062323980244,0.0,0,False
2024-08-12,0.8623062323980244,0.8623062323980244,0.0,0,False
2024-08-13,0.8623062323980244,0.8623062323980244,0.0,0,False
2024-08-14,0.8623062323980244,0.8623062323980244,0.0,0,False
2024-08-15,0.8623062323980244,0.8623062323980244,0.0,0,False
2024-08-16,0.8623062323980244,0.8623062323980244,0.0,0,False
2024-08-17,0.8623062323980244,0.8623062323980244,0.0,0,False
2024-08-18,0.8623062323980244,0.8623062323980244,0.0,0,False
2024-08-19,0.8623062323980244,0.8623062323980244,0.0,0,False
2024-08-20,0.8623062323980244,0.8623062323980244,0.0,0,False
2024-08-21,0.8623062323980244,0.8623062323980244,0.0,0,False
2024-08-22,0.8623062323980244,0.8623062323980244,0.0,0,False
2024-08-23,0.8623062323980244,0.8623062323980244,0.0,0,False
2024-08-24,0.8623062323980244,0.8623062323980244,0.0,0,False
2024-08-25,0.8623062323980244,0.8623062323980244,0.0,0,False
2024-08-26,0.8623062323980244,0.8623062323980244,0.0,0,False
2024-08-27,0.8623062323980244,0.8623062323980244,0.0,0,False
2024-08-28,0.8623062323980244,0.8623062323980244,0.0,0,False
2024-08-29,0.8623062323980244,0.8623062323980244,0.0,0,False
2024-08-30,0.8623062323980244,0.8623062323980244,0.0,0,False
2024-08-31,0.8623062323980244,0.8623062323980244,0.0,0,False
2024-09-01,0.8623062323980244,0.8623062323980244,0.0,0,False
2024-09-02,0.8623062323980244,0.8623062323980244,0.0,0,False
2024-09-03,0.8623062323980244,0.8623062323980244,0.0,0,False
2024-09-04,0.8623062323980244,0.8623062323980244,0.0,0,False
2024-09-05,0.8623062323980244,0.8623062323980244,0.0,0,False
2024-09-06,0.8623062323980244,0.8623062323980244,0.0,0,False
2024-09-07,0.8623062323980244,0.8623062323980244,0.0,0,False
2024-09-08,0.8623062323980244,0.8623062323980244,0.0,0,False
2024-09-09,0.8623062323980244,0.8623062323980244,0.0,0,False
2024-09-10,0.8623062323980244,0.8623062323980244,0.0,0,False
2024-09-11,0.8623062323980244,0.8623062323980244,0.0,0,False
2024-09-12,0.8623062323980244,0.8623062323980244,0.0,0,False
2024-09-13,0.8623062323980244,0.8623062323980244,0.0,0,False
2024-09-14,0.8623062323980244,0.8623062323980244,0.0,0,False
2024-09-15,0.8623062323980244,0.8623062323980244,0.0,0,False
2024-09-16,0.8623062323980244,0.8623062323980244,0.0,0,False
2024-09-17,0.8623062323980244,0.8623062323980244,0.0,0,False
2024-09-18,0.8623062323980244,0.8623062323980244,0.0,0,False
2024-09-19,0.8623062323980244,0.8623062323980244,0.0,0,False
2024-09-20,0.8623062323980244,0.8623062323980244,0.0,0,False
2024-09-21,0.8623062323980244,0.8623062323980244,0.0,0,False
2024-09-22,0.8623062323980244,0.8623062323980244,0.0,0,False
2024-09-23,0.8623062323980244,0.8623062323980244,0.0,0,False
2024-09-24,0.8623062323980244,0.8623062323980244,0.0,0,False
2024-09-25,0.8623062323980244,0.8623062323980244,0.0,0,False
2024-09-26,0.8623062323980244,0.8623062323980244,0.0,0,False
2024-09-27,0.8623062323980244,0.8623062323980244,0.0,0,False
2024-09-28,0.8623062323980244,0.8623062323980244,0.0,0,False
2024-09-29,0.8623062323980244,0.8623062323980244,0.0,0,False
2024-09-30,0.8623062323980244,0.8623062323980244,0.0,0,False
2024-10-01,0.8623062323980244,0.8623062323980244,0.0,0,False
2024-10-02,0.8623062323980244,0.8623062323980244,0.0,0,False
2024-10-03,0.8623062323980244,0.8623062323980244,0.0,0,False
2024-10-04,0.8623062323980244,0.8623062323980244,0.0,0,False
2024-10-05,0.8623062323980244,0.8623062323980244,0.0,0,False
2024-10-06,0.8623062323980244,0.8623062323980244,0.0,0,False
2024-10-07,0.8623062323980244,0.8623062323980244,0.0,0,False
2024-10-08,0.8623062323980244,0.8623062323980244,0.0,0,False
2024-10-09,0.8623062323980244,0.8623062323980244,0.0,0,False
2024-10-10,0.8623062323980244,0.8623062323980244,0.0,0,False
2024-10-11,0.8623062323980244,0.8623062323980244,0.0,0,False
2024-10-12,0.8623062323980244,0.8623062323980244,0.0,0,False
2024-10-13,0.8623062323980244,0.8623062323980244,0.0,0,False
2024-10-14,0.8623062323980244,0.8623062323980244,0.0,0,False
2024-10-15,0.8623062323980244,0.8623062323980244,0.0,0,False
2024-10-16,0.8623062323980244,0.8623062323980244,0.0,0,False
2024-10-17,0.8623062323980244,0.8623062323980244,0.0,0,False
2024-10-18,0.8623062323980244,0.8623062323980244,0.0,0,False
2024-10-19,0.8623062323980244,0.8623062323980244,0.0,0,False
2024-10-20,0.8623062323980244,0.8623062323980244,0.0,0,False
2024-10-21,0.8623062323980244,0.8623062323980244,0.0,0,False
2024-10-22,0.8623062323980244,0.8623062323980244,0.0,0,False
2024-10-23,0.8623062323980244,0.8623062323980244,0.0,0,False
2024-10-24,0.8623062323980244,0.8623062323980244,0.0,0,False
2024-10-25,0.8623062323980244,0.8623062323980244,0.0,0,False
2024-10-26,0.8623062323980244,0.8623062323980244,0.0,0,False
2024-10-27,0.8623062323980244,0.8623062323980244,0.0,0,False
2024-10-28,0.8623062323980244,0.8623062323980244,0.0,0,False
2024-10-29,0.8623062323980244,0.8623062323980244,0.0,0,False
2024-10-30,0.8623062323980244,0.8623062323980244,0.0,0,False
2024-10-31,0.8623062323980244,0.8623062323980244,0.0,0,False
2024-11-01,0.8623062323980244,0.8623062323980244,0.0,0,False
2024-11-02,0.8623062323980244,0.8623062323980244,0.0,0,False
2024-11-03,0.8623062323980244,0.8623062323980244,0.0,0,False
2024-11-04,0.8623062323980244,0.8623062323980244,0.0,0,False
2024-11-05,0.8623062323980244,0.8623062323980244,0.0,0,False
2024-11-06,0.8623062323980244,0.8623062323980244,0.0,0,False
2024-11-07,0.8623062323980244,0.8623062323980244,0.0,0,False
2024-11-08,0.8623062323980244,0.8623062323980244,0.0,0,False
2024-11-09,0.8623062323980244,0.8623062323980244,0.0,0,False
2024-11-10,0.8623062323980244,0.8623062323980244,0.0,0,False
2024-11-11,0.8623062323980244,0.8623062323980244,0.0,0,False
2024-11-12,0.8623062323980244,0.8623062323980244,0.0,0,False
2024-11-13,0.8623062323980244,0.8623062323980244,0.0,0,False
2024-11-14,0.8623062323980244,0.8623062323980244,0.0,0,False
2024-11-15,0.8623062323980244,0.8623062323980244,0.0,0,False
2024-11-16,0.8623062323980244,0.8623062323980244,0.0,0,False
2024-11-17,0.8623062323980244,0.8623062323980244,0.0,0,False
2024-11-18,0.8623062323980244,0.8623062323980244,0.0,0,False
2024-11-19,0.8623062323980244,0.8623062323980244,0.0,0,False
2024-11-20,0.8623062323980244,0.8623062323980244,0.0,0,False
2024-11-21,0.8623062323980244,0.8623062323980244,0.0,0,False
2024-11-22,0.8623062323980244,0.8623062323980244,0.0,0,False
2024-11-23,0.8623062323980244,0.8623062323980244,0.0,0,False
2024-11-24,0.8623062323980244,0.8623062323980244,0.0,0,False
2024-11-25,0.8623062323980244,0.8623062323980244,0.0,0,False
2024-11-26,0.8623062323980244,0.8623062323980244,0.0,0,False
2024-11-27,0.8623062323980244,0.8623062323980244,0.0,0,False
2024-11-28,0.8623062323980244,0.8623062323980244,0.0,0,False
2024-11-29,0.8623062323980244,0.8623062323980244,0.0,0,False
2024-11-30,0.8623062323980244,0.8623062323980244,0.0,0,False
2024-12-01,0.8623062323980244,0.8623062323980244,0.0,0,False
2024-12-02,0.8623062323980244,0.8623062323980244,0.0,0,False
2024-12-03,0.8623062323980244,0.8623062323980244,0.0,0,False
2024-12-04,0.8623062323980244,0.8623062323980244,0.0,0,False
2024-12-05,0.8623062323980244,0.8623062323980244,0.0,0,False
2024-12-06,0.8623062323980244,0.8623062323980244,0.0,0,False
2024-12-07,0.8623062323980244,0.8623062323980244,0.0,0,False
2024-12-08,0.8623062323980244,0.8623062323980244,0.0,0,False
2024-12-09,0.8623062323980244,0.8623062323980244,0.0,0,False
2024-12-10,0.8623062323980244,0.8623062323980244,0.0,0,False
2024-12-11,0.8623062323980244,0.8623062323980244,0.0,0,False
2024-12-12,0.8623062323980244,0.8623062323980244,0.0,0,False
2024-12-13,0.8623062323980244,0.8623062323980244,0.0,0,False
2024-12-14,0.8623062323980244,0.8623062323980244,0.0,0,False
2024-12-15,0.8623062323980244,0.8623062323980244,0.0,0,False
2024-12-16,0.8623062323980244,0.8623062323980244,0.0,0,False
2024-12-17,0.8623062323980244,0.8623062323980244,0.0,0,False
2024-12-18,0.8623062323980244,0.8623062323980244,0.0,0,False
2024-12-19,0.8623062323980244,0.8623062323980244,0.0,0,False
2024-12-20,0.8623062323980244,0.8623062323980244,0.0,0,False
2024-12-21,0.8623062323980244,0.8623062323980244,0.0,0,False
2024-12-22,0.8623062323980244,0.8623062323980244,0.0,0,False
2024-12-23,0.8623062323980244,0.8623062323980244,0.0,0,False
2024-12-24,0.8623062323980244,0.8623062323980244,0.0,0,False
2024-12-25,0.8623062323980244,0.8623062323980244,0.0,0,False
2024-12-26,0.8623062323980244,0.8623062323980244,0.0,0,False
2024-12-27,0.8623062323980244,0.8623062323980244,0.0,0,False
2024-12-28,0.8623062323980244,0.8623062323980244,0.0,0,False
2024-12-29,0.8623062323980244,0.8623062323980244,0.0,0,False
2024-12-30,0.8623062323980244,0.8623062323980244,0.0,0,False
2024-12-31,0.8623062323980244,0.8623062323980244,0.0,0,False
