day,start_equity,end_equity,return_pct,entries,active
2021-09-02,1.0,1.0,0.0,0,False
2021-09-03,1.0,1.0,0.0,0,False
2021-09-04,1.0,1.0,0.0,0,False
2021-09-05,1.0,1.0,0.0,0,False
2021-09-06,1.0,1.0,0.0,0,False
2021-09-07,1.0,1.0,0.0,0,False
2021-09-08,1.0,1.0,0.0,0,False
2021-09-09,1.0,1.0,0.0,0,False
2021-09-10,1.0,1.0,0.0,0,False
2021-09-11,1.0,1.0,0.0,0,False
2021-09-12,1.0,1.0,0.0,0,False
2021-09-13,1.0,1.0,0.0,0,False
2021-09-14,1.0,1.0,0.0,0,False
2021-09-15,1.0,1.0,0.0,0,False
2021-09-16,1.0,1.0,0.0,0,False
2021-09-17,1.0,1.0,0.0,0,False
2021-09-18,1.0,1.0,0.0,0,False
2021-09-19,1.0,1.0,0.0,0,False
2021-09-20,1.0,1.0,0.0,0,False
2021-09-21,1.0,1.0,0.0,0,False
2021-09-22,1.0,1.0,0.0,0,False
2021-09-23,1.0,1.0,0.0,0,False
2021-09-24,1.0,1.0,0.0,0,False
2021-09-25,1.0,1.0,0.0,0,False
2021-09-26,1.0,1.0,0.0,0,False
2021-09-27,1.0,1.0,0.0,0,False
2021-09-28,1.0,1.0,0.0,0,False
2021-09-29,1.0,1.0,0.0,0,False
2021-09-30,1.0,1.0,0.0,0,False
2021-10-01,1.0,1.0,0.0,0,False
2021-10-02,1.0,1.0,0.0,0,False
2021-10-03,1.0,1.0,0.0,0,False
2021-10-04,1.0,1.0,0.0,0,False
2021-10-05,1.0,1.0,0.0,0,False
2021-10-06,1.0,0.9979076339734806,-0.209236602651941,1,True
2021-10-07,0.9979076339734806,0.9979076339734806,0.0,0,False
2021-10-08,0.9979076339734806,0.9979076339734806,0.0,0,False
2021-10-09,0.9979076339734806,0.9959728762708805,-0.19388144120074946,3,True
2021-10-10,0.9959728762708805,0.9900453248315004,-0.595151894253787,1,True
2021-10-11,0.9900453248315004,0.9900453248315004,0.0,0,False
2021-10-12,0.9900453248315004,0.9900453248315004,0.0,0,False
2021-10-13,0.9900453248315004,1.0036689428804937,1.3760600355657404,4,True
2021-10-14,1.0036689428804937,1.0187633232526874,1.5039202397628681,0,True
2021-10-15,1.0187633232526874,1.0219075511519133,0.3086318311094294,1,True
2021-10-16,1.0219075511519133,1.0378921685918907,1.564194082131909,0,True
2021-10-17,1.0378921685918907,1.0378921685918907,0.0,0,False
2021-10-18,1.0378921685918907,1.0390057486991515,0.10729246649694435,1,True
2021-10-19,1.0390057486991515,1.0390057486991515,0.0,0,False
2021-10-20,1.0390057486991515,1.0390057486991515,0.0,0,False
2021-10-21,1.0390057486991515,1.0390057486991515,0.0,0,False
2021-10-22,1.0390057486991515,1.0390057486991515,0.0,0,False
2021-10-23,1.0390057486991515,1.0390057486991515,0.0,0,False
2021-10-24,1.0390057486991515,1.0390057486991515,0.0,0,False
2021-10-25,1.0390057486991515,1.0416681319684604,0.2562433627188554,1,True
2021-10-26,1.0416681319684604,1.0416681319684604,0.0,0,False
2021-10-27,1.0416681319684604,1.0394948583830605,-0.2086339707151219,6,True
2021-10-28,1.0394948583830605,1.0365838455410488,-0.2800411005918657,0,True
2021-10-29,1.0365838455410488,1.0365838455410488,0.0,0,False
2021-10-30,1.0365838455410488,1.0365838455410488,0.0,0,False
2021-10-31,1.0365838455410488,1.0365838455410488,0.0,0,False
2021-11-01,1.0365838455410488,1.0379468223808976,0.13148737033785718,1,True
2021-11-02,1.0379468223808976,1.036812283844169,-0.10930603690526564,0,True
2021-11-03,1.036812283844169,1.0369683371277185,0.015051257202602919,1,True
2021-11-04,1.0369683371277185,1.0564432919988447,1.878066491892083,1,True
2021-11-05,1.0564432919988447,1.0480283180157748,-0.796538162228122,0,True
2021-11-06,1.0480283180157748,1.04685467735298,-0.11198558689871074,1,True
2021-11-07,1.04685467735298,1.04685467735298,0.0,0,False
2021-11-08,1.04685467735298,1.04685467735298,0.0,0,False
2021-11-09,1.04685467735298,1.04685467735298,0.0,0,False
2021-11-10,1.04685467735298,1.04685467735298,0.0,0,False
2021-11-11,1.04685467735298,1.0328863588485284,-1.3343130433128736,10,True
2021-11-12,1.0328863588485284,1.0335532551053916,0.06456627596540532,0,True
2021-11-13,1.0335532551053916,1.0323865455548586,-0.11288335117419779,1,True
2021-11-14,1.0323865455548586,1.0323865455548586,0.0,0,False
2021-11-15,1.0323865455548586,1.0323865455548586,0.0,0,False
2021-11-16,1.0323865455548586,1.0552595852335627,2.215549958219465,5,True
2021-11-17,1.0552595852335627,1.0435249344913557,-1.1120155558321354,0,True
2021-11-18,1.0435249344913557,1.0408296062972682,-0.2582907322096095,2,True
2021-11-19,1.0408296062972682,1.0474458020335373,0.635665597542534,2,True
2021-11-20,1.0474458020335373,1.0479838723861288,0.05136975598611926,0,True
2021-11-21,1.0479838723861288,1.0479838723861288,0.0,0,False
2021-11-22,1.0479838723861288,1.0440180318956211,-0.37842571770478894,1,True
2021-11-23,1.0440180318956211,1.0440180318956211,0.0,0,False
2021-11-24,1.0440180318956211,1.0440180318956211,0.0,0,False
2021-11-25,1.0440180318956211,1.046646685859534,0.2517824293839066,2,True
2021-11-26,1.046646685859534,1.0284707340807238,-1.7365890538203588,9,True
2021-11-27,1.0284707340807238,1.040009656688645,1.1219495339587882,0,True
2021-11-28,1.040009656688645,1.0387135491051447,-0.12462457200898003,1,True
2021-11-29,1.0387135491051447,1.0387135491051447,0.0,0,False
2021-11-30,1.0387135491051447,1.0387135491051447,0.0,0,False
2021-12-01,1.0387135491051447,1.0387135491051447,0.0,0,False
2021-12-02,1.0387135491051447,1.0359617403816386,-0.26492469708100375,2,True
2021-12-03,1.0359617403816386,1.0335748514816057,-0.2304031902909509,1,True
2021-12-04,1.0335748514816057,0.9629687257175534,-6.831254230193384,16,True
2021-12-05,0.9629687257175534,0.9633752179785597,0.04221240525785763,1,True
2021-12-06,0.9633752179785597,0.9574201549521135,-0.618145756223798,7,True
2021-12-07,0.9574201549521135,0.984153510598297,2.792228209100167,0,True
2021-12-08,0.984153510598297,0.9877006921523235,0.3604297008370283,1,True
2021-12-09,0.9877006921523235,0.9862034261295978,-0.15159106747845152,0,True
2021-12-10,0.9862034261295978,0.9825257460703474,-0.3729129266650033,1,True
2021-12-11,0.9825257460703474,0.9797656214750209,-0.28092135054635925,1,True
2021-12-12,0.9797656214750209,0.9797656214750209,0.0,0,False
2021-12-13,0.9797656214750209,0.9766322090680236,-0.3198124468053898,1,True
2021-12-14,0.9766322090680236,0.9766322090680236,0.0,0,False
2021-12-15,0.9766322090680236,0.9766322090680236,0.0,0,False
2021-12-16,0.9766322090680236,0.9766322090680236,0.0,0,False
2021-12-17,0.9766322090680236,0.9771577784338514,0.053814461672252456,2,True
2021-12-18,0.9771577784338514,0.9800568872461897,0.2966878917941784,0,True
2021-12-19,0.9800568872461897,0.9756413936303079,-0.45053442033233804,1,True
2021-12-20,0.9756413936303079,0.9756413936303079,0.0,0,False
2021-12-21,0.9756413936303079,0.9730731359006662,-0.263237880886269,1,True
2021-12-22,0.9730731359006662,0.9722672165711076,-0.08282207162287891,0,True
2021-12-23,0.9722672165711076,0.9722672165711076,0.0,0,False
2021-12-24,0.9722672165711076,0.9722672165711076,0.0,0,False
2021-12-25,0.9722672165711076,0.9742838205955237,0.20741252919418418,1,True
2021-12-26,0.9742838205955237,0.9742838205955237,0.0,0,False
2021-12-27,0.9742838205955237,0.9742838205955237,0.0,0,False
2021-12-28,0.9742838205955237,0.9742838205955237,0.0,0,False
2021-12-29,0.9742838205955237,0.9742838205955237,0.0,0,False
2021-12-30,0.9742838205955237,0.9742838205955237,0.0,0,False
2021-12-31,0.9742838205955237,0.9742838205955237,0.0,0,False
2022-01-01,0.9742838205955237,0.9742838205955237,0.0,0,False
2022-01-02,0.9742838205955237,0.9742838205955237,0.0,0,False
2022-01-03,0.9742838205955237,0.9742838205955237,0.0,0,False
2022-01-04,0.9742838205955237,0.9742838205955237,0.0,0,False
2022-01-05,0.9742838205955237,0.9753689881521276,0.1113810507435753,1,True
2022-01-06,0.9753689881521276,0.9599714497982887,-1.5786372686515282,9,True
2022-01-07,0.9599714497982887,0.9668905907952082,0.7207652892565974,4,True
2022-01-08,0.9668905907952082,0.9725536862924885,0.5857017899639327,0,True
2022-01-09,0.9725536862924885,0.9732231126407048,0.06883181439250041,1,True
2022-01-10,0.9732231126407048,0.974706607408635,0.15243110738554222,0,True
2022-01-11,0.974706607408635,0.974706607408635,0.0,0,False
2022-01-12,0.974706607408635,0.974706607408635,0.0,0,False
2022-01-13,0.974706607408635,0.974706607408635,0.0,0,False
2022-01-14,0.974706607408635,0.974706607408635,0.0,0,False
2022-01-15,0.974706607408635,0.9751767320589574,0.048232426737349066,1,True
2022-01-16,0.9751767320589574,0.9741573557759905,-0.10453246570133468,0,True
2022-01-17,0.9741573557759905,0.9763371508216261,0.22376210914090144,1,True
2022-01-18,0.9763371508216261,0.9816327428720254,0.542393787427109,0,True
2022-01-19,0.9816327428720254,0.9816327428720254,0.0,0,False
2022-01-20,0.9816327428720254,0.9816327428720254,0.0,0,False
2022-01-21,0.9816327428720254,0.9548628786836876,-2.727075312302185,7,True
2022-01-22,0.9548628786836876,0.937955021225659,-1.7707105214244678,8,True
2022-01-23,0.937955021225659,0.9472427685164183,0.9902124388249112,0,True
2022-01-24,0.9472427685164183,0.9415938562229541,-0.5963531716701942,2,True
2022-01-25,0.9415938562229541,0.957179486650249,1.6552391802782118,0,True
2022-01-26,0.957179486650249,0.957179486650249,0.0,0,False
2022-01-27,0.957179486650249,0.9675167792006936,1.0799743093764969,4,True
2022-01-28,0.9675167792006936,0.9608574364362613,-0.6882922247543721,0,True
2022-01-29,0.9608574364362613,0.9608574364362613,0.0,0,False
2022-01-30,0.9608574364362613,0.967756420275966,0.7180028564166996,1,True
2022-01-31,0.967756420275966,0.9653030019771097,-0.25351609634960415,0,True
2022-02-01,0.9653030019771097,0.9653030019771097,0.0,0,False
2022-02-02,0.9653030019771097,0.9653030019771097,0.0,0,False
2022-02-03,0.9653030019771097,0.965259067571094,-0.004551359099236318,3,True
2022-02-04,0.965259067571094,0.9721096751256852,0.7097169852886775,0,True
2022-02-05,0.9721096751256852,0.9721096751256852,0.0,0,False
2022-02-06,0.9721096751256852,0.9721096751256852,0.0,0,False
2022-02-07,0.9721096751256852,0.9721096751256852,0.0,0,False
2022-02-08,0.9721096751256852,0.9721096751256852,0.0,0,False
2022-02-09,0.9721096751256852,0.9747123565840861,0.26773537235542655,2,True
2022-02-10,0.9747123565840861,0.9814544509401599,0.6917009218700976,5,True
2022-02-11,0.9814544509401599,0.9721048442655855,-0.9526276706594117,0,True
2022-02-12,0.9721048442655855,0.9527238541597959,-1.9937139723269048,4,True
2022-02-13,0.9527238541597959,0.9527238541597959,0.0,0,False
2022-02-14,0.9527238541597959,0.9527238541597959,0.0,0,False
2022-02-15,0.9527238541597959,0.9527238541597959,0.0,0,False
2022-02-16,0.9527238541597959,0.9527238541597959,0.0,0,False
2022-02-17,0.9527238541597959,0.9527238541597959,0.0,0,False
2022-02-18,0.9527238541597959,0.9527238541597959,0.0,0,False
2022-02-19,0.9527238541597959,0.9527238541597959,0.0,0,False
2022-02-20,0.9527238541597959,0.9527238541597959,0.0,0,False
2022-02-21,0.9527238541597959,0.9527238541597959,0.0,0,False
2022-02-22,0.9527238541597959,0.952526883585114,-0.020674466564674088,2,True
2022-02-23,0.952526883585114,0.9517172431090205,-0.08499922574847218,0,True
2022-02-24,0.9517172431090205,0.9327533952849393,-1.9925926488555734,4,True
2022-02-25,0.9327533952849393,0.9327533952849393,0.0,0,False
2022-02-26,0.9327533952849393,0.9327533952849393,0.0,0,False
2022-02-27,0.9327533952849393,0.9327533952849393,0.0,0,False
2022-02-28,0.9327533952849393,0.9351322669053712,0.25503757289515594,1,True
2022-03-01,0.9351322669053712,0.9379728442872209,0.3037620968047605,0,True
2022-03-02,0.9379728442872209,0.9379728442872209,0.0,0,False
2022-03-03,0.9379728442872209,0.9379728442872209,0.0,0,False
2022-03-04,0.9379728442872209,0.9354497298624234,-0.26899653227326903,1,True
2022-03-05,0.9354497298624234,0.9354497298624234,0.0,0,False
2022-03-06,0.9354497298624234,0.9294331486636216,-0.643175256428441,3,True
2022-03-07,0.9294331486636216,0.9274600415605646,-0.21229144945970058,0,True
2022-03-08,0.9274600415605646,0.9285798705646922,0.12074148253797823,1,True
2022-03-09,0.9285798705646922,0.93727262305525,0.9361340651581784,1,True
2022-03-10,0.93727262305525,0.9355493417508005,-0.18386126534157832,3,True
2022-03-11,0.9355493417508005,0.9323323911214165,-0.3438568641781936,0,True
2022-03-12,0.9323323911214165,0.9323323911214165,0.0,0,False
2022-03-13,0.9323323911214165,0.9323323911214165,0.0,0,False
2022-03-14,0.9323323911214165,0.9286470052534485,-0.39528669207076206,1,True
2022-03-15,0.9286470052534485,0.9296609840420262,0.10918882878441227,1,True
2022-03-16,0.9296609840420262,0.9322472844050848,0.27819822574608466,1,True
2022-03-17,0.9322472844050848,0.9283000508710605,-0.42341056928293375,1,True
2022-03-18,0.9283000508710605,0.9275783749562478,-0.07774166489977752,0,True
2022-03-19,0.9275783749562478,0.9275783749562478,0.0,0,False
2022-03-20,0.9275783749562478,0.9238852966830402,-0.39814191155349565,1,True
2022-03-21,0.9238852966830402,0.9218768369357258,-0.21739276017544995,3,True
2022-03-22,0.9218768369357258,0.9218768369357258,0.0,0,False
2022-03-23,0.9218768369357258,0.9218768369357258,0.0,0,False
2022-03-24,0.9218768369357258,0.9218768369357258,0.0,0,False
2022-03-25,0.9218768369357258,0.9218768369357258,0.0,0,False
2022-03-26,0.9218768369357258,0.9218768369357258,0.0,0,False
2022-03-27,0.9218768369357258,0.9218768369357258,0.0,0,False
2022-03-28,0.9218768369357258,0.9218768369357258,0.0,0,False
2022-03-29,0.9218768369357258,0.9218768369357258,0.0,0,False
2022-03-30,0.9218768369357258,0.9198138119612271,-0.2237853140291457,4,True
2022-03-31,0.9198138119612271,0.9226168298456998,0.30473752927193676,5,True
2022-04-01,0.9226168298456998,0.9057358840424348,-1.8296811045695138,0,True
2022-04-02,0.9057358840424348,0.9057358840424348,0.0,0,False
2022-04-03,0.9057358840424348,0.9022525560886038,-0.3845853979290714,1,True
2022-04-04,0.9022525560886038,0.9022525560886038,0.0,0,False
2022-04-05,0.9022525560886038,0.9031147973446978,0.09556539909756356,3,True
2022-04-06,0.9031147973446978,0.8871685045341964,-1.7656994279560134,9,True
2022-04-07,0.8871685045341964,0.8903602885612538,0.3597720174628227,1,True
2022-04-08,0.8903602885612538,0.8943593473389165,0.4491506223985864,0,True
2022-04-09,0.8943593473389165,0.8943593473389165,0.0,0,False
2022-04-10,0.8943593473389165,0.8943593473389165,0.0,0,False
2022-04-11,0.8943593473389165,0.8868148100273063,-0.8435689003596036,6,True
2022-04-12,0.8868148100273063,0.8793958461278184,-0.836585475975471,0,True
2022-04-13,0.8793958461278184,0.8793958461278184,0.0,0,False
2022-04-14,0.8793958461278184,0.8793958461278184,0.0,0,False
2022-04-15,0.8793958461278184,0.8793958461278184,0.0,0,False
2022-04-16,0.8793958461278184,0.8793958461278184,0.0,0,False
2022-04-17,0.8793958461278184,0.8800671798488274,0.07634033341925583,1,True
2022-04-18,0.8800671798488274,0.8824112903365863,0.2663558579881986,6,True
2022-04-19,0.8824112903365863,0.8929134606563732,1.190167264947517,0,True
2022-04-20,0.8929134606563732,0.8929134606563732,0.0,0,False
2022-04-21,0.8929134606563732,0.8954026780846512,0.27877476798794376,2,True
2022-04-22,0.8954026780846512,0.8909260032952397,-0.49996218449865903,0,True
2022-04-23,0.8909260032952397,0.8909260032952397,0.0,0,False
2022-04-24,0.8909260032952397,0.8909260032952397,0.0,0,False
2022-04-25,0.8909260032952397,0.8869158566729619,-0.4501099538508968,3,True
2022-04-26,0.8869158566729619,0.8829192242424797,-0.45062137523107504,2,True
2022-04-27,0.8829192242424797,0.8826208934984154,-0.03378913221877555,0,True
2022-04-28,0.8826208934984154,0.8826208934984154,0.0,0,False
2022-04-29,0.8826208934984154,0.8826208934984154,0.0,0,False
2022-04-30,0.8826208934984154,0.8805444720711261,-0.23525631928552615,1,True
2022-05-01,0.8805444720711261,0.8879762602473162,0.8439991859479745,6,True
2022-05-02,0.8879762602473162,0.8897703145144621,0.20203853948146389,0,True
2022-05-03,0.8897703145144621,0.8909794841890942,0.13589683257662077,3,True
2022-05-04,0.8909794841890942,0.883463059700325,-0.8436136434286312,1,True
2022-05-05,0.883463059700325,0.883463059700325,0.0,0,False
2022-05-06,0.883463059700325,0.8711293858290874,-1.3960599411390495,6,True
2022-05-07,0.8711293858290874,0.8623076066359271,-1.012682999410508,2,True
2022-05-08,0.8623076066359271,0.8549010575449779,-0.8589219246069257,3,True
2022-05-09,0.8549010575449779,0.8478258144400482,-0.8276095862189803,3,True
2022-05-10,0.8478258144400482,0.8282048159867996,-2.3142723563102874,7,True
2022-05-11,0.8282048159867996,0.8214008560872179,-0.8215310715713242,9,True
2022-05-12,0.8214008560872179,0.8162305792050958,-0.6294462495146425,0,True
2022-05-13,0.8162305792050958,0.8162305792050958,0.0,0,False
2022-05-14,0.8162305792050958,0.8064105846412155,-1.2030907459315787,5,True
2022-05-15,0.8064105846412155,0.8323731562186794,3.219522668965835,1,True
2022-05-16,0.8323731562186794,0.8364810648816772,0.4935176768144922,8,True
2022-05-17,0.8364810648816772,0.8507620861859101,1.7072737093281276,4,True
2022-05-18,0.8507620861859101,0.8451455025473261,-0.6601826444528003,0,True
2022-05-19,0.8451455025473261,0.8579577945342513,1.515986531113045,6,True
2022-05-20,0.8579577945342513,0.8658030084991223,0.9144055820519581,0,True
2022-05-21,0.8658030084991223,0.8658030084991223,0.0,0,False
2022-05-22,0.8658030084991223,0.8658030084991223,0.0,0,False
2022-05-23,0.8658030084991223,0.8660303168288896,0.026254047114182555,1,True
2022-05-24,0.8660303168288896,0.8462825799133283,-2.280259308689203,10,True
2022-05-25,0.8462825799133283,0.8420648408204137,-0.49838425048837065,1,True
2022-05-26,0.8420648408204137,0.8157230098542682,-3.1282425876469344,9,True
2022-05-27,0.8157230098542682,0.816936811190231,0.14880067391744856,2,True
2022-05-28,0.816936811190231,0.8175286340383207,0.07244414010765254,0,True
2022-05-29,0.8175286340383207,0.8134518119375779,-0.49867636814194816,1,True
2022-05-30,0.8134518119375779,0.8134518119375779,0.0,0,False
2022-05-31,0.8134518119375779,0.8120792505426336,-0.16873296915707048,1,True
2022-06-01,0.8120792505426336,0.8116009750543703,-0.05889517407859923,1,True
2022-06-02,0.8116009750543703,0.8126624160613829,0.13078360421405755,1,True
2022-06-03,0.8126624160613829,0.8140070692540101,0.16546270210748837,0,True
2022-06-04,0.8140070692540101,0.8140070692540101,0.0,0,False
2022-06-05,0.8140070692540101,0.8140070692540101,0.0,0,False
2022-06-06,0.8140070692540101,0.8157477986618648,0.21384696443114137,1,True
2022-06-07,0.8157477986618648,0.8116352531992511,-0.5041442305280808,4,True
2022-06-08,0.8116352531992511,0.8133626019835641,0.21282328207212764,3,True
2022-06-09,0.8133626019835641,0.8144792613780817,0.13728924735343373,3,True
2022-06-10,0.8144792613780817,0.8137177465107284,-0.09349714639325102,4,True
2022-06-11,0.8137177465107284,0.7950429353476169,-2.2949986335175976,5,True
2022-06-12,0.7950429353476169,0.7902995809731458,-0.5966161277060067,8,True
2022-06-13,0.7902995809731458,0.7671072019516514,-2.9346313195479867,4,True
2022-06-14,0.7671072019516514,0.7754599124623933,1.0888583094372128,4,True
2022-06-15,0.7754599124623933,0.7765693259573893,0.1430652284104772,4,True
2022-06-16,0.7765693259573893,0.7860462279986777,1.220354928338807,1,True
2022-06-17,0.7860462279986777,0.7860462279986777,0.0,0,False
2022-06-18,0.7860462279986777,0.7810917914783695,-0.630298364629589,5,True
2022-06-19,0.7810917914783695,0.7869235695382886,0.7466187871314478,2,True
2022-06-20,0.7869235695382886,0.7882403239101681,0.16732938532417752,0,True
2022-06-21,0.7882403239101681,0.7882403239101681,0.0,0,False
2022-06-22,0.7882403239101681,0.7882403239101681,0.0,0,False
2022-06-23,0.7882403239101681,0.7882403239101681,0.0,0,False
2022-06-24,0.7882403239101681,0.7843072251449008,-0.49897203250863775,1,True
2022-06-25,0.7843072251449008,0.7848970364362017,0.07520156290692359,3,True
2022-06-26,0.7848970364362017,0.7839594838468956,-0.11944911826434756,0,True
2022-06-27,0.7839594838468956,0.7821078295560088,-0.23619260038806322,4,True
2022-06-28,0.7821078295560088,0.777966489834824,-0.5295100706939282,1,True
2022-06-29,0.777966489834824,0.7776808155947507,-0.036720635632259135,2,True
2022-06-30,0.7776808155947507,0.778942965566308,0.16229665773510593,1,True
2022-07-01,0.778942965566308,0.7784123118760026,-0.06812484530490659,1,True
2022-07-02,0.7784123118760026,0.780179439354868,0.22701689733126695,1,True
2022-07-03,0.780179439354868,0.7812771882693967,0.14070467115059326,1,True
2022-07-04,0.7812771882693967,0.7810830623355852,-0.024847254818938236,0,True
2022-07-05,0.7810830623355852,0.7810830623355852,0.0,0,False
2022-07-06,0.7810830623355852,0.7810830623355852,0.0,0,False
2022-07-07,0.7810830623355852,0.7810830623355852,0.0,0,False
2022-07-08,0.7810830623355852,0.7810830623355852,0.0,0,False
2022-07-09,0.7810830623355852,0.7810830623355852,0.0,0,False
2022-07-10,0.7810830623355852,0.7810830623355852,0.0,0,False
2022-07-11,0.7810830623355852,0.7771827390617465,-0.499348079854145,1,True
2022-07-12,0.7771827390617465,0.7806986715257044,0.45239456401238165,2,True
2022-07-13,0.7806986715257044,0.7831148546931453,0.30948985255976336,4,True
2022-07-14,0.7831148546931453,0.7880678033660062,0.6324677208174867,0,True
2022-07-15,0.7880678033660062,0.7880678033660062,0.0,0,False
2022-07-16,0.7880678033660062,0.7880678033660062,0.0,0,False
2022-07-17,0.7880678033660062,0.7880678033660062,0.0,0,False
2022-07-18,0.7880678033660062,0.7880678033660062,0.0,0,False
2022-07-19,0.7880678033660062,0.7880678033660062,0.0,0,False
2022-07-20,0.7880678033660062,0.7876265791180969,-0.055988107371574,1,True
2022-07-21,0.7876265791180969,0.780068060847493,-0.9596575929505913,7,True
2022-07-22,0.780068060847493,0.780068060847493,0.0,0,False
2022-07-23,0.780068060847493,0.7787960261764796,-0.163067139248263,1,True
2022-07-24,0.7787960261764796,0.7815821868584076,0.357752298198899,1,True
2022-07-25,0.7815821868584076,0.7824823211610833,0.11516822130936966,1,True
2022-07-26,0.7824823211610833,0.7806636308722144,-0.2324257353406134,1,True
2022-07-27,0.7806636308722144,0.7793528054962621,-0.16791167464631496,0,True
2022-07-28,0.7793528054962621,0.7793528054962621,0.0,0,False
2022-07-29,0.7793528054962621,0.7793528054962621,0.0,0,False
2022-07-30,0.7793528054962621,0.7793528054962621,0.0,0,False
2022-07-31,0.7793528054962621,0.7786000652339723,-0.09658530218679129,1,True
2022-08-01,0.7786000652339723,0.7784116254722601,-0.024202381957882935,1,True
2022-08-02,0.7784116254722601,0.7785712112637418,0.020501465581901357,1,True
2022-08-03,0.7785712112637418,0.779820389734864,0.1604449860269641,1,True
2022-08-04,0.779820389734864,0.7779352265709577,-0.2417432512308748,0,True
2022-08-05,0.7779352265709577,0.7782776271046242,0.044014015816684626,1,True
2022-08-06,0.7782776271046242,0.7782776271046242,0.0,0,False
2022-08-07,0.7782776271046242,0.7791530869263713,0.11248682876880967,2,True
2022-08-08,0.7791530869263713,0.7778900318390611,-0.16210615198776201,0,True
2022-08-09,0.7778900318390611,0.7768823686690659,-0.12953799749985118,5,True
2022-08-10,0.7768823686690659,0.7820838185336165,0.6695286280549384,1,True
2022-08-11,0.7820838185336165,0.784037264039936,0.24977444361169443,1,True
2022-08-12,0.784037264039936,0.7843160183009671,0.0355537005466644,2,True
2022-08-13,0.7843160183009671,0.7843160183009671,0.0,0,False
2022-08-14,0.7843160183009671,0.7843160183009671,0.0,0,False
2022-08-15,0.7843160183009671,0.7843160183009671,0.0,0,False
2022-08-16,0.7843160183009671,0.7834399639753098,-0.11169659999487047,1,True
2022-08-17,0.7834399639753098,0.7810398505511653,-0.3063557559619401,1,True
2022-08-18,0.7810398505511653,0.7773427955181089,-0.4733503713603704,1,True
2022-08-19,0.7773427955181089,0.7618320285998915,-1.9953573902848465,10,True
2022-08-20,0.7618320285998915,0.7588481820876201,-0.3916672442553004,1,True
2022-08-21,0.7588481820876201,0.7577462533972804,-0.1452106911962514,0,True
2022-08-22,0.7577462533972804,0.7577462533972804,0.0,0,False
2022-08-23,0.7577462533972804,0.7577462533972804,0.0,0,False
2022-08-24,0.7577462533972804,0.7577462533972804,0.0,0,False
2022-08-25,0.7577462533972804,0.7563899451138647,-0.17899241036624103,1,True
2022-08-26,0.7563899451138647,0.7549568858512743,-0.18946037977470853,0,True
2022-08-27,0.7549568858512743,0.7502992737246572,-0.6169374985387721,3,True
2022-08-28,0.7502992737246572,0.7502992737246572,0.0,0,False
2022-08-29,0.7502992737246572,0.747907644189288,-0.3187567440251726,1,True
2022-08-30,0.747907644189288,0.7441800784557407,-0.49839920242931157,1,True
2022-08-31,0.7441800784557407,0.7441800784557407,0.0,0,False
2022-09-01,0.7441800784557407,0.7441800784557407,0.0,0,False
2022-09-02,0.7441800784557407,0.7441800784557407,0.0,0,False
2022-09-03,0.7441800784557407,0.7441800784557407,0.0,0,False
2022-09-04,0.7441800784557407,0.7441800784557407,0.0,0,False
2022-09-05,0.7441800784557407,0.7441800784557407,0.0,0,False
2022-09-06,0.7441800784557407,0.7417608703425682,-0.3250836972406801,1,True
2022-09-07,0.7417608703425682,0.7330285838988538,-1.177237408018239,5,True
2022-09-08,0.7330285838988538,0.7334687763922586,0.06005120442418299,0,True
2022-09-09,0.7334687763922586,0.7334687763922586,0.0,0,False
2022-09-10,0.7334687763922586,0.7334687763922586,0.0,0,False
2022-09-11,0.7334687763922586,0.7334687763922586,0.0,0,False
2022-09-12,0.7334687763922586,0.7334687763922586,0.0,0,False
2022-09-13,0.7334687763922586,0.7288458934536073,-0.6302767189886538,4,True
2022-09-14,0.7288458934536073,0.7233437233943083,-0.7549154229609778,0,True
2022-09-15,0.7233437233943083,0.7245473919316043,0.1664033983246327,1,True
2022-09-16,0.7245473919316043,0.7221111336051015,-0.3362455449612334,1,True
2022-09-17,0.7221111336051015,0.7215596112428699,-0.07637638260444835,1,True
2022-09-18,0.7215596112428699,0.7209332364173042,-0.08680846541380127,0,True
2022-09-19,0.7209332364173042,0.7245730078002952,0.5048694108040985,9,True
2022-09-20,0.7245730078002952,0.7247100905153149,0.018919103188208553,0,True
2022-09-21,0.7247100905153149,0.7247100905153149,0.0,0,False
2022-09-22,0.7247100905153149,0.7228705420870272,-0.25383231893179037,1,True
2022-09-23,0.7228705420870272,0.7228705420870272,0.0,0,False
2022-09-24,0.7228705420870272,0.7228705420870272,0.0,0,False
2022-09-25,0.7228705420870272,0.7228705420870272,0.0,0,False
2022-09-26,0.7228705420870272,0.7228705420870272,0.0,0,False
2022-09-27,0.7228705420870272,0.7228705420870272,0.0,0,False
2022-09-28,0.7228705420870272,0.7228705420870272,0.0,0,False
2022-09-29,0.7228705420870272,0.7228705420870272,0.0,0,False
2022-09-30,0.7228705420870272,0.7228705420870272,0.0,0,False
2022-10-01,0.7228705420870272,0.7228705420870272,0.0,0,False
2022-10-02,0.7228705420870272,0.7228705420870272,0.0,0,False
2022-10-03,0.7228705420870272,0.7228705420870272,0.0,0,False
2022-10-04,0.7228705420870272,0.7228705420870272,0.0,0,False
2022-10-05,0.7228705420870272,0.7228705420870272,0.0,0,False
2022-10-06,0.7228705420870272,0.7228705420870272,0.0,0,False
2022-10-07,0.7228705420870272,0.7228705420870272,0.0,0,False
2022-10-08,0.7228705420870272,0.7210179547271567,-0.2562820383469777,1,True
2022-10-09,0.7210179547271567,0.7210179547271567,0.0,0,False
2022-10-10,0.7210179547271567,0.7210179547271567,0.0,0,False
2022-10-11,0.7210179547271567,0.7330914700581103,1.674509663982282,6,True
2022-10-12,0.7330914700581103,0.731375050089661,-0.23413448915361457,2,True
2022-10-13,0.731375050089661,0.7326440105785391,0.17350338772461615,1,True
2022-10-14,0.7326440105785391,0.7392578933419642,0.902741668249285,0,True
2022-10-15,0.7392578933419642,0.7392578933419642,0.0,0,False
2022-10-16,0.7392578933419642,0.7392578933419642,0.0,0,False
2022-10-17,0.7392578933419642,0.7392578933419642,0.0,0,False
2022-10-18,0.7392578933419642,0.7392578933419642,0.0,0,False
2022-10-19,0.7392578933419642,0.7392578933419642,0.0,0,False
2022-10-20,0.7392578933419642,0.7426806675100949,0.46300136920518487,2,True
2022-10-21,0.7426806675100949,0.7405134017563347,-0.29181663783253153,0,True
2022-10-22,0.7405134017563347,0.7405134017563347,0.0,0,False
2022-10-23,0.7405134017563347,0.7405134017563347,0.0,0,False
2022-10-24,0.7405134017563347,0.7405134017563347,0.0,0,False
2022-10-25,0.7405134017563347,0.740065291661789,-0.060513434798459276,1,True
2022-10-26,0.740065291661789,0.738570320023244,-0.20200537106505045,0,True
2022-10-27,0.738570320023244,0.738570320023244,0.0,0,False
2022-10-28,0.738570320023244,0.738570320023244,0.0,0,False
2022-10-29,0.738570320023244,0.738570320023244,0.0,0,False
2022-10-30,0.738570320023244,0.738570320023244,0.0,0,False
2022-10-31,0.738570320023244,0.738570320023244,0.0,0,False
2022-11-01,0.738570320023244,0.738570320023244,0.0,0,False
2022-11-02,0.738570320023244,0.7423225829367915,0.5080440970643751,2,True
2022-11-03,0.7423225829367915,0.7418770501148124,-0.06001876168396647,0,True
2022-11-04,0.7418770501148124,0.7422234077395987,0.04668666118363696,2,True
2022-11-05,0.7422234077395987,0.7408399651570436,-0.18639166700067378,0,True
2022-11-06,0.7408399651570436,0.7411441428075343,0.041058482910827365,1,True
2022-11-07,0.7411441428075343,0.7432588062449303,0.2853241785579774,3,True
2022-11-08,0.7432588062449303,0.7256143767594327,-2.373928076902343,7,True
2022-11-09,0.7256143767594327,0.7078583700253179,-2.447030723593502,5,True
2022-11-10,0.7078583700253179,0.7078583700253179,0.0,0,False
2022-11-11,0.7078583700253179,0.703920312317465,-0.5563341304719027,10,True
2022-11-12,0.703920312317465,0.6976979055214643,-0.8839646600785178,5,True
2022-11-13,0.6976979055214643,0.6938552293730172,-0.5507650400032316,1,True
2022-11-14,0.6938552293730172,0.6915589784055433,-0.3309409326710644,2,True
2022-11-15,0.6915589784055433,0.6905798798632587,-0.1415784586503266,0,True
2022-11-16,0.6905798798632587,0.6902530747075287,-0.047323295285517375,1,True
2022-11-17,0.6902530747075287,0.6910076518902893,0.10931891655541204,1,True
2022-11-18,0.6910076518902893,0.6925831038335948,0.22799341497821146,0,True
2022-11-19,0.6925831038335948,0.6925298892880457,-0.0076834888484200725,3,True
2022-11-20,0.6925298892880457,0.6875126299576012,-0.7244827130280962,2,True
2022-11-21,0.6875126299576012,0.6763988952170721,-1.6165135382624873,4,True
2022-11-22,0.6763988952170721,0.6745191893133482,-0.2778990203880616,0,True
2022-11-23,0.6745191893133482,0.6810226813087874,0.9641670835280003,1,True
2022-11-24,0.6810226813087874,0.6783932215626085,-0.38610457747539906,1,True
2022-11-25,0.6783932215626085,0.6784237747024079,0.004503750749318414,1,True
2022-11-26,0.6784237747024079,0.6774924105504139,-0.13728353673964078,0,True
2022-11-27,0.6774924105504139,0.6774924105504139,0.0,0,False
2022-11-28,0.6774924105504139,0.6783030554985343,0.11965373124429579,4,True
2022-11-29,0.6783030554985343,0.676900180757334,-0.20682123275549413,0,True
2022-11-30,0.676900180757334,0.676900180757334,0.0,0,False
2022-12-01,0.676900180757334,0.676900180757334,0.0,0,False
2022-12-02,0.676900180757334,0.676900180757334,0.0,0,False
2022-12-03,0.676900180757334,0.676900180757334,0.0,0,False
2022-12-04,0.676900180757334,0.676900180757334,0.0,0,False
2022-12-05,0.676900180757334,0.676900180757334,0.0,0,False
2022-12-06,0.676900180757334,0.6777761955261414,0.12941565000430533,2,True
2022-12-07,0.6777761955261414,0.6762736539890333,-0.22168697381614866,1,True
2022-12-08,0.6762736539890333,0.674388310088963,-0.27878417101560027,1,True
2022-12-09,0.674388310088963,0.674388310088963,0.0,0,False
2022-12-10,0.674388310088963,0.674388310088963,0.0,0,False
2022-12-11,0.674388310088963,0.674388310088963,0.0,0,False
2022-12-12,0.674388310088963,0.6731512078809647,-0.18344063642430353,1,True
2022-12-13,0.6731512078809647,0.6731512078809647,0.0,0,False
2022-12-14,0.6731512078809647,0.6731512078809647,0.0,0,False
2022-12-15,0.6731512078809647,0.6731512078809647,0.0,0,False
2022-12-16,0.6731512078809647,0.6742973024575202,0.17025811781030686,5,True
2022-12-17,0.6742973024575202,0.6697546956982114,-0.6736801026421047,5,True
2022-12-18,0.6697546956982114,0.6693130301132956,-0.06594438049523088,0,True
2022-12-19,0.6693130301132956,0.6693130301132956,0.0,0,False
2022-12-20,0.6693130301132956,0.6693130301132956,0.0,0,False
2022-12-21,0.6693130301132956,0.6693130301132956,0.0,0,False
2022-12-22,0.6693130301132956,0.6693130301132956,0.0,0,False
2022-12-23,0.6693130301132956,0.6693130301132956,0.0,0,False
2022-12-24,0.6693130301132956,0.6693130301132956,0.0,0,False
2022-12-25,0.6693130301132956,0.6693130301132956,0.0,0,False
2022-12-26,0.6693130301132956,0.6693130301132956,0.0,0,False
2022-12-27,0.6693130301132956,0.6693130301132956,0.0,0,False
2022-12-28,0.6693130301132956,0.6706628352890267,0.20167023724348976,4,True
2022-12-29,0.6706628352890267,0.6652784356501354,-0.802847475001478,0,True
2022-12-30,0.6652784356501354,0.6652784356501354,0.0,0,False
2022-12-31,0.6652784356501354,0.6652784356501354,0.0,0,False
2023-01-01,0.6652784356501354,0.6652784356501354,0.0,0,False
2023-01-02,0.6652784356501354,0.6652784356501354,0.0,0,False
2023-01-03,0.6652784356501354,0.6652784356501354,0.0,0,False
2023-01-04,0.6652784356501354,0.6652784356501354,0.0,0,False
2023-01-05,0.6652784356501354,0.6652784356501354,0.0,0,False
2023-01-06,0.6652784356501354,0.6647255917797548,-0.08309962276777938,1,True
2023-01-07,0.6647255917797548,0.6659280357519758,0.18089328695793938,0,True
2023-01-08,0.6659280357519758,0.6659280357519758,0.0,0,False
2023-01-09,0.6659280357519758,0.6659280357519758,0.0,0,False
2023-01-10,0.6659280357519758,0.6658943640844454,-0.00505635229675061,1,True
2023-01-11,0.6658943640844454,0.6631264259777238,-0.4156722531399315,1,True
2023-01-12,0.6631264259777238,0.6624339969100527,-0.10441886200661665,0,True
2023-01-13,0.6624339969100527,0.6624339969100527,0.0,0,False
2023-01-14,0.6624339969100527,0.6642819179468955,0.2789592692196585,4,True
2023-01-15,0.6642819179468955,0.6629891803519189,-0.19460677162070894,1,True
2023-01-16,0.6629891803519189,0.6629891803519189,0.0,0,False
2023-01-17,0.6629891803519189,0.6629891803519189,0.0,0,False
2023-01-18,0.6629891803519189,0.6629891803519189,0.0,0,False
2023-01-19,0.6629891803519189,0.6539547746133564,-1.3626777036945037,5,True
2023-01-20,0.6539547746133564,0.6539547746133564,0.0,0,False
2023-01-21,0.6539547746133564,0.6546057393385551,0.09954277428185776,1,True
2023-01-22,0.6546057393385551,0.6538478604147953,-0.115776394586109,0,True
2023-01-23,0.6538478604147953,0.6538478604147953,0.0,0,False
2023-01-24,0.6538478604147953,0.6538478604147953,0.0,0,False
2023-01-25,0.6538478604147953,0.6543385921529915,0.0750528934796657,6,True
2023-01-26,0.6543385921529915,0.6543327466620386,-0.0008933434498703541,0,True
2023-01-27,0.6543327466620386,0.6543327466620386,0.0,0,False
2023-01-28,0.6543327466620386,0.6543327466620386,0.0,0,False
2023-01-29,0.6543327466620386,0.6543327466620386,0.0,0,False
2023-01-30,0.6543327466620386,0.6569326505283873,0.3973366577802784,4,True
2023-01-31,0.6569326505283873,0.6592514907182279,0.35297989648945816,2,True
2023-02-01,0.6592514907182279,0.6678331602983473,1.3017292643161094,0,True
2023-02-02,0.6678331602983473,0.6678331602983473,0.0,0,False
2023-02-03,0.6678331602983473,0.6682189889692116,0.057773212502953974,1,True
2023-02-04,0.6682189889692116,0.6695688169037838,0.20200382761561553,0,True
2023-02-05,0.6695688169037838,0.6715927176708054,0.30226926880803084,5,True
2023-02-06,0.6715927176708054,0.6636358129634046,-1.1847812666874513,0,True
2023-02-07,0.6636358129634046,0.6636358129634046,0.0,0,False
2023-02-08,0.6636358129634046,0.6620603041332549,-0.23740563715426433,1,True
2023-02-09,0.6620603041332549,0.6681941352554249,0.9264761961828016,4,True
2023-02-10,0.6681941352554249,0.6496084027878867,-2.7814869192818725,4,True
2023-02-11,0.6496084027878867,0.6496084027878867,0.0,0,False
2023-02-12,0.6496084027878867,0.6496084027878867,0.0,0,False
2023-02-13,0.6496084027878867,0.6504203546064398,0.12499096610643079,3,True
2023-02-14,0.6504203546064398,0.6503416925701513,-0.012094030534459677,0,True
2023-02-15,0.6503416925701513,0.6503416925701513,0.0,0,False
2023-02-16,0.6503416925701513,0.6503416925701513,0.0,0,False
2023-02-17,0.6503416925701513,0.6531977183698298,0.4391577277463865,1,True
2023-02-18,0.6531977183698298,0.6531977183698298,0.0,0,False
2023-02-19,0.6531977183698298,0.6531977183698298,0.0,0,False
2023-02-20,0.6531977183698298,0.6545327849060872,0.20438934471316283,1,True
2023-02-21,0.6545327849060872,0.6525630054450757,-0.30094435396297303,1,True
2023-02-22,0.6525630054450757,0.6525630054450757,0.0,0,False
2023-02-23,0.6525630054450757,0.6567550144613206,0.6423914597159408,1,True
2023-02-24,0.6567550144613206,0.6567550144613206,0.0,0,False
2023-02-25,0.6567550144613206,0.6561821128811861,-0.08723215925566796,1,True
2023-02-26,0.6561821128811861,0.6561821128811861,0.0,0,False
2023-02-27,0.6561821128811861,0.6561821128811861,0.0,0,False
2023-02-28,0.6561821128811861,0.6561821128811861,0.0,0,False
2023-03-01,0.6561821128811861,0.6561821128811861,0.0,0,False
2023-03-02,0.6561821128811861,0.654767283727404,-0.21561531867575479,1,True
2023-03-03,0.654767283727404,0.6489476663636542,-0.8888069866014647,9,True
2023-03-04,0.6489476663636542,0.6490614191097105,0.01752880115799549,0,True
2023-03-05,0.6490614191097105,0.6540521043692737,0.7689080128054471,3,True
2023-03-06,0.6540521043692737,0.6533044088198106,-0.11431742891252483,0,True
2023-03-07,0.6533044088198106,0.6533044088198106,0.0,0,False
2023-03-08,0.6533044088198106,0.6533044088198106,0.0,0,False
2023-03-09,0.6533044088198106,0.6533044088198106,0.0,0,False
2023-03-10,0.6533044088198106,0.6419725158621373,-1.734550204267593,8,True
2023-03-11,0.6419725158621373,0.6412235482848667,-0.11666661091632724,5,True
2023-03-12,0.6412235482848667,0.6438847894363421,0.4150254866019276,0,True
2023-03-13,0.6438847894363421,0.6438847894363421,0.0,0,False
2023-03-14,0.6438847894363421,0.6438847894363421,0.0,0,False
2023-03-15,0.6438847894363421,0.6427124285910158,-0.18207618265878578,1,True
2023-03-16,0.6427124285910158,0.6418765022274908,-0.13006226833944812,1,True
2023-03-17,0.6418765022274908,0.6418351641120388,-0.00644019765617676,1,True
2023-03-18,0.6418351641120388,0.6517865885567541,1.5504642003344893,1,True
2023-03-19,0.6517865885567541,0.6483988010793124,-0.51976943633395,1,True
2023-03-20,0.6483988010793124,0.6483988010793124,0.0,0,False
2023-03-21,0.6483988010793124,0.6483988010793124,0.0,0,False
2023-03-22,0.6483988010793124,0.6483988010793124,0.0,0,False
2023-03-23,0.6483988010793124,0.6600626596924872,1.79887109503587,6,True
2023-03-24,0.6600626596924872,0.6538626766957752,-0.9393021867954876,1,True
2023-03-25,0.6538626766957752,0.6512100705945794,-0.4056824461369346,1,True
2023-03-26,0.6512100705945794,0.6505970117890584,-0.09414148109859743,0,True
2023-03-27,0.6505970117890584,0.6473507810505452,-0.4989618273201768,1,True
2023-03-28,0.6473507810505452,0.654606402870677,1.1208176513446189,4,True
2023-03-29,0.654606402870677,0.6548830989575505,0.042269077366197116,0,True
2023-03-30,0.6548830989575505,0.6548830989575505,0.0,0,False
2023-03-31,0.6548830989575505,0.6548830989575505,0.0,0,False
2023-04-01,0.6548830989575505,0.6548830989575505,0.0,0,False
2023-04-02,0.6548830989575505,0.6548830989575505,0.0,0,False
2023-04-03,0.6548830989575505,0.6548830989575505,0.0,0,False
2023-04-04,0.6548830989575505,0.6548830989575505,0.0,0,False
2023-04-05,0.6548830989575505,0.6548830989575505,0.0,0,False
2023-04-06,0.6548830989575505,0.6548830989575505,0.0,0,False
2023-04-07,0.6548830989575505,0.6532841676893552,-0.24415521957132924,1,True
2023-04-08,0.6532841676893552,0.6532841676893552,0.0,0,False
2023-04-09,0.6532841676893552,0.6532841676893552,0.0,0,False
2023-04-10,0.6532841676893552,0.6532841676893552,0.0,0,False
2023-04-11,0.6532841676893552,0.6532841676893552,0.0,0,False
2023-04-12,0.6532841676893552,0.6558549981489099,0.3935240721733235,1,True
2023-04-13,0.6558549981489099,0.6560934269872502,0.03635389514651255,0,True
2023-04-14,0.6560934269872502,0.6598253175098893,0.5688047416929187,1,True
2023-04-15,0.6598253175098893,0.6591475147996037,-0.10272456850300982,0,True
2023-04-16,0.6591475147996037,0.6591475147996037,0.0,0,False
2023-04-17,0.6591475147996037,0.6591475147996037,0.0,0,False
2023-04-18,0.6591475147996037,0.6591475147996037,0.0,0,False
2023-04-19,0.6591475147996037,0.6545399905967169,-0.6990126033149968,7,True
2023-04-20,0.6545399905967169,0.6482846149442638,-0.9556903691629759,0,True
2023-04-21,0.6482846149442638,0.6482846149442638,0.0,0,False
2023-04-22,0.6482846149442638,0.6482846149442638,0.0,0,False
2023-04-23,0.6482846149442638,0.6482846149442638,0.0,0,False
2023-04-24,0.6482846149442638,0.6482846149442638,0.0,0,False
2023-04-25,0.6482846149442638,0.6482846149442638,0.0,0,False
2023-04-26,0.6482846149442638,0.6482846149442638,0.0,0,False
2023-04-27,0.6482846149442638,0.6448372175047864,-0.5317722123906687,8,True
2023-04-28,0.6448372175047864,0.6494252477218534,0.7115020802956229,0,True
2023-04-29,0.6494252477218534,0.6494252477218534,0.0,0,False
2023-04-30,0.6494252477218534,0.6494252477218534,0.0,0,False
2023-05-01,0.6494252477218534,0.6494252477218534,0.0,0,False
2023-05-02,0.6494252477218534,0.6494252477218534,0.0,0,False
2023-05-03,0.6494252477218534,0.6494252477218534,0.0,0,False
2023-05-04,0.6494252477218534,0.6494252477218534,0.0,0,False
2023-05-05,0.6494252477218534,0.6494252477218534,0.0,0,False
2023-05-06,0.6494252477218534,0.6461868570199576,-0.4986548818753045,1,True
2023-05-07,0.6461868570199576,0.6461868570199576,0.0,0,False
2023-05-08,0.6461868570199576,0.6581807371638931,1.8561009116230043,5,True
2023-05-09,0.6581807371638931,0.6543054430341556,-0.5887887491870747,6,True
2023-05-10,0.6543054430341556,0.6502432743769814,-0.6208367514622948,1,True
2023-05-11,0.6502432743769814,0.6531967958908363,0.45421792585012,5,True
2023-05-12,0.6531967958908363,0.6502012511983147,-0.4585975790705299,0,True
2023-05-13,0.6502012511983147,0.6502012511983147,0.0,0,False
2023-05-14,0.6502012511983147,0.6502012511983147,0.0,0,False
2023-05-15,0.6502012511983147,0.6502012511983147,0.0,0,False
2023-05-16,0.6502012511983147,0.6502012511983147,0.0,0,False
2023-05-17,0.6502012511983147,0.6502012511983147,0.0,0,False
2023-05-18,0.6502012511983147,0.648622076697942,-0.24287472493513818,1,True
2023-05-19,0.648622076697942,0.648622076697942,0.0,0,False
2023-05-20,0.648622076697942,0.648622076697942,0.0,0,False
2023-05-21,0.648622076697942,0.648622076697942,0.0,0,False
2023-05-22,0.648622076697942,0.648622076697942,0.0,0,False
2023-05-23,0.648622076697942,0.648622076697942,0.0,0,False
2023-05-24,0.648622076697942,0.648622076697942,0.0,0,False
2023-05-25,0.648622076697942,0.648622076697942,0.0,0,False
2023-05-26,0.648622076697942,0.6499198925012916,0.2000881329782267,1,True
2023-05-27,0.6499198925012916,0.6543652607870634,0.6839871093440975,0,True
2023-05-28,0.6543652607870634,0.6543652607870634,0.0,0,False
2023-05-29,0.6543652607870634,0.6543652607870634,0.0,0,False
2023-05-30,0.6543652607870634,0.6560241046257961,0.25350426407684257,2,True
2023-05-31,0.6560241046257961,0.6529136492779086,-0.4741373565323004,1,True
2023-06-01,0.6529136492779086,0.6529136492779086,0.0,0,False
2023-06-02,0.6529136492779086,0.6529136492779086,0.0,0,False
2023-06-03,0.6529136492779086,0.6529136492779086,0.0,0,False
2023-06-04,0.6529136492779086,0.649856440021351,-0.468240977951484,1,True
2023-06-05,0.649856440021351,0.649856440021351,0.0,0,False
2023-06-06,0.649856440021351,0.6452638247534568,-0.7067122805989756,8,True
2023-06-07,0.6452638247534568,0.6450009221562393,-0.04074342728231928,0,True
2023-06-08,0.6450009221562393,0.6450009221562393,0.0,0,False
2023-06-09,0.6450009221562393,0.6450009221562393,0.0,0,False
2023-06-10,0.6450009221562393,0.6526115238167131,1.1799365549790997,6,True
2023-06-11,0.6526115238167131,0.6535451106985487,0.14305399885918835,1,True
2023-06-12,0.6535451106985487,0.6535384206936159,-0.0010236485321835076,0,True
2023-06-13,0.6535384206936159,0.6535384206936159,0.0,0,False
2023-06-14,0.6535384206936159,0.6535384206936159,0.0,0,False
2023-06-15,0.6535384206936159,0.6564085942972806,0.43917442537173557,4,True
2023-06-16,0.6564085942972806,0.6592160376826895,0.4276975362296209,0,True
2023-06-17,0.6592160376826895,0.6592160376826895,0.0,0,False
2023-06-18,0.6592160376826895,0.6592160376826895,0.0,0,False
2023-06-19,0.6592160376826895,0.6592160376826895,0.0,0,False
2023-06-20,0.6592160376826895,0.6570826325878597,-0.3236276080796352,1,True
2023-06-21,0.6570826325878597,0.6570826325878597,0.0,0,False
2023-06-22,0.6570826325878597,0.6570826325878597,0.0,0,False
2023-06-23,0.6570826325878597,0.6570826325878597,0.0,0,False
2023-06-24,0.6570826325878597,0.6570826325878597,0.0,0,False
2023-06-25,0.6570826325878597,0.6566871731421902,-0.060184126935769466,3,True
2023-06-26,0.6566871731421902,0.6553343993562596,-0.2059997273066383,0,True
2023-06-27,0.6553343993562596,0.6553343993562596,0.0,0,False
2023-06-28,0.6553343993562596,0.6553343993562596,0.0,0,False
2023-06-29,0.6553343993562596,0.6545502231058652,-0.11966047428071391,2,True
2023-06-30,0.6545502231058652,0.6503974859898477,-0.6344413261846538,6,True
2023-07-01,0.6503974859898477,0.657027757490821,1.0194183778067023,0,True
2023-07-02,0.657027757490821,0.657027757490821,0.0,0,False
2023-07-03,0.657027757490821,0.657027757490821,0.0,0,False
2023-07-04,0.657027757490821,0.657027757490821,0.0,0,False
2023-07-05,0.657027757490821,0.6564645267023257,-0.08572404773982134,1,True
2023-07-06,0.6564645267023257,0.6573083587516775,0.12854191125766246,1,True
2023-07-07,0.6573083587516775,0.655472898346935,-0.2792388656411293,0,True
2023-07-08,0.655472898346935,0.655472898346935,0.0,0,False
2023-07-09,0.655472898346935,0.655472898346935,0.0,0,False
2023-07-10,0.655472898346935,0.655472898346935,0.0,0,False
2023-07-11,0.655472898346935,0.655472898346935,0.0,0,False
2023-07-12,0.655472898346935,0.6543547292091016,-0.1705896827547404,1,True
2023-07-13,0.6543547292091016,0.6543547292091016,0.0,0,False
2023-07-14,0.6543547292091016,0.6543547292091016,0.0,0,False
2023-07-15,0.6543547292091016,0.6606228470284145,0.9579082322655363,5,True
2023-07-16,0.6606228470284145,0.6604597193906409,-0.024693005775888732,1,True
2023-07-17,0.6604597193906409,0.6596500104391224,-0.1225977796595279,0,True
2023-07-18,0.6596500104391224,0.6596500104391224,0.0,0,False
2023-07-19,0.6596500104391224,0.6596500104391224,0.0,0,False
2023-07-20,0.6596500104391224,0.6596500104391224,0.0,0,False
2023-07-21,0.6596500104391224,0.6596500104391224,0.0,0,False
2023-07-22,0.6596500104391224,0.6596500104391224,0.0,0,False
2023-07-23,0.6596500104391224,0.6596500104391224,0.0,0,False
2023-07-24,0.6596500104391224,0.659512394847217,-0.02086191006254179,2,True
2023-07-25,0.659512394847217,0.6591333710053467,-0.0574703136486332,0,True
2023-07-26,0.6591333710053467,0.6591333710053467,0.0,0,False
2023-07-27,0.6591333710053467,0.6591333710053467,0.0,0,False
2023-07-28,0.6591333710053467,0.6591333710053467,0.0,0,False
2023-07-29,0.6591333710053467,0.6591333710053467,0.0,0,False
2023-07-30,0.6591333710053467,0.6591333710053467,0.0,0,False
2023-07-31,0.6591333710053467,0.6558456170527899,-0.498799499036473,1,True
2023-08-01,0.6558456170527899,0.6531439355488274,-0.4119386382580581,2,True
2023-08-02,0.6531439355488274,0.6531439355488274,0.0,0,False
2023-08-03,0.6531439355488274,0.6531439355488274,0.0,0,False
2023-08-04,0.6531439355488274,0.6531439355488274,0.0,0,False
2023-08-05,0.6531439355488274,0.6531439355488274,0.0,0,False
2023-08-06,0.6531439355488274,0.6531439355488274,0.0,0,False
2023-08-07,0.6531439355488274,0.6534865102074289,0.052450101724299536,1,True
2023-08-08,0.6534865102074289,0.6528836140753407,-0.09225838983222268,1,True
2023-08-09,0.6528836140753407,0.6529714708376426,0.013456726498861649,0,True
2023-08-10,0.6529714708376426,0.6501541831728288,-0.4314564710154567,1,True
2023-08-11,0.6501541831728288,0.6498633831805702,-0.04472785068295737,0,True
2023-08-12,0.6498633831805702,0.6498633831805702,0.0,0,False
2023-08-13,0.6498633831805702,0.6517196029178927,0.285632301398131,1,True
2023-08-14,0.6517196029178927,0.6511772888951562,-0.08321278358183193,0,True
2023-08-15,0.6511772888951562,0.6511772888951562,0.0,0,False
2023-08-16,0.6511772888951562,0.6515002898203742,0.04960260910911174,6,True
2023-08-17,0.6515002898203742,0.6549794569340911,0.5340238781284423,4,True
2023-08-18,0.6549794569340911,0.6707652302645775,2.4101173194619463,5,True
2023-08-19,0.6707652302645775,0.6703816479838924,-0.05718577281260684,0,True
2023-08-20,0.6703816479838924,0.6703816479838924,0.0,0,False
2023-08-21,0.6703816479838924,0.6703816479838924,0.0,0,False
2023-08-22,0.6703816479838924,0.6714751985424118,0.16312358218755207,1,True
2023-08-23,0.6714751985424118,0.6714751985424118,0.0,0,False
2023-08-24,0.6714751985424118,0.6714751985424118,0.0,0,False
2023-08-25,0.6714751985424118,0.6589264107007577,-1.868838621127633,4,True
2023-08-26,0.6589264107007577,0.6607105520997206,0.270764894226283,0,True
2023-08-27,0.6607105520997206,0.6607105520997206,0.0,0,False
2023-08-28,0.6607105520997206,0.6590012759244347,-0.2587027208592163,1,True
2023-08-29,0.6590012759244347,0.6630281666078116,0.6110596186218453,1,True
2023-08-30,0.6630281666078116,0.6601648446212522,-0.43185525604571007,1,True
2023-08-31,0.6601648446212522,0.6621249133836888,0.2969059589292611,1,True
2023-09-01,0.6621249133836888,0.6596119526732174,-0.37952970197562275,0,True
2023-09-02,0.6596119526732174,0.6577667365875962,-0.2797426696321992,1,True
2023-09-03,0.6577667365875962,0.6571513031302653,-0.09356408937972738,0,True
2023-09-04,0.6571513031302653,0.6557805766269188,-0.20858613485466027,2,True
2023-09-05,0.6557805766269188,0.6581279292682497,0.3579478754013765,0,True
2023-09-06,0.6581279292682497,0.6584962254081442,0.05596117768531528,2,True
2023-09-07,0.6584962254081442,0.6578636466051087,-0.09606415019972614,1,True
2023-09-08,0.6578636466051087,0.6572126324537279,-0.09895882752305463,1,True
2023-09-09,0.6572126324537279,0.6568492746759136,-0.05528770444622744,2,True
2023-09-10,0.6568492746759136,0.6534963914507089,-0.5104494066555776,3,True
2023-09-11,0.6534963914507089,0.6528540002755855,-0.09830064611334732,0,True
2023-09-12,0.6528540002755855,0.6528540002755855,0.0,0,False
2023-09-13,0.6528540002755855,0.6528540002755855,0.0,0,False
2023-09-14,0.6528540002755855,0.6537130988320393,0.1315912219410853,2,True
2023-09-15,0.6537130988320393,0.6621448061142113,1.2898177040106207,0,True
2023-09-16,0.6621448061142113,0.6600491862239083,-0.31648966675449364,2,True
2023-09-17,0.6600491862239083,0.6605648280480472,0.0781217271229151,1,True
2023-09-18,0.6605648280480472,0.6605648280480472,0.0,0,False
2023-09-19,0.6605648280480472,0.6605648280480472,0.0,0,False
2023-09-20,0.6605648280480472,0.6618168713988379,0.18954132851585204,1,True
2023-09-21,0.6618168713988379,0.6609317980667008,-0.13373387267484604,0,True
2023-09-22,0.6609317980667008,0.6680618357398604,1.078785692262918,1,True
2023-09-23,0.6680618357398604,0.667368016494695,-0.10385554271290509,0,True
2023-09-24,0.667368016494695,0.6653627187020558,-0.3004785580184022,1,True
2023-09-25,0.6653627187020558,0.6650991422243914,-0.03961395345061236,1,True
2023-09-26,0.6650991422243914,0.6650991422243914,0.0,0,False
2023-09-27,0.6650991422243914,0.6650991422243914,0.0,0,False
2023-09-28,0.6650991422243914,0.6650991422243914,0.0,0,False
2023-09-29,0.6650991422243914,0.6617832484064081,-0.4985563215272548,1,True
2023-09-30,0.6617832484064081,0.6617832484064081,0.0,0,False
2023-10-01,0.6617832484064081,0.661442031189292,-0.05156026809952641,1,True
2023-10-02,0.661442031189292,0.6632214177435187,0.2690162509067173,0,True
2023-10-03,0.6632214177435187,0.6631653932991176,-0.008447321347326842,2,True
2023-10-04,0.6631653932991176,0.6608416817677198,-0.3503969831474052,3,True
2023-10-05,0.6608416817677198,0.6566314271115168,-0.6371048879575514,0,True
2023-10-06,0.6566314271115168,0.6566314271115168,0.0,0,False
2023-10-07,0.6566314271115168,0.6549310550299279,-0.2589538074759479,1,True
2023-10-08,0.6549310550299279,0.6529015732259735,-0.30987716773662743,1,True
2023-10-09,0.6529015732259735,0.6517459792804522,-0.17699359182297147,1,True
2023-10-10,0.6517459792804522,0.6488666230081434,-0.4417911830446153,1,True
2023-10-11,0.6488666230081434,0.6488666230081434,0.0,0,False
2023-10-12,0.6488666230081434,0.6488666230081434,0.0,0,False
2023-10-13,0.6488666230081434,0.6488666230081434,0.0,0,False
2023-10-14,0.6488666230081434,0.6488666230081434,0.0,0,False
2023-10-15,0.6488666230081434,0.6488666230081434,0.0,0,False
2023-10-16,0.6488666230081434,0.6488666230081434,0.0,0,False
2023-10-17,0.6488666230081434,0.6488666230081434,0.0,0,False
2023-10-18,0.6488666230081434,0.6455720893297847,-0.5077366536569872,3,True
2023-10-19,0.6455720893297847,0.6393204509008003,-0.9683873470234361,3,True
2023-10-20,0.6393204509008003,0.6381883795342902,-0.17707416756572725,0,True
2023-10-21,0.6381883795342902,0.6389238285374002,0.11524011196295536,2,True
2023-10-22,0.6389238285374002,0.6388819689659657,-0.006551574626700862,0,True
2023-10-23,0.6388819689659657,0.6388819689659657,0.0,0,False
2023-10-24,0.6388819689659657,0.6377078655406765,-0.18377470054281586,1,True
2023-10-25,0.6377078655406765,0.6390174253607092,0.2053541897154343,3,True
2023-10-26,0.6390174253607092,0.638378986420257,-0.09990947274900464,1,True
2023-10-27,0.638378986420257,0.6333622502456142,-0.7858554685163499,5,True
2023-10-28,0.6333622502456142,0.6333263038662177,-0.005675484982348156,1,True
2023-10-29,0.6333263038662177,0.6333263038662177,0.0,0,False
2023-10-30,0.6333263038662177,0.6333263038662177,0.0,0,False
2023-10-31,0.6333263038662177,0.6318915007704418,-0.22655037174628134,1,True
2023-11-01,0.6318915007704418,0.6306112999007059,-0.2025982100052004,1,True
2023-11-02,0.6306112999007059,0.6298585058565734,-0.1193752862105324,2,True
2023-11-03,0.6298585058565734,0.6282073413397481,-0.2621484827897702,0,True
2023-11-04,0.6282073413397481,0.6279324380246316,-0.043759965385026245,1,True
2023-11-05,0.6279324380246316,0.6276805090326196,-0.040120397793830254,1,True
2023-11-06,0.6276805090326196,0.6246514894641877,-0.4825734629071543,3,True
2023-11-07,0.6246514894641877,0.6186467218851874,-0.961298849083192,2,True
2023-11-08,0.6186467218851874,0.6186467218851874,0.0,0,False
2023-11-09,0.6186467218851874,0.6186467218851874,0.0,0,False
2023-11-10,0.6186467218851874,0.6205341819344352,0.305094973023734,6,True
2023-11-11,0.6205341819344352,0.6205341819344352,0.0,0,False
2023-11-12,0.6205341819344352,0.6213286761552117,0.12803391721303292,1,True
2023-11-13,0.6213286761552117,0.6190375849609937,-0.3687406170266083,1,True
2023-11-14,0.6190375849609937,0.620130509509779,0.17655221190715498,2,True
2023-11-15,0.620130509509779,0.6194568822818638,-0.1086266870578112,1,True
2023-11-16,0.6194568822818638,0.6195622050966405,0.017002444849545384,0,True
2023-11-17,0.6195622050966405,0.6189869666654889,-0.09284595258064465,2,True
2023-11-18,0.6189869666654889,0.6142266238390229,-0.7690538061100316,3,True
2023-11-19,0.6142266238390229,0.6122610639733073,-0.32000564440378687,2,True
2023-11-20,0.6122610639733073,0.6133911863319909,0.18458177813065468,0,True
2023-11-21,0.6133911863319909,0.6180817307608352,0.7646905487659783,2,True
2023-11-22,0.6180817307608352,0.6116408586029477,-1.042074508489188,4,True
2023-11-23,0.6116408586029477,0.6098425681933851,-0.2940108372861294,2,True
2023-11-24,0.6098425681933851,0.6176247377967206,1.2760948495920132,1,True
2023-11-25,0.6176247377967206,0.6149368082623685,-0.4352043190402055,2,True
2023-11-26,0.6149368082623685,0.6138358383905291,-0.17903788764090933,0,True
2023-11-27,0.6138358383905291,0.6138358383905291,0.0,0,False
2023-11-28,0.6138358383905291,0.6139405828688487,0.01706392357183617,1,True
2023-11-29,0.6139405828688487,0.6144761182254972,0.08722918334311824,1,True
2023-11-30,0.6144761182254972,0.6142751362980037,-0.03270785007462029,0,True
2023-12-01,0.6142751362980037,0.6142751362980037,0.0,0,False
2023-12-02,0.6142751362980037,0.6142751362980037,0.0,0,False
2023-12-03,0.6142751362980037,0.6148193340420779,0.08859185598066865,1,True
2023-12-04,0.6148193340420779,0.6211238754063326,1.0254299133382938,5,True
2023-12-05,0.6211238754063326,0.6205982916367665,-0.08461818815486133,0,True
2023-12-06,0.6205982916367665,0.6192177894955396,-0.22244697734922214,1,True
2023-12-07,0.6192177894955396,0.6193309447933076,0.01827390938820006,2,True
2023-12-08,0.6193309447933076,0.617635031565074,-0.27382988731485813,0,True
2023-12-09,0.617635031565074,0.617635031565074,0.0,0,False
2023-12-10,0.617635031565074,0.6153808168183165,-0.3649752089102565,1,True
2023-12-11,0.6153808168183165,0.6171561128052595,0.2884873786157094,5,True
2023-12-12,0.6171561128052595,0.6159974934297991,-0.18773521827304407,0,True
2023-12-13,0.6159974934297991,0.6153142579196827,-0.11091530686467843,3,True
2023-12-14,0.6153142579196827,0.6180862568655725,0.45050133492137157,0,True
2023-12-15,0.6180862568655725,0.6180862568655725,0.0,0,False
2023-12-16,0.6180862568655725,0.6245509211753827,1.0459162031192237,3,True
2023-12-17,0.6245509211753827,0.6201705397507715,-0.7013649769929797,2,True
2023-12-18,0.6201705397507715,0.6191477759994688,-0.1649165327514135,2,True
2023-12-19,0.6191477759994688,0.641789106235798,3.6568540038410147,1,True
2023-12-20,0.641789106235798,0.6435168784784778,0.2692118370181573,0,True
2023-12-21,0.6435168784784778,0.6427291333843712,-0.12241249926018272,1,True
2023-12-22,0.6427291333843712,0.6415773733785035,-0.17919835060268285,0,True
2023-12-23,0.6415773733785035,0.6414288463469509,-0.023150291409201884,1,True
2023-12-24,0.6414288463469509,0.6407589585467058,-0.10443680605575212,1,True
2023-12-25,0.6407589585467058,0.6446128648848185,0.601459610779953,1,True
2023-12-26,0.6446128648848185,0.6446128648848185,0.0,0,False
2023-12-27,0.6446128648848185,0.6352302988000962,-1.4555350344115148,7,True
2023-12-28,0.6352302988000962,0.6338751196314417,-0.21333667037203297,1,True
2023-12-29,0.6338751196314417,0.6338751196314417,0.0,0,False
2023-12-30,0.6338751196314417,0.633332870861505,-0.08554504714619604,1,True
2023-12-31,0.633332870861505,0.6337554689957265,0.06672606991748875,0,True
