day,start_equity,end_equity,return_pct,entries,active
2021-09-02,1.0,1.0,0.0,0,False
2021-09-03,1.0,1.0,0.0,0,False
2021-09-04,1.0,1.0,0.0,0,False
2021-09-05,1.0,1.0,0.0,0,False
2021-09-06,1.0,1.0,0.0,0,False
2021-09-07,1.0,1.0,0.0,0,False
2021-09-08,1.0,1.0,0.0,0,False
2021-09-09,1.0,1.0,0.0,0,False
2021-09-10,1.0,1.0,0.0,0,False
2021-09-11,1.0,1.0,0.0,0,False
2021-09-12,1.0,1.0,0.0,0,False
2021-09-13,1.0,1.0,0.0,0,False
2021-09-14,1.0,1.0,0.0,0,False
2021-09-15,1.0,1.0,0.0,0,False
2021-09-16,1.0,1.0,0.0,0,False
2021-09-17,1.0,1.0,0.0,0,False
2021-09-18,1.0,1.0,0.0,0,False
2021-09-19,1.0,1.0,0.0,0,False
2021-09-20,1.0,1.0,0.0,0,False
2021-09-21,1.0,1.0,0.0,0,False
2021-09-22,1.0,1.0,0.0,0,False
2021-09-23,1.0,1.0,0.0,0,False
2021-09-24,1.0,1.0,0.0,0,False
2021-09-25,1.0,1.0,0.0,0,False
2021-09-26,1.0,1.0,0.0,0,False
2021-09-27,1.0,1.0,0.0,0,False
2021-09-28,1.0,1.0,0.0,0,False
2021-09-29,1.0,1.0,0.0,0,False
2021-09-30,1.0,1.0,0.0,0,False
2021-10-01,1.0,1.0,0.0,0,False
2021-10-02,1.0,1.0,0.0,0,False
2021-10-03,1.0,1.0,0.0,0,False
2021-10-04,1.0,1.0,0.0,0,False
2021-10-05,1.0,1.0,0.0,0,False
2021-10-06,1.0,0.996980279639708,-0.30197203602919664,1,True
2021-10-07,0.996980279639708,0.996980279639708,0.0,0,False
2021-10-08,0.996980279639708,0.996980279639708,0.0,0,False
2021-10-09,0.996980279639708,0.996980279639708,0.0,0,False
2021-10-10,0.996980279639708,0.996980279639708,0.0,0,False
2021-10-11,0.996980279639708,0.996980279639708,0.0,0,False
2021-10-12,0.996980279639708,0.996980279639708,0.0,0,False
2021-10-13,0.996980279639708,1.0027599920182781,0.5797218356875522,1,True
2021-10-14,1.0027599920182781,1.0070393638161521,0.4267593274499104,0,True
2021-10-15,1.0070393638161521,1.0070393638161521,0.0,0,False
2021-10-16,1.0070393638161521,1.0038613811376194,-0.31557680789059406,1,True
2021-10-17,1.0038613811376194,1.0038613811376194,0.0,0,False
2021-10-18,1.0038613811376194,1.0038613811376194,0.0,0,False
2021-10-19,1.0038613811376194,1.0038613811376194,0.0,0,False
2021-10-20,1.0038613811376194,1.0038613811376194,0.0,0,False
2021-10-21,1.0038613811376194,1.0038613811376194,0.0,0,False
2021-10-22,1.0038613811376194,1.0038613811376194,0.0,0,False
2021-10-23,1.0038613811376194,1.0038613811376194,0.0,0,False
2021-10-24,1.0038613811376194,1.0038613811376194,0.0,0,False
2021-10-25,1.0038613811376194,1.0085118673439846,0.4632597979907338,1,True
2021-10-26,1.0085118673439846,1.0085118673439846,0.0,0,False
2021-10-27,1.0085118673439846,1.0242550216815611,1.561028169062384,4,True
2021-10-28,1.0242550216815611,1.0176970813929074,-0.6402644019149917,0,True
2021-10-29,1.0176970813929074,1.0176970813929074,0.0,0,False
2021-10-30,1.0176970813929074,1.0165635319218496,-0.11138377929770238,1,True
2021-10-31,1.0165635319218496,1.016103763481819,-0.04522771332956532,0,True
2021-11-01,1.016103763481819,1.016103763481819,0.0,0,False
2021-11-02,1.016103763481819,1.016103763481819,0.0,0,False
2021-11-03,1.016103763481819,1.016103763481819,0.0,0,False
2021-11-04,1.016103763481819,1.016103763481819,0.0,0,False
2021-11-05,1.016103763481819,1.016103763481819,0.0,0,False
2021-11-06,1.016103763481819,1.016103763481819,0.0,0,False
2021-11-07,1.016103763481819,1.016103763481819,0.0,0,False
2021-11-08,1.016103763481819,1.016103763481819,0.0,0,False
2021-11-09,1.016103763481819,1.016103763481819,0.0,0,False
2021-11-10,1.016103763481819,1.016103763481819,0.0,0,False
2021-11-11,1.016103763481819,1.0301830294887593,1.3856130164005664,6,True
2021-11-12,1.0301830294887593,1.0301830294887593,0.0,0,False
2021-11-13,1.0301830294887593,1.0301830294887593,0.0,0,False
2021-11-14,1.0301830294887593,1.0301830294887593,0.0,0,False
2021-11-15,1.0301830294887593,1.0301830294887593,0.0,0,False
2021-11-16,1.0301830294887593,1.0657187277444915,3.449454828756715,4,True
2021-11-17,1.0657187277444915,1.0645533870056496,-0.10934787092540255,0,True
2021-11-18,1.0645533870056496,1.0612794666422778,-0.30753933089073815,1,True
2021-11-19,1.0612794666422778,1.0612794666422778,0.0,0,False
2021-11-20,1.0612794666422778,1.0612794666422778,0.0,0,False
2021-11-21,1.0612794666422778,1.0612794666422778,0.0,0,False
2021-11-22,1.0612794666422778,1.0612794666422778,0.0,0,False
2021-11-23,1.0612794666422778,1.0612794666422778,0.0,0,False
2021-11-24,1.0612794666422778,1.0612794666422778,0.0,0,False
2021-11-25,1.0612794666422778,1.0612794666422778,0.0,0,False
2021-11-26,1.0612794666422778,1.0673829976890163,0.5751106318912624,5,True
2021-11-27,1.0673829976890163,1.0654934196376946,-0.17702905661911572,0,True
2021-11-28,1.0654934196376946,1.0601719001594934,-0.4994417966476705,1,True
2021-11-29,1.0601719001594934,1.0601719001594934,0.0,0,False
2021-11-30,1.0601719001594934,1.0601719001594934,0.0,0,False
2021-12-01,1.0601719001594934,1.0618750455226635,0.1606480385788256,1,True
2021-12-02,1.0618750455226635,1.0610829972483289,-0.07458959297276246,1,True
2021-12-03,1.0610829972483289,1.0605871550755244,-0.046729819824686825,1,True
2021-12-04,1.0605871550755244,1.0342364437204765,-2.484539929504559,5,True
2021-12-05,1.0342364437204765,1.0342364437204765,0.0,0,False
2021-12-06,1.0342364437204765,1.0342364437204765,0.0,0,False
2021-12-07,1.0342364437204765,1.0342364437204765,0.0,0,False
2021-12-08,1.0342364437204765,1.0342364437204765,0.0,0,False
2021-12-09,1.0342364437204765,1.0342364437204765,0.0,0,False
2021-12-10,1.0342364437204765,1.0342364437204765,0.0,0,False
2021-12-11,1.0342364437204765,1.0342364437204765,0.0,0,False
2021-12-12,1.0342364437204765,1.0342364437204765,0.0,0,False
2021-12-13,1.0342364437204765,1.0342364437204765,0.0,0,False
2021-12-14,1.0342364437204765,1.0342364437204765,0.0,0,False
2021-12-15,1.0342364437204765,1.0342364437204765,0.0,0,False
2021-12-16,1.0342364437204765,1.0342364437204765,0.0,0,False
2021-12-17,1.0342364437204765,1.0335868118198837,-0.06281270637262804,1,True
2021-12-18,1.0335868118198837,1.0335868118198837,0.0,0,False
2021-12-19,1.0335868118198837,1.0335868118198837,0.0,0,False
2021-12-20,1.0335868118198837,1.0335868118198837,0.0,0,False
2021-12-21,1.0335868118198837,1.0335868118198837,0.0,0,False
2021-12-22,1.0335868118198837,1.0335868118198837,0.0,0,False
2021-12-23,1.0335868118198837,1.0335868118198837,0.0,0,False
2021-12-24,1.0335868118198837,1.0335868118198837,0.0,0,False
2021-12-25,1.0335868118198837,1.0335868118198837,0.0,0,False
2021-12-26,1.0335868118198837,1.0335868118198837,0.0,0,False
2021-12-27,1.0335868118198837,1.0335868118198837,0.0,0,False
2021-12-28,1.0335868118198837,1.0335868118198837,0.0,0,False
2021-12-29,1.0335868118198837,1.0335868118198837,0.0,0,False
2021-12-30,1.0335868118198837,1.0335868118198837,0.0,0,False
2021-12-31,1.0335868118198837,1.0335868118198837,0.0,0,False
2022-01-01,1.0335868118198837,1.0335868118198837,0.0,0,False
2022-01-02,1.0335868118198837,1.0335868118198837,0.0,0,False
2022-01-03,1.0335868118198837,1.0335868118198837,0.0,0,False
2022-01-04,1.0335868118198837,1.0335868118198837,0.0,0,False
2022-01-05,1.0335868118198837,1.0335868118198837,0.0,0,False
2022-01-06,1.0335868118198837,1.0339076306326918,0.031039367873053614,1,True
2022-01-07,1.0339076306326918,1.0339076306326918,0.0,0,False
2022-01-08,1.0339076306326918,1.0339076306326918,0.0,0,False
2022-01-09,1.0339076306326918,1.0339076306326918,0.0,0,False
2022-01-10,1.0339076306326918,1.0339076306326918,0.0,0,False
2022-01-11,1.0339076306326918,1.0339076306326918,0.0,0,False
2022-01-12,1.0339076306326918,1.0339076306326918,0.0,0,False
2022-01-13,1.0339076306326918,1.0339076306326918,0.0,0,False
2022-01-14,1.0339076306326918,1.0339076306326918,0.0,0,False
2022-01-15,1.0339076306326918,1.0339076306326918,0.0,0,False
2022-01-16,1.0339076306326918,1.0339076306326918,0.0,0,False
2022-01-17,1.0339076306326918,1.0339076306326918,0.0,0,False
2022-01-18,1.0339076306326918,1.0339076306326918,0.0,0,False
2022-01-19,1.0339076306326918,1.0339076306326918,0.0,0,False
2022-01-20,1.0339076306326918,1.0339076306326918,0.0,0,False
2022-01-21,1.0339076306326918,1.0339076306326918,0.0,0,False
2022-01-22,1.0339076306326918,1.0339076306326918,0.0,0,False
2022-01-23,1.0339076306326918,1.0339076306326918,0.0,0,False
2022-01-24,1.0339076306326918,1.0339076306326918,0.0,0,False
2022-01-25,1.0339076306326918,1.0339076306326918,0.0,0,False
2022-01-26,1.0339076306326918,1.0339076306326918,0.0,0,False
2022-01-27,1.0339076306326918,1.0339076306326918,0.0,0,False
2022-01-28,1.0339076306326918,1.0339076306326918,0.0,0,False
2022-01-29,1.0339076306326918,1.0339076306326918,0.0,0,False
2022-01-30,1.0339076306326918,1.0339076306326918,0.0,0,False
2022-01-31,1.0339076306326918,1.0339076306326918,0.0,0,False
2022-02-01,1.0339076306326918,1.0339076306326918,0.0,0,False
2022-02-02,1.0339076306326918,1.0339076306326918,0.0,0,False
2022-02-03,1.0339076306326918,1.0339076306326918,0.0,0,False
2022-02-04,1.0339076306326918,1.0339076306326918,0.0,0,False
2022-02-05,1.0339076306326918,1.0339076306326918,0.0,0,False
2022-02-06,1.0339076306326918,1.0339076306326918,0.0,0,False
2022-02-07,1.0339076306326918,1.0339076306326918,0.0,0,False
2022-02-08,1.0339076306326918,1.0339076306326918,0.0,0,False
2022-02-09,1.0339076306326918,1.0339076306326918,0.0,0,False
2022-02-10,1.0339076306326918,1.0350918684605528,0.11454000268247277,2,True
2022-02-11,1.0350918684605528,1.0316141326321435,-0.3359833010360247,0,True
2022-02-12,1.0316141326321435,1.0316141326321435,0.0,0,False
2022-02-13,1.0316141326321435,1.0316141326321435,0.0,0,False
2022-02-14,1.0316141326321435,1.0316141326321435,0.0,0,False
2022-02-15,1.0316141326321435,1.0316141326321435,0.0,0,False
2022-02-16,1.0316141326321435,1.0316141326321435,0.0,0,False
2022-02-17,1.0316141326321435,1.0316141326321435,0.0,0,False
2022-02-18,1.0316141326321435,1.0316141326321435,0.0,0,False
2022-02-19,1.0316141326321435,1.0316141326321435,0.0,0,False
2022-02-20,1.0316141326321435,1.0316141326321435,0.0,0,False
2022-02-21,1.0316141326321435,1.0316141326321435,0.0,0,False
2022-02-22,1.0316141326321435,1.0316141326321435,0.0,0,False
2022-02-23,1.0316141326321435,1.0316141326321435,0.0,0,False
2022-02-24,1.0316141326321435,1.0316141326321435,0.0,0,False
2022-02-25,1.0316141326321435,1.0316141326321435,0.0,0,False
2022-02-26,1.0316141326321435,1.0316141326321435,0.0,0,False
2022-02-27,1.0316141326321435,1.0316141326321435,0.0,0,False
2022-02-28,1.0316141326321435,1.0316141326321435,0.0,0,False
2022-03-01,1.0316141326321435,1.0316141326321435,0.0,0,False
2022-03-02,1.0316141326321435,1.0316141326321435,0.0,0,False
2022-03-03,1.0316141326321435,1.0316141326321435,0.0,0,False
2022-03-04,1.0316141326321435,1.0316141326321435,0.0,0,False
2022-03-05,1.0316141326321435,1.0316141326321435,0.0,0,False
2022-03-06,1.0316141326321435,1.0316141326321435,0.0,0,False
2022-03-07,1.0316141326321435,1.0316141326321435,0.0,0,False
2022-03-08,1.0316141326321435,1.0316141326321435,0.0,0,False
2022-03-09,1.0316141326321435,1.0316141326321435,0.0,0,False
2022-03-10,1.0316141326321435,1.0316141326321435,0.0,0,False
2022-03-11,1.0316141326321435,1.0316141326321435,0.0,0,False
2022-03-12,1.0316141326321435,1.0316141326321435,0.0,0,False
2022-03-13,1.0316141326321435,1.0316141326321435,0.0,0,False
2022-03-14,1.0316141326321435,1.0316141326321435,0.0,0,False
2022-03-15,1.0316141326321435,1.0316141326321435,0.0,0,False
2022-03-16,1.0316141326321435,1.0316141326321435,0.0,0,False
2022-03-17,1.0316141326321435,1.0316141326321435,0.0,0,False
2022-03-18,1.0316141326321435,1.0316141326321435,0.0,0,False
2022-03-19,1.0316141326321435,1.0316141326321435,0.0,0,False
2022-03-20,1.0316141326321435,1.0316141326321435,0.0,0,False
2022-03-21,1.0316141326321435,1.0316141326321435,0.0,0,False
2022-03-22,1.0316141326321435,1.0316141326321435,0.0,0,False
2022-03-23,1.0316141326321435,1.0316141326321435,0.0,0,False
2022-03-24,1.0316141326321435,1.0316141326321435,0.0,0,False
2022-03-25,1.0316141326321435,1.0316141326321435,0.0,0,False
2022-03-26,1.0316141326321435,1.0335576243487608,0.18839328147419732,1,True
2022-03-27,1.0335576243487608,1.0335576243487608,0.0,0,False
2022-03-28,1.0335576243487608,1.0335576243487608,0.0,0,False
2022-03-29,1.0335576243487608,1.0335576243487608,0.0,0,False
2022-03-30,1.0335576243487608,1.030450113659041,-0.30066158059429693,1,True
2022-03-31,1.030450113659041,1.030450113659041,0.0,0,False
2022-04-01,1.030450113659041,1.030450113659041,0.0,0,False
2022-04-02,1.030450113659041,1.030450113659041,0.0,0,False
2022-04-03,1.030450113659041,1.030450113659041,0.0,0,False
2022-04-04,1.030450113659041,1.0253034757890815,-0.4994553158603754,1,True
2022-04-05,1.0253034757890815,1.0253034757890815,0.0,0,False
2022-04-06,1.0253034757890815,1.0273697463540867,0.20152770509385132,1,True
2022-04-07,1.0273697463540867,1.0244587658224193,-0.28334302640289355,1,True
2022-04-08,1.0244587658224193,1.0244587658224193,0.0,0,False
2022-04-09,1.0244587658224193,1.0244587658224193,0.0,0,False
2022-04-10,1.0244587658224193,1.0244587658224193,0.0,0,False
2022-04-11,1.0244587658224193,1.0244587658224193,0.0,0,False
2022-04-12,1.0244587658224193,1.0244587658224193,0.0,0,False
2022-04-13,1.0244587658224193,1.0244587658224193,0.0,0,False
2022-04-14,1.0244587658224193,1.0244587658224193,0.0,0,False
2022-04-15,1.0244587658224193,1.0244587658224193,0.0,0,False
2022-04-16,1.0244587658224193,1.0244587658224193,0.0,0,False
2022-04-17,1.0244587658224193,1.0244587658224193,0.0,0,False
2022-04-18,1.0244587658224193,1.027521428274603,0.29895419458148,1,True
2022-04-19,1.027521428274603,1.024721320314163,-0.2725109066719855,0,True
2022-04-20,1.024721320314163,1.024721320314163,0.0,0,False
2022-04-21,1.024721320314163,1.024721320314163,0.0,0,False
2022-04-22,1.024721320314163,1.024721320314163,0.0,0,False
2022-04-23,1.024721320314163,1.024721320314163,0.0,0,False
2022-04-24,1.024721320314163,1.024721320314163,0.0,0,False
2022-04-25,1.024721320314163,1.024721320314163,0.0,0,False
2022-04-26,1.024721320314163,1.024721320314163,0.0,0,False
2022-04-27,1.024721320314163,1.024721320314163,0.0,0,False
2022-04-28,1.024721320314163,1.024721320314163,0.0,0,False
2022-04-29,1.024721320314163,1.024721320314163,0.0,0,False
2022-04-30,1.024721320314163,1.024721320314163,0.0,0,False
2022-05-01,1.024721320314163,1.041331861563368,1.6209813263290407,4,True
2022-05-02,1.041331861563368,1.041331861563368,0.0,0,False
2022-05-03,1.041331861563368,1.041331861563368,0.0,0,False
2022-05-04,1.041331861563368,1.041331861563368,0.0,0,False
2022-05-05,1.041331861563368,1.041331861563368,0.0,0,False
2022-05-06,1.041331861563368,1.0371185095695181,-0.4046118388737585,2,True
2022-05-07,1.0371185095695181,1.0360868127425364,-0.09947723596311908,0,True
2022-05-08,1.0360868127425364,1.0360868127425364,0.0,0,False
2022-05-09,1.0360868127425364,1.0360868127425364,0.0,0,False
2022-05-10,1.0360868127425364,1.0295183384785243,-0.6339694881962066,2,True
2022-05-11,1.0295183384785243,1.014517213986026,-1.4571012416027318,5,True
2022-05-12,1.014517213986026,1.0095706625346972,-0.4875768871277941,1,True
2022-05-13,1.0095706625346972,1.0095706625346972,0.0,0,False
2022-05-14,1.0095706625346972,1.0095706625346972,0.0,0,False
2022-05-15,1.0095706625346972,1.0064894659525825,-0.30519870440557373,1,True
2022-05-16,1.0064894659525825,1.0126174537007988,0.6088476785414354,1,True
2022-05-17,1.0126174537007988,1.0126174537007988,0.0,0,False
2022-05-18,1.0126174537007988,1.0126174537007988,0.0,0,False
2022-05-19,1.0126174537007988,1.0126174537007988,0.0,0,False
2022-05-20,1.0126174537007988,1.007561535852099,-0.4992919912867322,1,True
2022-05-21,1.007561535852099,1.007561535852099,0.0,0,False
2022-05-22,1.007561535852099,1.007561535852099,0.0,0,False
2022-05-23,1.007561535852099,1.007299225957314,-0.02603413146010647,1,True
2022-05-24,1.007299225957314,1.003893956216198,-0.3380594021483274,1,True
2022-05-25,1.003893956216198,1.0038318693898876,-0.006184600069147894,1,True
2022-05-26,1.0038318693898876,1.0022708032047685,-0.15551072173748404,1,True
2022-05-27,1.0022708032047685,1.0022708032047685,0.0,0,False
2022-05-28,1.0022708032047685,1.0022708032047685,0.0,0,False
2022-05-29,1.0022708032047685,1.0022708032047685,0.0,0,False
2022-05-30,1.0022708032047685,1.0022708032047685,0.0,0,False
2022-05-31,1.0022708032047685,1.0022708032047685,0.0,0,False
2022-06-01,1.0022708032047685,1.0022708032047685,0.0,0,False
2022-06-02,1.0022708032047685,0.9972637517432101,-0.4995707193652943,1,True
2022-06-03,0.9972637517432101,0.9972637517432101,0.0,0,False
2022-06-04,0.9972637517432101,0.9972637517432101,0.0,0,False
2022-06-05,0.9972637517432101,0.9972637517432101,0.0,0,False
2022-06-06,0.9972637517432101,0.9972637517432101,0.0,0,False
2022-06-07,0.9972637517432101,0.9983069580930319,0.10460686533511065,1,True
2022-06-08,0.9983069580930319,0.9972078752372767,-0.11009468048331916,1,True
2022-06-09,0.9972078752372767,0.9972078752372767,0.0,0,False
2022-06-10,0.9972078752372767,0.9994126164787359,0.22109143902766526,1,True
2022-06-11,0.9994126164787359,0.9994126164787359,0.0,0,False
2022-06-12,0.9994126164787359,0.9904788533055514,-0.8939013802588547,4,True
2022-06-13,0.9904788533055514,0.9904788533055514,0.0,0,False
2022-06-14,0.9904788533055514,0.9904788533055514,0.0,0,False
2022-06-15,0.9904788533055514,0.9904788533055514,0.0,0,False
2022-06-16,0.9904788533055514,1.000837117262918,1.0457834534071786,2,True
2022-06-17,1.000837117262918,1.0041341307228606,0.32942557815593965,0,True
2022-06-18,1.0041341307228606,0.9939714970317747,-1.012079300976454,4,True
2022-06-19,0.9939714970317747,0.9958166503052291,0.1856344250277253,0,True
2022-06-20,0.9958166503052291,0.9958166503052291,0.0,0,False
2022-06-21,0.9958166503052291,0.9958166503052291,0.0,0,False
2022-06-22,0.9958166503052291,0.9958166503052291,0.0,0,False
2022-06-23,0.9958166503052291,0.9958166503052291,0.0,0,False
2022-06-24,0.9958166503052291,0.9958166503052291,0.0,0,False
2022-06-25,0.9958166503052291,0.9958166503052291,0.0,0,False
2022-06-26,0.9958166503052291,0.9958166503052291,0.0,0,False
2022-06-27,0.9958166503052291,0.9958166503052291,0.0,0,False
2022-06-28,0.9958166503052291,0.9975214479736798,0.17119593932559685,1,True
2022-06-29,0.9975214479736798,0.9921057253105524,-0.5429179166150933,0,True
2022-06-30,0.9921057253105524,0.9921057253105524,0.0,0,False
2022-07-01,0.9921057253105524,0.9921057253105524,0.0,0,False
2022-07-02,0.9921057253105524,0.9921057253105524,0.0,0,False
2022-07-03,0.9921057253105524,0.9921057253105524,0.0,0,False
2022-07-04,0.9921057253105524,0.9921057253105524,0.0,0,False
2022-07-05,0.9921057253105524,0.9921057253105524,0.0,0,False
2022-07-06,0.9921057253105524,0.9921057253105524,0.0,0,False
2022-07-07,0.9921057253105524,0.9921057253105524,0.0,0,False
2022-07-08,0.9921057253105524,0.9921057253105524,0.0,0,False
2022-07-09,0.9921057253105524,0.9921057253105524,0.0,0,False
2022-07-10,0.9921057253105524,0.9921057253105524,0.0,0,False
2022-07-11,0.9921057253105524,0.9921057253105524,0.0,0,False
2022-07-12,0.9921057253105524,0.9921057253105524,0.0,0,False
2022-07-13,0.9921057253105524,1.0042849823823323,1.2276168518196462,4,True
2022-07-14,1.0042849823823323,1.0219344500924719,1.757416273244683,0,True
2022-07-15,1.0219344500924719,1.0219344500924719,0.0,0,False
2022-07-16,1.0219344500924719,1.0219344500924719,0.0,0,False
2022-07-17,1.0219344500924719,1.0219344500924719,0.0,0,False
2022-07-18,1.0219344500924719,1.0219344500924719,0.0,0,False
2022-07-19,1.0219344500924719,1.0219344500924719,0.0,0,False
2022-07-20,1.0219344500924719,1.0219344500924719,0.0,0,False
2022-07-21,1.0219344500924719,1.0200954736101968,-0.17995053225856594,3,True
2022-07-22,1.0200954736101968,1.0200954736101968,0.0,0,False
2022-07-23,1.0200954736101968,1.0200954736101968,0.0,0,False
2022-07-24,1.0200954736101968,1.026272964237374,0.6055796527862922,1,True
2022-07-25,1.026272964237374,1.0274147699433394,0.11125750611717944,1,True
2022-07-26,1.0274147699433394,1.0274147699433394,0.0,0,False
2022-07-27,1.0274147699433394,1.0274147699433394,0.0,0,False
2022-07-28,1.0274147699433394,1.0274147699433394,0.0,0,False
2022-07-29,1.0274147699433394,1.0274147699433394,0.0,0,False
2022-07-30,1.0274147699433394,1.0274147699433394,0.0,0,False
2022-07-31,1.0274147699433394,1.0274147699433394,0.0,0,False
2022-08-01,1.0274147699433394,1.0274147699433394,0.0,0,False
2022-08-02,1.0274147699433394,1.0274147699433394,0.0,0,False
2022-08-03,1.0274147699433394,1.0274147699433394,0.0,0,False
2022-08-04,1.0274147699433394,1.0274147699433394,0.0,0,False
2022-08-05,1.0274147699433394,1.0274147699433394,0.0,0,False
2022-08-06,1.0274147699433394,1.0274147699433394,0.0,0,False
2022-08-07,1.0274147699433394,1.0274147699433394,0.0,0,False
2022-08-08,1.0274147699433394,1.0274147699433394,0.0,0,False
2022-08-09,1.0274147699433394,1.0297350775565417,0.22583942542799829,1,True
2022-08-10,1.0297350775565417,1.0297350775565417,0.0,0,False
2022-08-11,1.0297350775565417,1.0297350775565417,0.0,0,False
2022-08-12,1.0297350775565417,1.027175556972483,-0.24856107554694917,1,True
2022-08-13,1.027175556972483,1.027175556972483,0.0,0,False
2022-08-14,1.027175556972483,1.027175556972483,0.0,0,False
2022-08-15,1.027175556972483,1.027175556972483,0.0,0,False
2022-08-16,1.027175556972483,1.027175556972483,0.0,0,False
2022-08-17,1.027175556972483,1.027175556972483,0.0,0,False
2022-08-18,1.027175556972483,1.027175556972483,0.0,0,False
2022-08-19,1.027175556972483,1.0149705723742375,-1.1882082391269755,8,True
2022-08-20,1.0149705723742375,1.0185110040313627,0.3488211139800246,0,True
2022-08-21,1.0185110040313627,1.0185110040313627,0.0,0,False
2022-08-22,1.0185110040313627,1.0185110040313627,0.0,0,False
2022-08-23,1.0185110040313627,1.0185110040313627,0.0,0,False
2022-08-24,1.0185110040313627,1.0185110040313627,0.0,0,False
2022-08-25,1.0185110040313627,1.0185110040313627,0.0,0,False
2022-08-26,1.0185110040313627,1.0185110040313627,0.0,0,False
2022-08-27,1.0185110040313627,1.0185110040313627,0.0,0,False
2022-08-28,1.0185110040313627,1.0185110040313627,0.0,0,False
2022-08-29,1.0185110040313627,1.0185110040313627,0.0,0,False
2022-08-30,1.0185110040313627,1.0185110040313627,0.0,0,False
2022-08-31,1.0185110040313627,1.0185110040313627,0.0,0,False
2022-09-01,1.0185110040313627,1.0185110040313627,0.0,0,False
2022-09-02,1.0185110040313627,1.0185110040313627,0.0,0,False
2022-09-03,1.0185110040313627,1.0185110040313627,0.0,0,False
2022-09-04,1.0185110040313627,1.0185110040313627,0.0,0,False
2022-09-05,1.0185110040313627,1.0185110040313627,0.0,0,False
2022-09-06,1.0185110040313627,1.0185110040313627,0.0,0,False
2022-09-07,1.0185110040313627,1.0116353566401086,-0.6750685426116787,4,True
2022-09-08,1.0116353566401086,1.0116353566401086,0.0,0,False
2022-09-09,1.0116353566401086,1.0116353566401086,0.0,0,False
2022-09-10,1.0116353566401086,1.0116353566401086,0.0,0,False
2022-09-11,1.0116353566401086,1.0116353566401086,0.0,0,False
2022-09-12,1.0116353566401086,1.0116353566401086,0.0,0,False
2022-09-13,1.0116353566401086,1.003381242567981,-0.8159179113254478,4,True
2022-09-14,1.003381242567981,0.996497161757801,-0.6860882502209509,0,True
2022-09-15,0.996497161757801,1.001591348752162,0.5112093832133846,1,True
2022-09-16,1.001591348752162,1.001591348752162,0.0,0,False
2022-09-17,1.001591348752162,1.001591348752162,0.0,0,False
2022-09-18,1.001591348752162,1.001591348752162,0.0,0,False
2022-09-19,1.001591348752162,0.9977717237462259,-0.38135563078641743,5,True
2022-09-20,0.9977717237462259,0.9977717237462259,0.0,0,False
2022-09-21,0.9977717237462259,0.9977717237462259,0.0,0,False
2022-09-22,0.9977717237462259,0.9977717237462259,0.0,0,False
2022-09-23,0.9977717237462259,0.9977717237462259,0.0,0,False
2022-09-24,0.9977717237462259,0.9977717237462259,0.0,0,False
2022-09-25,0.9977717237462259,0.9977717237462259,0.0,0,False
2022-09-26,0.9977717237462259,0.9977717237462259,0.0,0,False
2022-09-27,0.9977717237462259,0.9977717237462259,0.0,0,False
2022-09-28,0.9977717237462259,0.9977717237462259,0.0,0,False
2022-09-29,0.9977717237462259,0.9977717237462259,0.0,0,False
2022-09-30,0.9977717237462259,0.9977717237462259,0.0,0,False
2022-10-01,0.9977717237462259,0.9977717237462259,0.0,0,False
2022-10-02,0.9977717237462259,0.9977717237462259,0.0,0,False
2022-10-03,0.9977717237462259,0.9977717237462259,0.0,0,False
2022-10-04,0.9977717237462259,0.9977717237462259,0.0,0,False
2022-10-05,0.9977717237462259,0.9977717237462259,0.0,0,False
2022-10-06,0.9977717237462259,0.9977717237462259,0.0,0,False
2022-10-07,0.9977717237462259,0.9977717237462259,0.0,0,False
2022-10-08,0.9977717237462259,0.9977717237462259,0.0,0,False
2022-10-09,0.9977717237462259,0.9977717237462259,0.0,0,False
2022-10-10,0.9977717237462259,0.9977717237462259,0.0,0,False
2022-10-11,0.9977717237462259,1.0232775210348803,2.5562758175678324,4,True
2022-10-12,1.0232775210348803,1.0232775210348803,0.0,0,False
2022-10-13,1.0232775210348803,1.0232775210348803,0.0,0,False
2022-10-14,1.0232775210348803,1.0232775210348803,0.0,0,False
2022-10-15,1.0232775210348803,1.0232775210348803,0.0,0,False
2022-10-16,1.0232775210348803,1.0232775210348803,0.0,0,False
2022-10-17,1.0232775210348803,1.0232775210348803,0.0,0,False
2022-10-18,1.0232775210348803,1.0232775210348803,0.0,0,False
2022-10-19,1.0232775210348803,1.0232775210348803,0.0,0,False
2022-10-20,1.0232775210348803,1.0275756378356615,0.4200343223052849,1,True
2022-10-21,1.0275756378356615,1.0275756378356615,0.0,0,False
2022-10-22,1.0275756378356615,1.0275756378356615,0.0,0,False
2022-10-23,1.0275756378356615,1.0275756378356615,0.0,0,False
2022-10-24,1.0275756378356615,1.0275756378356615,0.0,0,False
2022-10-25,1.0275756378356615,1.0275756378356615,0.0,0,False
2022-10-26,1.0275756378356615,1.0275756378356615,0.0,0,False
2022-10-27,1.0275756378356615,1.0275756378356615,0.0,0,False
2022-10-28,1.0275756378356615,1.0275756378356615,0.0,0,False
2022-10-29,1.0275756378356615,1.0275756378356615,0.0,0,False
2022-10-30,1.0275756378356615,1.0275756378356615,0.0,0,False
2022-10-31,1.0275756378356615,1.0275756378356615,0.0,0,False
2022-11-01,1.0275756378356615,1.0275756378356615,0.0,0,False
2022-11-02,1.0275756378356615,1.0336062495108236,0.5868776422010225,1,True
2022-11-03,1.0336062495108236,1.0336062495108236,0.0,0,False
2022-11-04,1.0336062495108236,1.0459669902499176,1.195884868628072,2,True
2022-11-05,1.0459669902499176,1.0449231552165152,-0.09979617360131865,0,True
2022-11-06,1.0449231552165152,1.0449231552165152,0.0,0,False
2022-11-07,1.0449231552165152,1.0425662543607321,-0.22555733826137292,1,True
2022-11-08,1.0425662543607321,1.0369661896854283,-0.5371423304639356,3,True
2022-11-09,1.0369661896854283,1.0265512895260775,-1.0043625590637872,4,True
2022-11-10,1.0265512895260775,1.0353179940392514,0.8539957625713024,1,True
2022-11-11,1.0353179940392514,1.0416616728065264,0.6127275681286459,5,True
2022-11-12,1.0416616728065264,1.0508304601042697,0.8802078003926184,1,True
2022-11-13,1.0508304601042697,1.0473019752155508,-0.3357806061663693,1,True
2022-11-14,1.0473019752155508,1.0525582486353227,0.5018870912269602,2,True
2022-11-15,1.0525582486353227,1.0525582486353227,0.0,0,False
2022-11-16,1.0525582486353227,1.0525582486353227,0.0,0,False
2022-11-17,1.0525582486353227,1.0525582486353227,0.0,0,False
2022-11-18,1.0525582486353227,1.0525582486353227,0.0,0,False
2022-11-19,1.0525582486353227,1.0538785802744537,0.1254402443610969,2,True
2022-11-20,1.0538785802744537,1.0505736749045755,-0.3135945100067872,1,True
2022-11-21,1.0505736749045755,1.0437832665095002,-0.6463524222317996,1,True
2022-11-22,1.0437832665095002,1.0437832665095002,0.0,0,False
2022-11-23,1.0437832665095002,1.0437832665095002,0.0,0,False
2022-11-24,1.0437832665095002,1.0437832665095002,0.0,0,False
2022-11-25,1.0437832665095002,1.0437832665095002,0.0,0,False
2022-11-26,1.0437832665095002,1.0437832665095002,0.0,0,False
2022-11-27,1.0437832665095002,1.0437832665095002,0.0,0,False
2022-11-28,1.0437832665095002,1.0396067129916875,-0.400136086850611,2,True
2022-11-29,1.0396067129916875,1.0396067129916875,0.0,0,False
2022-11-30,1.0396067129916875,1.0396067129916875,0.0,0,False
2022-12-01,1.0396067129916875,1.0395390564364724,-0.00650789903235971,1,True
2022-12-02,1.0395390564364724,1.0395390564364724,0.0,0,False
2022-12-03,1.0395390564364724,1.0395390564364724,0.0,0,False
2022-12-04,1.0395390564364724,1.0395390564364724,0.0,0,False
2022-12-05,1.0395390564364724,1.0395390564364724,0.0,0,False
2022-12-06,1.0395390564364724,1.0395390564364724,0.0,0,False
2022-12-07,1.0395390564364724,1.0395390564364724,0.0,0,False
2022-12-08,1.0395390564364724,1.034351119846692,-0.4990612481232448,1,True
2022-12-09,1.034351119846692,1.034351119846692,0.0,0,False
2022-12-10,1.034351119846692,1.034351119846692,0.0,0,False
2022-12-11,1.034351119846692,1.034351119846692,0.0,0,False
2022-12-12,1.034351119846692,1.034351119846692,0.0,0,False
2022-12-13,1.034351119846692,1.034351119846692,0.0,0,False
2022-12-14,1.034351119846692,1.034351119846692,0.0,0,False
2022-12-15,1.034351119846692,1.034351119846692,0.0,0,False
2022-12-16,1.034351119846692,1.034351119846692,0.0,0,False
2022-12-17,1.034351119846692,1.0401626327436342,0.5618510760450057,4,True
2022-12-18,1.0401626327436342,1.0401626327436342,0.0,0,False
2022-12-19,1.0401626327436342,1.0401626327436342,0.0,0,False
2022-12-20,1.0401626327436342,1.0401626327436342,0.0,0,False
2022-12-21,1.0401626327436342,1.0401626327436342,0.0,0,False
2022-12-22,1.0401626327436342,1.0401626327436342,0.0,0,False
2022-12-23,1.0401626327436342,1.0401626327436342,0.0,0,False
2022-12-24,1.0401626327436342,1.0401626327436342,0.0,0,False
2022-12-25,1.0401626327436342,1.0401626327436342,0.0,0,False
2022-12-26,1.0401626327436342,1.0401626327436342,0.0,0,False
2022-12-27,1.0401626327436342,1.0401626327436342,0.0,0,False
2022-12-28,1.0401626327436342,1.0429689840371226,0.26979927995356423,1,True
2022-12-29,1.0429689840371226,1.0410465674339513,-0.18432155055368993,0,True
2022-12-30,1.0410465674339513,1.0410465674339513,0.0,0,False
2022-12-31,1.0410465674339513,1.0410465674339513,0.0,0,False
2023-01-01,1.0410465674339513,1.0410465674339513,0.0,0,False
2023-01-02,1.0410465674339513,1.0414273064343964,0.036572715607108286,1,True
2023-01-03,1.0414273064343964,1.041520337644667,0.00893304887394919,0,True
2023-01-04,1.041520337644667,1.041520337644667,0.0,0,False
2023-01-05,1.041520337644667,1.041520337644667,0.0,0,False
2023-01-06,1.041520337644667,1.041520337644667,0.0,0,False
2023-01-07,1.041520337644667,1.041520337644667,0.0,0,False
2023-01-08,1.041520337644667,1.041520337644667,0.0,0,False
2023-01-09,1.041520337644667,1.041520337644667,0.0,0,False
2023-01-10,1.041520337644667,1.0392351141328238,-0.2194122792658071,2,True
2023-01-11,1.0392351141328238,1.039844363971787,0.05862483192473622,0,True
2023-01-12,1.039844363971787,1.039844363971787,0.0,0,False
2023-01-13,1.039844363971787,1.039844363971787,0.0,0,False
2023-01-14,1.039844363971787,1.039844363971787,0.0,0,False
2023-01-15,1.039844363971787,1.0389823721163451,-0.08289623767823162,1,True
2023-01-16,1.0389823721163451,1.0389823721163451,0.0,0,False
2023-01-17,1.0389823721163451,1.0389823721163451,0.0,0,False
2023-01-18,1.0389823721163451,1.0389823721163451,0.0,0,False
2023-01-19,1.0389823721163451,1.033793576703267,-0.49941130401556233,1,True
2023-01-20,1.033793576703267,1.033793576703267,0.0,0,False
2023-01-21,1.033793576703267,1.0351391806220054,0.1301617604386074,1,True
2023-01-22,1.0351391806220054,1.034424903502593,-0.06900300295688,0,True
2023-01-23,1.034424903502593,1.034424903502593,0.0,0,False
2023-01-24,1.034424903502593,1.0407421102784178,0.6106974759051642,1,True
2023-01-25,1.0407421102784178,1.046713443533093,0.5737572445375205,5,True
2023-01-26,1.046713443533093,1.046713443533093,0.0,0,False
2023-01-27,1.046713443533093,1.046713443533093,0.0,0,False
2023-01-28,1.046713443533093,1.046713443533093,0.0,0,False
2023-01-29,1.046713443533093,1.046713443533093,0.0,0,False
2023-01-30,1.046713443533093,1.0468971460740728,0.0175504138324456,2,True
2023-01-31,1.0468971460740728,1.0480447336205805,0.1096179840408551,2,True
2023-02-01,1.0480447336205805,1.0480447336205805,0.0,0,False
2023-02-02,1.0480447336205805,1.0480447336205805,0.0,0,False
2023-02-03,1.0480447336205805,1.0480447336205805,0.0,0,False
2023-02-04,1.0480447336205805,1.0480447336205805,0.0,0,False
2023-02-05,1.0480447336205805,1.0512928577677703,0.30992228127217913,4,True
2023-02-06,1.0512928577677703,1.0640325617755257,1.2118130465383237,1,True
2023-02-07,1.0640325617755257,1.063549917619182,-0.04535990473245599,0,True
2023-02-08,1.063549917619182,1.063549917619182,0.0,0,False
2023-02-09,1.063549917619182,1.063549917619182,0.0,0,False
2023-02-10,1.063549917619182,1.063549917619182,0.0,0,False
2023-02-11,1.063549917619182,1.063549917619182,0.0,0,False
2023-02-12,1.063549917619182,1.063549917619182,0.0,0,False
2023-02-13,1.063549917619182,1.063549917619182,0.0,0,False
2023-02-14,1.063549917619182,1.063549917619182,0.0,0,False
2023-02-15,1.063549917619182,1.063549917619182,0.0,0,False
2023-02-16,1.063549917619182,1.063549917619182,0.0,0,False
2023-02-17,1.063549917619182,1.063549917619182,0.0,0,False
2023-02-18,1.063549917619182,1.063549917619182,0.0,0,False
2023-02-19,1.063549917619182,1.063549917619182,0.0,0,False
2023-02-20,1.063549917619182,1.063549917619182,0.0,0,False
2023-02-21,1.063549917619182,1.060752088515586,-0.26306514224168076,2,True
2023-02-22,1.060752088515586,1.0611297263024597,0.03560094681522852,0,True
2023-02-23,1.0611297263024597,1.0731209982834675,1.1300476919812397,1,True
2023-02-24,1.0731209982834675,1.0731209982834675,0.0,0,False
2023-02-25,1.0731209982834675,1.0731209982834675,0.0,0,False
2023-02-26,1.0731209982834675,1.0731209982834675,0.0,0,False
2023-02-27,1.0731209982834675,1.0677611375801113,-0.49946471198771825,1,True
2023-02-28,1.0677611375801113,1.0677611375801113,0.0,0,False
2023-03-01,1.0677611375801113,1.0677611375801113,0.0,0,False
2023-03-02,1.0677611375801113,1.0677611375801113,0.0,0,False
2023-03-03,1.0677611375801113,1.0627015361208634,-0.4738514337311983,5,True
2023-03-04,1.0627015361208634,1.0627015361208634,0.0,0,False
2023-03-05,1.0627015361208634,1.0627015361208634,0.0,0,False
2023-03-06,1.0627015361208634,1.0627015361208634,0.0,0,False
2023-03-07,1.0627015361208634,1.0627015361208634,0.0,0,False
2023-03-08,1.0627015361208634,1.0627015361208634,0.0,0,False
2023-03-09,1.0627015361208634,1.0627015361208634,0.0,0,False
2023-03-10,1.0627015361208634,1.0627015361208634,0.0,0,False
2023-03-11,1.0627015361208634,1.0683782254900083,0.5341753235688529,1,True
2023-03-12,1.0683782254900083,1.0665925512422474,-0.16713877212743977,0,True
2023-03-13,1.0665925512422474,1.0665925512422474,0.0,0,False
2023-03-14,1.0665925512422474,1.0665925512422474,0.0,0,False
2023-03-15,1.0665925512422474,1.0665925512422474,0.0,0,False
2023-03-16,1.0665925512422474,1.069305030878243,0.2543126363329984,1,True
2023-03-17,1.069305030878243,1.0639652087778082,-0.4993731392107237,1,True
2023-03-18,1.0639652087778082,1.0639652087778082,0.0,0,False
2023-03-19,1.0639652087778082,1.0639652087778082,0.0,0,False
2023-03-20,1.0639652087778082,1.0639652087778082,0.0,0,False
2023-03-21,1.0639652087778082,1.0586530292706158,-0.49928131703615986,1,True
2023-03-22,1.0586530292706158,1.0586530292706158,0.0,0,False
2023-03-23,1.0586530292706158,1.0690602332757937,0.9830609007323465,3,True
2023-03-24,1.0690602332757937,1.0660201961767444,-0.28436537104500337,0,True
2023-03-25,1.0660201961767444,1.0607802423481159,-0.49154357932631454,1,True
2023-03-26,1.0607802423481159,1.0607802423481159,0.0,0,False
2023-03-27,1.0607802423481159,1.0607802423481159,0.0,0,False
2023-03-28,1.0607802423481159,1.0607802423481159,0.0,0,False
2023-03-29,1.0607802423481159,1.0607802423481159,0.0,0,False
2023-03-30,1.0607802423481159,1.0607802423481159,0.0,0,False
2023-03-31,1.0607802423481159,1.0607802423481159,0.0,0,False
2023-04-01,1.0607802423481159,1.0607802423481159,0.0,0,False
2023-04-02,1.0607802423481159,1.0607802423481159,0.0,0,False
2023-04-03,1.0607802423481159,1.0607802423481159,0.0,0,False
2023-04-04,1.0607802423481159,1.0607802423481159,0.0,0,False
2023-04-05,1.0607802423481159,1.0607802423481159,0.0,0,False
2023-04-06,1.0607802423481159,1.05547778448011,-0.49986393565065734,1,True
2023-04-07,1.05547778448011,1.053133607184884,-0.22209631786619388,1,True
2023-04-08,1.053133607184884,1.053133607184884,0.0,0,False
2023-04-09,1.053133607184884,1.053133607184884,0.0,0,False
2023-04-10,1.053133607184884,1.053133607184884,0.0,0,False
2023-04-11,1.053133607184884,1.053133607184884,0.0,0,False
2023-04-12,1.053133607184884,1.053133607184884,0.0,0,False
2023-04-13,1.053133607184884,1.053133607184884,0.0,0,False
2023-04-14,1.053133607184884,1.053133607184884,0.0,0,False
2023-04-15,1.053133607184884,1.053133607184884,0.0,0,False
2023-04-16,1.053133607184884,1.053133607184884,0.0,0,False
2023-04-17,1.053133607184884,1.053133607184884,0.0,0,False
2023-04-18,1.053133607184884,1.053133607184884,0.0,0,False
2023-04-19,1.053133607184884,1.042626864923769,-0.9976647017466589,2,True
2023-04-20,1.042626864923769,1.042626864923769,0.0,0,False
2023-04-21,1.042626864923769,1.042626864923769,0.0,0,False
2023-04-22,1.042626864923769,1.042626864923769,0.0,0,False
2023-04-23,1.042626864923769,1.042626864923769,0.0,0,False
2023-04-24,1.042626864923769,1.042626864923769,0.0,0,False
2023-04-25,1.042626864923769,1.042626864923769,0.0,0,False
2023-04-26,1.042626864923769,1.042626864923769,0.0,0,False
2023-04-27,1.042626864923769,1.042626864923769,0.0,0,False
2023-04-28,1.042626864923769,1.042626864923769,0.0,0,False
2023-04-29,1.042626864923769,1.042626864923769,0.0,0,False
2023-04-30,1.042626864923769,1.042626864923769,0.0,0,False
2023-05-01,1.042626864923769,1.042626864923769,0.0,0,False
2023-05-02,1.042626864923769,1.042626864923769,0.0,0,False
2023-05-03,1.042626864923769,1.042626864923769,0.0,0,False
2023-05-04,1.042626864923769,1.042626864923769,0.0,0,False
2023-05-05,1.042626864923769,1.042626864923769,0.0,0,False
2023-05-06,1.042626864923769,1.042626864923769,0.0,0,False
2023-05-07,1.042626864923769,1.042626864923769,0.0,0,False
2023-05-08,1.042626864923769,1.038879763774944,-0.35939042766742757,5,True
2023-05-09,1.038879763774944,1.0350917597914193,-0.36462390698230873,2,True
2023-05-10,1.0350917597914193,1.0366471226712468,0.15026328488412233,1,True
2023-05-11,1.0366471226712468,1.0345580944491128,-0.20151777557159134,0,True
2023-05-12,1.0345580944491128,1.0345580944491128,0.0,0,False
2023-05-13,1.0345580944491128,1.0345580944491128,0.0,0,False
2023-05-14,1.0345580944491128,1.0345580944491128,0.0,0,False
2023-05-15,1.0345580944491128,1.0345580944491128,0.0,0,False
2023-05-16,1.0345580944491128,1.0345580944491128,0.0,0,False
2023-05-17,1.0345580944491128,1.0345580944491128,0.0,0,False
2023-05-18,1.0345580944491128,1.0345580944491128,0.0,0,False
2023-05-19,1.0345580944491128,1.0345580944491128,0.0,0,False
2023-05-20,1.0345580944491128,1.0345580944491128,0.0,0,False
2023-05-21,1.0345580944491128,1.0345580944491128,0.0,0,False
2023-05-22,1.0345580944491128,1.0345580944491128,0.0,0,False
2023-05-23,1.0345580944491128,1.0345580944491128,0.0,0,False
2023-05-24,1.0345580944491128,1.0345580944491128,0.0,0,False
2023-05-25,1.0345580944491128,1.0345580944491128,0.0,0,False
2023-05-26,1.0345580944491128,1.0366063592431654,0.19798451194208422,1,True
2023-05-27,1.0366063592431654,1.0401631739967463,0.34312106248102214,0,True
2023-05-28,1.0401631739967463,1.0401631739967463,0.0,0,False
2023-05-29,1.0401631739967463,1.0401631739967463,0.0,0,False
2023-05-30,1.0401631739967463,1.0401631739967463,0.0,0,False
2023-05-31,1.0401631739967463,1.0401631739967463,0.0,0,False
2023-06-01,1.0401631739967463,1.0401631739967463,0.0,0,False
2023-06-02,1.0401631739967463,1.0534018432755479,1.2727492772055093,1,True
2023-06-03,1.0534018432755479,1.0534018432755479,0.0,0,False
2023-06-04,1.0534018432755479,1.0534018432755479,0.0,0,False
2023-06-05,1.0534018432755479,1.0534018432755479,0.0,0,False
2023-06-06,1.0534018432755479,1.0452583000789206,-0.7730709081830489,4,True
2023-06-07,1.0452583000789206,1.0452583000789206,0.0,0,False
2023-06-08,1.0452583000789206,1.0413578588273895,-0.3731557310988731,1,True
2023-06-09,1.0413578588273895,1.0413578588273895,0.0,0,False
2023-06-10,1.0413578588273895,1.0628187931664468,2.0608606500769344,5,True
2023-06-11,1.0628187931664468,1.0620392241909773,-0.07334918995428596,0,True
2023-06-12,1.0620392241909773,1.0620392241909773,0.0,0,False
2023-06-13,1.0620392241909773,1.0620392241909773,0.0,0,False
2023-06-14,1.0620392241909773,1.0620392241909773,0.0,0,False
2023-06-15,1.0620392241909773,1.0620392241909773,0.0,0,False
2023-06-16,1.0620392241909773,1.0620392241909773,0.0,0,False
2023-06-17,1.0620392241909773,1.0620392241909773,0.0,0,False
2023-06-18,1.0620392241909773,1.0620392241909773,0.0,0,False
2023-06-19,1.0620392241909773,1.067660826475566,0.5293215313088906,1,True
2023-06-20,1.067660826475566,1.0685426467211905,0.08259366867804374,0,True
2023-06-21,1.0685426467211905,1.0685426467211905,0.0,0,False
2023-06-22,1.0685426467211905,1.0670462523782933,-0.14004067572678247,1,True
2023-06-23,1.0670462523782933,1.0670462523782933,0.0,0,False
2023-06-24,1.0670462523782933,1.0670462523782933,0.0,0,False
2023-06-25,1.0670462523782933,1.0670462523782933,0.0,0,False
2023-06-26,1.0670462523782933,1.0670462523782933,0.0,0,False
2023-06-27,1.0670462523782933,1.0670462523782933,0.0,0,False
2023-06-28,1.0670462523782933,1.0670462523782933,0.0,0,False
2023-06-29,1.0670462523782933,1.0670462523782933,0.0,0,False
2023-06-30,1.0670462523782933,1.0457645484616616,-1.9944499940089622,4,True
2023-07-01,1.0457645484616616,1.0405420801788068,-0.4993923623187624,1,True
2023-07-02,1.0405420801788068,1.0405420801788068,0.0,0,False
2023-07-03,1.0405420801788068,1.0405420801788068,0.0,0,False
2023-07-04,1.0405420801788068,1.0405420801788068,0.0,0,False
2023-07-05,1.0405420801788068,1.0405420801788068,0.0,0,False
2023-07-06,1.0405420801788068,1.0405420801788068,0.0,0,False
2023-07-07,1.0405420801788068,1.0405420801788068,0.0,0,False
2023-07-08,1.0405420801788068,1.0405420801788068,0.0,0,False
2023-07-09,1.0405420801788068,1.0405420801788068,0.0,0,False
2023-07-10,1.0405420801788068,1.0405420801788068,0.0,0,False
2023-07-11,1.0405420801788068,1.0405420801788068,0.0,0,False
2023-07-12,1.0405420801788068,1.0405420801788068,0.0,0,False
2023-07-13,1.0405420801788068,1.0405420801788068,0.0,0,False
2023-07-14,1.0405420801788068,1.0405420801788068,0.0,0,False
2023-07-15,1.0405420801788068,1.0405420801788068,0.0,0,False
2023-07-16,1.0405420801788068,1.0405420801788068,0.0,0,False
2023-07-17,1.0405420801788068,1.0405420801788068,0.0,0,False
2023-07-18,1.0405420801788068,1.0405420801788068,0.0,0,False
2023-07-19,1.0405420801788068,1.0405420801788068,0.0,0,False
2023-07-20,1.0405420801788068,1.0405420801788068,0.0,0,False
2023-07-21,1.0405420801788068,1.0405420801788068,0.0,0,False
2023-07-22,1.0405420801788068,1.0405420801788068,0.0,0,False
2023-07-23,1.0405420801788068,1.0405420801788068,0.0,0,False
2023-07-24,1.0405420801788068,1.0405052450286756,-0.0035399962032167664,1,True
2023-07-25,1.0405052450286756,1.039005054223366,-0.14417907189581136,0,True
2023-07-26,1.039005054223366,1.039005054223366,0.0,0,False
2023-07-27,1.039005054223366,1.039005054223366,0.0,0,False
2023-07-28,1.039005054223366,1.039005054223366,0.0,0,False
2023-07-29,1.039005054223366,1.039005054223366,0.0,0,False
2023-07-30,1.039005054223366,1.039005054223366,0.0,0,False
2023-07-31,1.039005054223366,1.039005054223366,0.0,0,False
2023-08-01,1.039005054223366,1.039005054223366,0.0,0,False
2023-08-02,1.039005054223366,1.039005054223366,0.0,0,False
2023-08-03,1.039005054223366,1.039005054223366,0.0,0,False
2023-08-04,1.039005054223366,1.039005054223366,0.0,0,False
2023-08-05,1.039005054223366,1.039005054223366,0.0,0,False
2023-08-06,1.039005054223366,1.039005054223366,0.0,0,False
2023-08-07,1.039005054223366,1.039005054223366,0.0,0,False
2023-08-08,1.039005054223366,1.039005054223366,0.0,0,False
2023-08-09,1.039005054223366,1.039005054223366,0.0,0,False
2023-08-10,1.039005054223366,1.039005054223366,0.0,0,False
2023-08-11,1.039005054223366,1.039005054223366,0.0,0,False
2023-08-12,1.039005054223366,1.039005054223366,0.0,0,False
2023-08-13,1.039005054223366,1.039005054223366,0.0,0,False
2023-08-14,1.039005054223366,1.039005054223366,0.0,0,False
2023-08-15,1.039005054223366,1.039005054223366,0.0,0,False
2023-08-16,1.039005054223366,1.047733761859658,0.8401025193103262,4,True
2023-08-17,1.047733761859658,1.047733761859658,0.0,0,False
2023-08-18,1.047733761859658,1.094133830737712,4.4286125509305885,4,True
2023-08-19,1.094133830737712,1.094133830737712,0.0,0,False
2023-08-20,1.094133830737712,1.094133830737712,0.0,0,False
2023-08-21,1.094133830737712,1.094133830737712,0.0,0,False
2023-08-22,1.094133830737712,1.094133830737712,0.0,0,False
2023-08-23,1.094133830737712,1.094133830737712,0.0,0,False
2023-08-24,1.094133830737712,1.094133830737712,0.0,0,False
2023-08-25,1.094133830737712,1.078253849775009,-1.4513746414363315,3,True
2023-08-26,1.078253849775009,1.078253849775009,0.0,0,False
2023-08-27,1.078253849775009,1.078253849775009,0.0,0,False
2023-08-28,1.078253849775009,1.078253849775009,0.0,0,False
2023-08-29,1.078253849775009,1.078253849775009,0.0,0,False
2023-08-30,1.078253849775009,1.078253849775009,0.0,0,False
2023-08-31,1.078253849775009,1.078253849775009,0.0,0,False
2023-09-01,1.078253849775009,1.078253849775009,0.0,0,False
2023-09-02,1.078253849775009,1.080331717355542,0.19270671567430675,1,True
2023-09-03,1.080331717355542,1.0809624848204695,0.05838646175004847,0,True
2023-09-04,1.0809624848204695,1.0809624848204695,0.0,0,False
2023-09-05,1.0809624848204695,1.0809624848204695,0.0,0,False
2023-09-06,1.0809624848204695,1.0809624848204695,0.0,0,False
2023-09-07,1.0809624848204695,1.0809624848204695,0.0,0,False
2023-09-08,1.0809624848204695,1.0809624848204695,0.0,0,False
2023-09-09,1.0809624848204695,1.0809624848204695,0.0,0,False
2023-09-10,1.0809624848204695,1.079729732341729,-0.11404211487925364,2,True
2023-09-11,1.079729732341729,1.0793782802893794,-0.03255000226651816,1,True
2023-09-12,1.0793782802893794,1.0793782802893794,0.0,0,False
2023-09-13,1.0793782802893794,1.0759620988782967,-0.31649528932218285,1,True
2023-09-14,1.0759620988782967,1.0759620988782967,0.0,0,False
2023-09-15,1.0759620988782967,1.0759620988782967,0.0,0,False
2023-09-16,1.0759620988782967,1.0759620988782967,0.0,0,False
2023-09-17,1.0759620988782967,1.0759620988782967,0.0,0,False
2023-09-18,1.0759620988782967,1.0705881353234947,-0.4994565849860688,1,True
2023-09-19,1.0705881353234947,1.0705881353234947,0.0,0,False
2023-09-20,1.0705881353234947,1.0732616599092868,0.24972484726670796,1,True
2023-09-21,1.0732616599092868,1.0765065507986065,0.3023392161044747,0,True
2023-09-22,1.0765065507986065,1.0765065507986065,0.0,0,False
2023-09-23,1.0765065507986065,1.0765065507986065,0.0,0,False
2023-09-24,1.0765065507986065,1.0765065507986065,0.0,0,False
2023-09-25,1.0765065507986065,1.0765065507986065,0.0,0,False
2023-09-26,1.0765065507986065,1.0775365759377864,0.09568219890681018,1,True
2023-09-27,1.0775365759377864,1.076106535766738,-0.1327138403449335,0,True
2023-09-28,1.076106535766738,1.076106535766738,0.0,0,False
2023-09-29,1.076106535766738,1.076106535766738,0.0,0,False
2023-09-30,1.076106535766738,1.076106535766738,0.0,0,False
2023-10-01,1.076106535766738,1.076106535766738,0.0,0,False
2023-10-02,1.076106535766738,1.076106535766738,0.0,0,False
2023-10-03,1.076106535766738,1.0765208198151637,0.038498423218880085,1,True
2023-10-04,1.0765208198151637,1.0739047958380719,-0.2430072813214168,0,True
2023-10-05,1.0739047958380719,1.0739047958380719,0.0,0,False
2023-10-06,1.0739047958380719,1.0739047958380719,0.0,0,False
2023-10-07,1.0739047958380719,1.0739047958380719,0.0,0,False
2023-10-08,1.0739047958380719,1.0739047958380719,0.0,0,False
2023-10-09,1.0739047958380719,1.0739047958380719,0.0,0,False
2023-10-10,1.0739047958380719,1.0739047958380719,0.0,0,False
2023-10-11,1.0739047958380719,1.0739047958380719,0.0,0,False
2023-10-12,1.0739047958380719,1.0739047958380719,0.0,0,False
2023-10-13,1.0739047958380719,1.0739047958380719,0.0,0,False
2023-10-14,1.0739047958380719,1.0739047958380719,0.0,0,False
2023-10-15,1.0739047958380719,1.0739544912745036,0.004627545814517298,1,True
2023-10-16,1.0739544912745036,1.0748411001663856,0.08255553648550684,1,True
2023-10-17,1.0748411001663856,1.068957258072247,-0.5474150637920006,1,True
2023-10-18,1.068957258072247,1.068957258072247,0.0,0,False
2023-10-19,1.068957258072247,1.0594178805630863,-0.8924002748588844,2,True
2023-10-20,1.0594178805630863,1.0594178805630863,0.0,0,False
2023-10-21,1.0594178805630863,1.0604655972946744,0.09889551147006514,1,True
2023-10-22,1.0604655972946744,1.0604655972946744,0.0,0,False
2023-10-23,1.0604655972946744,1.0604655972946744,0.0,0,False
2023-10-24,1.0604655972946744,1.0604655972946744,0.0,0,False
2023-10-25,1.0604655972946744,1.0604655972946744,0.0,0,False
2023-10-26,1.0604655972946744,1.0675231459682262,0.6655141563815192,2,True
2023-10-27,1.0675231459682262,1.0685630569017461,0.09741343196607577,1,True
2023-10-28,1.0685630569017461,1.0699499954500984,0.1297947312883574,0,True
2023-10-29,1.0699499954500984,1.0699499954500984,0.0,0,False
2023-10-30,1.0699499954500984,1.0699499954500984,0.0,0,False
2023-10-31,1.0699499954500984,1.0699499954500984,0.0,0,False
2023-11-01,1.0699499954500984,1.0699499954500984,0.0,0,False
2023-11-02,1.0699499954500984,1.0699499954500984,0.0,0,False
2023-11-03,1.0699499954500984,1.0699499954500984,0.0,0,False
2023-11-04,1.0699499954500984,1.0699499954500984,0.0,0,False
2023-11-05,1.0699499954500984,1.0699499954500984,0.0,0,False
2023-11-06,1.0699499954500984,1.0699499954500984,0.0,0,False
2023-11-07,1.0699499954500984,1.06460466427474,-0.4995870085601317,1,True
2023-11-08,1.06460466427474,1.06460466427474,0.0,0,False
2023-11-09,1.06460466427474,1.0680683117577983,0.3253458865331904,3,True
2023-11-10,1.0680683117577983,1.082224514775459,1.3254023981259078,4,True
2023-11-11,1.082224514775459,1.082224514775459,0.0,0,False
2023-11-12,1.082224514775459,1.082224514775459,0.0,0,False
2023-11-13,1.082224514775459,1.082224514775459,0.0,0,False
2023-11-14,1.082224514775459,1.082224514775459,0.0,0,False
2023-11-15,1.082224514775459,1.082224514775459,0.0,0,False
2023-11-16,1.082224514775459,1.082224514775459,0.0,0,False
2023-11-17,1.082224514775459,1.082224514775459,0.0,0,False
2023-11-18,1.082224514775459,1.082224514775459,0.0,0,False
2023-11-19,1.082224514775459,1.082224514775459,0.0,0,False
2023-11-20,1.082224514775459,1.0840986427684765,0.17317367768243663,1,True
2023-11-21,1.0840986427684765,1.0801870973429362,-0.36081084056625023,0,True
2023-11-22,1.0801870973429362,1.0765399134966305,-0.3376437151746292,1,True
2023-11-23,1.0765399134966305,1.0765399134966305,0.0,0,False
2023-11-24,1.0765399134966305,1.0765399134966305,0.0,0,False
2023-11-25,1.0765399134966305,1.0807617614267149,0.39216826772094926,1,True
2023-11-26,1.0807617614267149,1.0807617614267149,0.0,0,False
2023-11-27,1.0807617614267149,1.0753648798018423,-0.4993590463219344,1,True
2023-11-28,1.0753648798018423,1.0753648798018423,0.0,0,False
2023-11-29,1.0753648798018423,1.0723442257381568,-0.28089573319913796,1,True
2023-11-30,1.0723442257381568,1.0723442257381568,0.0,0,False
2023-12-01,1.0723442257381568,1.0723442257381568,0.0,0,False
2023-12-02,1.0723442257381568,1.0723442257381568,0.0,0,False
2023-12-03,1.0723442257381568,1.0732177283460933,0.08145729579838168,1,True
2023-12-04,1.0732177283460933,1.08335452487223,0.9445237679551077,4,True
2023-12-05,1.08335452487223,1.0879452206202622,0.42374824147004553,0,True
2023-12-06,1.0879452206202622,1.0879452206202622,0.0,0,False
2023-12-07,1.0879452206202622,1.0825112109864004,-0.49947456276924207,1,True
2023-12-08,1.0825112109864004,1.0825112109864004,0.0,0,False
2023-12-09,1.0825112109864004,1.0825112109864004,0.0,0,False
2023-12-10,1.0825112109864004,1.0825112109864004,0.0,0,False
2023-12-11,1.0825112109864004,1.0958946329029324,1.2363310218595158,4,True
2023-12-12,1.0958946329029324,1.0958946329029324,0.0,0,False
2023-12-13,1.0958946329029324,1.093870794698947,-0.18467452465065204,1,True
2023-12-14,1.093870794698947,1.093870794698947,0.0,0,False
2023-12-15,1.093870794698947,1.093870794698947,0.0,0,False
2023-12-16,1.093870794698947,1.093870794698947,0.0,0,False
2023-12-17,1.093870794698947,1.093870794698947,0.0,0,False
2023-12-18,1.093870794698947,1.0978343455140493,0.362341771469743,1,True
2023-12-19,1.0978343455140493,1.0950119133324607,-0.25709089837839816,0,True
2023-12-20,1.0950119133324607,1.0950119133324607,0.0,0,False
2023-12-21,1.0950119133324607,1.0950119133324607,0.0,0,False
2023-12-22,1.0950119133324607,1.0950119133324607,0.0,0,False
2023-12-23,1.0950119133324607,1.0950119133324607,0.0,0,False
2023-12-24,1.0950119133324607,1.093456890530223,-0.14200966978571428,1,True
2023-12-25,1.093456890530223,1.094515467523827,0.09681012601150396,0,True
2023-12-26,1.094515467523827,1.094515467523827,0.0,0,False
2023-12-27,1.094515467523827,1.0892417025872096,-0.4818355786737616,2,True
2023-12-28,1.0892417025872096,1.0892417025872096,0.0,0,False
2023-12-29,1.0892417025872096,1.0892417025872096,0.0,0,False
2023-12-30,1.0892417025872096,1.0892417025872096,0.0,0,False
2023-12-31,1.0892417025872096,1.0892417025872096,0.0,0,False
