day,start_equity,end_equity,return_pct,entries,active
2021-09-02,1.0,1.0,0.0,0,False
2021-09-03,1.0,1.0,0.0,0,False
2021-09-04,1.0,1.0,0.0,0,False
2021-09-05,1.0,1.0,0.0,0,False
2021-09-06,1.0,1.0,0.0,0,False
2021-09-07,1.0,1.0,0.0,0,False
2021-09-08,1.0,1.0,0.0,0,False
2021-09-09,1.0,1.0,0.0,0,False
2021-09-10,1.0,1.0,0.0,0,False
2021-09-11,1.0,1.0,0.0,0,False
2021-09-12,1.0,1.0,0.0,0,False
2021-09-13,1.0,1.0,0.0,0,False
2021-09-14,1.0,1.0,0.0,0,False
2021-09-15,1.0,1.0,0.0,0,False
2021-09-16,1.0,1.0,0.0,0,False
2021-09-17,1.0,1.0,0.0,0,False
2021-09-18,1.0,1.0,0.0,0,False
2021-09-19,1.0,1.0,0.0,0,False
2021-09-20,1.0,1.0,0.0,0,False
2021-09-21,1.0,1.0,0.0,0,False
2021-09-22,1.0,1.0,0.0,0,False
2021-09-23,1.0,1.0,0.0,0,False
2021-09-24,1.0,1.0,0.0,0,False
2021-09-25,1.0,1.0,0.0,0,False
2021-09-26,1.0,1.0,0.0,0,False
2021-09-27,1.0,1.0,0.0,0,False
2021-09-28,1.0,1.0,0.0,0,False
2021-09-29,1.0,1.0,0.0,0,False
2021-09-30,1.0,1.0,0.0,0,False
2021-10-01,1.0,1.0,0.0,0,False
2021-10-02,1.0,1.0,0.0,0,False
2021-10-03,1.0,1.0,0.0,0,False
2021-10-04,1.0,1.0,0.0,0,False
2021-10-05,1.0,1.0,0.0,0,False
2021-10-06,1.0,0.9928853780774104,-0.7114621922589603,2,True
2021-10-07,0.9928853780774104,0.9928853780774104,0.0,0,False
2021-10-08,0.9928853780774104,0.9928853780774104,0.0,0,False
2021-10-09,0.9928853780774104,0.9928853780774104,0.0,0,False
2021-10-10,0.9928853780774104,0.9928853780774104,0.0,0,False
2021-10-11,0.9928853780774104,0.9928853780774104,0.0,0,False
2021-10-12,0.9928853780774104,0.9928853780774104,0.0,0,False
2021-10-13,0.9928853780774104,1.0012883342392693,0.8463168405330013,1,True
2021-10-14,1.0012883342392693,1.0075099887546672,0.6213649258307585,0,True
2021-10-15,1.0075099887546672,1.0084102881358021,0.08935885412388878,2,True
2021-10-16,1.0084102881358021,1.003609267915519,-0.4760979014958755,2,True
2021-10-17,1.003609267915519,1.003609267915519,0.0,0,False
2021-10-18,1.003609267915519,1.003609267915519,0.0,0,False
2021-10-19,1.003609267915519,1.003609267915519,0.0,0,False
2021-10-20,1.003609267915519,1.003609267915519,0.0,0,False
2021-10-21,1.003609267915519,1.003609267915519,0.0,0,False
2021-10-22,1.003609267915519,1.003609267915519,0.0,0,False
2021-10-23,1.003609267915519,1.003609267915519,0.0,0,False
2021-10-24,1.003609267915519,1.003609267915519,0.0,0,False
2021-10-25,1.003609267915519,1.0056067431556381,0.19902917439849066,1,True
2021-10-26,1.0056067431556381,1.0056067431556381,0.0,0,False
2021-10-27,1.0056067431556381,1.0286025985259024,2.2867642372904395,4,True
2021-10-28,1.0286025985259024,1.0215264916958644,-0.6879339834624965,0,True
2021-10-29,1.0215264916958644,1.0215264916958644,0.0,0,False
2021-10-30,1.0215264916958644,1.0198560056940795,-0.16352840727720253,1,True
2021-10-31,1.0198560056940795,1.0193433839815398,-0.05026412647253231,4,True
2021-11-01,1.0193433839815398,1.0083200642828005,-1.0814137681143698,2,True
2021-11-02,1.0083200642828005,1.0083200642828005,0.0,0,False
2021-11-03,1.0083200642828005,1.0083200642828005,0.0,0,False
2021-11-04,1.0083200642828005,1.004087115255665,-0.4198021220718662,1,True
2021-11-05,1.004087115255665,1.004087115255665,0.0,0,False
2021-11-06,1.004087115255665,1.004087115255665,0.0,0,False
2021-11-07,1.004087115255665,1.004087115255665,0.0,0,False
2021-11-08,1.004087115255665,1.004087115255665,0.0,0,False
2021-11-09,1.004087115255665,1.004087115255665,0.0,0,False
2021-11-10,1.004087115255665,1.004087115255665,0.0,0,False
2021-11-11,1.004087115255665,1.0230794991603303,1.891507580976115,6,True
2021-11-12,1.0230794991603303,1.019525361647595,-0.347396025006097,1,True
2021-11-13,1.019525361647595,1.019525361647595,0.0,0,False
2021-11-14,1.019525361647595,1.019525361647595,0.0,0,False
2021-11-15,1.019525361647595,1.019525361647595,0.0,0,False
2021-11-16,1.019525361647595,1.0708160942993965,5.030844212537633,4,True
2021-11-17,1.0708160942993965,1.077718031436923,0.6445492530668728,0,True
2021-11-18,1.077718031436923,1.073879797089031,-0.3561445791877893,1,True
2021-11-19,1.073879797089031,1.073879797089031,0.0,0,False
2021-11-20,1.073879797089031,1.073879797089031,0.0,0,False
2021-11-21,1.073879797089031,1.073879797089031,0.0,0,False
2021-11-22,1.073879797089031,1.073879797089031,0.0,0,False
2021-11-23,1.073879797089031,1.073879797089031,0.0,0,False
2021-11-24,1.073879797089031,1.073879797089031,0.0,0,False
2021-11-25,1.073879797089031,1.0685170310483856,-0.4993823382451468,1,True
2021-11-26,1.0685170310483856,1.0685539005446838,0.0034505295869680097,6,True
2021-11-27,1.0685539005446838,1.0676585410063941,-0.08379170557828441,0,True
2021-11-28,1.0676585410063941,1.0623290222832789,-0.4991782033693659,1,True
2021-11-29,1.0623290222832789,1.0623290222832789,0.0,0,False
2021-11-30,1.0623290222832789,1.0623290222832789,0.0,0,False
2021-12-01,1.0623290222832789,1.0675090688655848,0.4876122626465085,1,True
2021-12-02,1.0675090688655848,1.0690250313269856,0.14200932859631532,2,True
2021-12-03,1.0690250313269856,1.0656280936663445,-0.31776034808319586,1,True
2021-12-04,1.0656280936663445,1.0406401278929591,-2.3449049365255603,13,True
2021-12-05,1.0406401278929591,1.0406401278929591,0.0,0,False
2021-12-06,1.0406401278929591,1.0406401278929591,0.0,0,False
2021-12-07,1.0406401278929591,1.0406401278929591,0.0,0,False
2021-12-08,1.0406401278929591,1.0406401278929591,0.0,0,False
2021-12-09,1.0406401278929591,1.0406401278929591,0.0,0,False
2021-12-10,1.0406401278929591,1.0406401278929591,0.0,0,False
2021-12-11,1.0406401278929591,1.0406401278929591,0.0,0,False
2021-12-12,1.0406401278929591,1.0406401278929591,0.0,0,False
2021-12-13,1.0406401278929591,1.0406401278929591,0.0,0,False
2021-12-14,1.0406401278929591,1.0406401278929591,0.0,0,False
2021-12-15,1.0406401278929591,1.0406401278929591,0.0,0,False
2021-12-16,1.0406401278929591,1.0406401278929591,0.0,0,False
2021-12-17,1.0406401278929591,1.0378820913350253,-0.26503269324412715,1,True
2021-12-18,1.0378820913350253,1.0378820913350253,0.0,0,False
2021-12-19,1.0378820913350253,1.0378820913350253,0.0,0,False
2021-12-20,1.0378820913350253,1.0378820913350253,0.0,0,False
2021-12-21,1.0378820913350253,1.0378820913350253,0.0,0,False
2021-12-22,1.0378820913350253,1.0378820913350253,0.0,0,False
2021-12-23,1.0378820913350253,1.0378820913350253,0.0,0,False
2021-12-24,1.0378820913350253,1.0378820913350253,0.0,0,False
2021-12-25,1.0378820913350253,1.0378820913350253,0.0,0,False
2021-12-26,1.0378820913350253,1.0378820913350253,0.0,0,False
2021-12-27,1.0378820913350253,1.0378820913350253,0.0,0,False
2021-12-28,1.0378820913350253,1.0378820913350253,0.0,0,False
2021-12-29,1.0378820913350253,1.0378820913350253,0.0,0,False
2021-12-30,1.0378820913350253,1.0378820913350253,0.0,0,False
2021-12-31,1.0378820913350253,1.0378820913350253,0.0,0,False
2022-01-01,1.0378820913350253,1.0378820913350253,0.0,0,False
2022-01-02,1.0378820913350253,1.0378820913350253,0.0,0,False
2022-01-03,1.0378820913350253,1.0378820913350253,0.0,0,False
2022-01-04,1.0378820913350253,1.0378820913350253,0.0,0,False
2022-01-05,1.0378820913350253,1.0378820913350253,0.0,0,False
2022-01-06,1.0378820913350253,1.0327072050983697,-0.4986005905544766,1,True
2022-01-07,1.0327072050983697,1.0327072050983697,0.0,0,False
2022-01-08,1.0327072050983697,1.0327072050983697,0.0,0,False
2022-01-09,1.0327072050983697,1.0327072050983697,0.0,0,False
2022-01-10,1.0327072050983697,1.0327072050983697,0.0,0,False
2022-01-11,1.0327072050983697,1.0327072050983697,0.0,0,False
2022-01-12,1.0327072050983697,1.0327072050983697,0.0,0,False
2022-01-13,1.0327072050983697,1.0327072050983697,0.0,0,False
2022-01-14,1.0327072050983697,1.0327072050983697,0.0,0,False
2022-01-15,1.0327072050983697,1.0327072050983697,0.0,0,False
2022-01-16,1.0327072050983697,1.0327072050983697,0.0,0,False
2022-01-17,1.0327072050983697,1.0327072050983697,0.0,0,False
2022-01-18,1.0327072050983697,1.0327072050983697,0.0,0,False
2022-01-19,1.0327072050983697,1.0327072050983697,0.0,0,False
2022-01-20,1.0327072050983697,1.0327072050983697,0.0,0,False
2022-01-21,1.0327072050983697,1.0327072050983697,0.0,0,False
2022-01-22,1.0327072050983697,1.0542736676581246,2.088342412378208,3,True
2022-01-23,1.0542736676581246,1.052732122629944,-0.14621867883742867,0,True
2022-01-24,1.052732122629944,1.052732122629944,0.0,0,False
2022-01-25,1.052732122629944,1.052732122629944,0.0,0,False
2022-01-26,1.052732122629944,1.052732122629944,0.0,0,False
2022-01-27,1.052732122629944,1.052732122629944,0.0,0,False
2022-01-28,1.052732122629944,1.052732122629944,0.0,0,False
2022-01-29,1.052732122629944,1.052732122629944,0.0,0,False
2022-01-30,1.052732122629944,1.052732122629944,0.0,0,False
2022-01-31,1.052732122629944,1.054322069302653,0.15103050800207019,1,True
2022-02-01,1.054322069302653,1.054322069302653,0.0,0,False
2022-02-02,1.054322069302653,1.054322069302653,0.0,0,False
2022-02-03,1.054322069302653,1.054322069302653,0.0,0,False
2022-02-04,1.054322069302653,1.054322069302653,0.0,0,False
2022-02-05,1.054322069302653,1.054322069302653,0.0,0,False
2022-02-06,1.054322069302653,1.054322069302653,0.0,0,False
2022-02-07,1.054322069302653,1.054322069302653,0.0,0,False
2022-02-08,1.054322069302653,1.054322069302653,0.0,0,False
2022-02-09,1.054322069302653,1.054322069302653,0.0,0,False
2022-02-10,1.054322069302653,1.056093951526559,0.1680589143958633,2,True
2022-02-11,1.056093951526559,1.0557525170731556,-0.0323299317177117,0,True
2022-02-12,1.0557525170731556,1.0557525170731556,0.0,0,False
2022-02-13,1.0557525170731556,1.0557525170731556,0.0,0,False
2022-02-14,1.0557525170731556,1.0557525170731556,0.0,0,False
2022-02-15,1.0557525170731556,1.0557525170731556,0.0,0,False
2022-02-16,1.0557525170731556,1.0557525170731556,0.0,0,False
2022-02-17,1.0557525170731556,1.0557525170731556,0.0,0,False
2022-02-18,1.0557525170731556,1.0557525170731556,0.0,0,False
2022-02-19,1.0557525170731556,1.0557525170731556,0.0,0,False
2022-02-20,1.0557525170731556,1.0557525170731556,0.0,0,False
2022-02-21,1.0557525170731556,1.0557525170731556,0.0,0,False
2022-02-22,1.0557525170731556,1.0557525170731556,0.0,0,False
2022-02-23,1.0557525170731556,1.0557525170731556,0.0,0,False
2022-02-24,1.0557525170731556,1.0557525170731556,0.0,0,False
2022-02-25,1.0557525170731556,1.0557525170731556,0.0,0,False
2022-02-26,1.0557525170731556,1.0557525170731556,0.0,0,False
2022-02-27,1.0557525170731556,1.0557525170731556,0.0,0,False
2022-02-28,1.0557525170731556,1.0557525170731556,0.0,0,False
2022-03-01,1.0557525170731556,1.0557525170731556,0.0,0,False
2022-03-02,1.0557525170731556,1.0557525170731556,0.0,0,False
2022-03-03,1.0557525170731556,1.0557525170731556,0.0,0,False
2022-03-04,1.0557525170731556,1.0557525170731556,0.0,0,False
2022-03-05,1.0557525170731556,1.0557525170731556,0.0,0,False
2022-03-06,1.0557525170731556,1.0557525170731556,0.0,0,False
2022-03-07,1.0557525170731556,1.0557525170731556,0.0,0,False
2022-03-08,1.0557525170731556,1.0557525170731556,0.0,0,False
2022-03-09,1.0557525170731556,1.0557525170731556,0.0,0,False
2022-03-10,1.0557525170731556,1.0557525170731556,0.0,0,False
2022-03-11,1.0557525170731556,1.0557525170731556,0.0,0,False
2022-03-12,1.0557525170731556,1.0557525170731556,0.0,0,False
2022-03-13,1.0557525170731556,1.0557525170731556,0.0,0,False
2022-03-14,1.0557525170731556,1.0557525170731556,0.0,0,False
2022-03-15,1.0557525170731556,1.0557525170731556,0.0,0,False
2022-03-16,1.0557525170731556,1.0557525170731556,0.0,0,False
2022-03-17,1.0557525170731556,1.0557525170731556,0.0,0,False
2022-03-18,1.0557525170731556,1.0557525170731556,0.0,0,False
2022-03-19,1.0557525170731556,1.0557525170731556,0.0,0,False
2022-03-20,1.0557525170731556,1.0557525170731556,0.0,0,False
2022-03-21,1.0557525170731556,1.0557525170731556,0.0,0,False
2022-03-22,1.0557525170731556,1.0557525170731556,0.0,0,False
2022-03-23,1.0557525170731556,1.0557525170731556,0.0,0,False
2022-03-24,1.0557525170731556,1.0557525170731556,0.0,0,False
2022-03-25,1.0557525170731556,1.0557525170731556,0.0,0,False
2022-03-26,1.0557525170731556,1.0586723202018586,0.276561322988611,1,True
2022-03-27,1.0586723202018586,1.0586723202018586,0.0,0,False
2022-03-28,1.0586723202018586,1.056344243400219,-0.2199053245479865,1,True
2022-03-29,1.056344243400219,1.056344243400219,0.0,0,False
2022-03-30,1.056344243400219,1.053828491266999,-0.2381564673578529,1,True
2022-03-31,1.053828491266999,1.053828491266999,0.0,0,False
2022-04-01,1.053828491266999,1.0537502137209103,-0.007427920836977631,1,True
2022-04-02,1.0537502137209103,1.0537502137209103,0.0,0,False
2022-04-03,1.0537502137209103,1.0532470611908786,-0.04774874761400705,1,True
2022-04-04,1.0532470611908786,1.047989871356472,-0.49914118236062954,1,True
2022-04-05,1.047989871356472,1.047989871356472,0.0,0,False
2022-04-06,1.047989871356472,1.0523861931651481,0.41950041015050843,1,True
2022-04-07,1.0523861931651481,1.0471347598959595,-0.4990024862825737,1,True
2022-04-08,1.0471347598959595,1.0471347598959595,0.0,0,False
2022-04-09,1.0471347598959595,1.0471347598959595,0.0,0,False
2022-04-10,1.0471347598959595,1.0471347598959595,0.0,0,False
2022-04-11,1.0471347598959595,1.0471347598959595,0.0,0,False
2022-04-12,1.0471347598959595,1.0471347598959595,0.0,0,False
2022-04-13,1.0471347598959595,1.0471347598959595,0.0,0,False
2022-04-14,1.0471347598959595,1.0471347598959595,0.0,0,False
2022-04-15,1.0471347598959595,1.0471347598959595,0.0,0,False
2022-04-16,1.0471347598959595,1.0471347598959595,0.0,0,False
2022-04-17,1.0471347598959595,1.0471347598959595,0.0,0,False
2022-04-18,1.0471347598959595,1.0517093164864446,0.4368641712304111,1,True
2022-04-19,1.0517093164864446,1.0489211465123924,-0.2651084221034439,0,True
2022-04-20,1.0489211465123924,1.0489211465123924,0.0,0,False
2022-04-21,1.0489211465123924,1.0489211465123924,0.0,0,False
2022-04-22,1.0489211465123924,1.0489211465123924,0.0,0,False
2022-04-23,1.0489211465123924,1.0489211465123924,0.0,0,False
2022-04-24,1.0489211465123924,1.0489211465123924,0.0,0,False
2022-04-25,1.0489211465123924,1.0489211465123924,0.0,0,False
2022-04-26,1.0489211465123924,1.0489211465123924,0.0,0,False
2022-04-27,1.0489211465123924,1.0436849907293508,-0.4991944151809258,1,True
2022-04-28,1.0436849907293508,1.0436849907293508,0.0,0,False
2022-04-29,1.0436849907293508,1.0384726963661681,-0.4994126014536526,1,True
2022-04-30,1.0384726963661681,1.0384726963661681,0.0,0,False
2022-05-01,1.0384726963661681,1.055068440566488,1.5980915298391407,5,True
2022-05-02,1.055068440566488,1.055068440566488,0.0,0,False
2022-05-03,1.055068440566488,1.055068440566488,0.0,0,False
2022-05-04,1.055068440566488,1.0498000583271638,-0.4993403306135846,1,True
2022-05-05,1.0498000583271638,1.0498000583271638,0.0,0,False
2022-05-06,1.0498000583271638,1.0397713558135198,-0.9552964332679381,2,True
2022-05-07,1.0397713558135198,1.0397713558135198,0.0,0,False
2022-05-08,1.0397713558135198,1.0397713558135198,0.0,0,False
2022-05-09,1.0397713558135198,1.0397713558135198,0.0,0,False
2022-05-10,1.0397713558135198,1.0297723189063268,-0.9616572769856391,7,True
2022-05-11,1.0297723189063268,1.0265307574456484,-0.31478428786289037,9,True
2022-05-12,1.0265307574456484,1.0369227396531662,1.0123400718529352,8,True
2022-05-13,1.0369227396531662,1.0373087212536474,0.03722375696093572,0,True
2022-05-14,1.0373087212536474,1.0350768850203245,-0.21515641270475339,2,True
2022-05-15,1.0350768850203245,1.0299115653315714,-0.49902763393770977,1,True
2022-05-16,1.0299115653315714,1.0247727760328116,-0.49895442208238716,1,True
2022-05-17,1.0247727760328116,1.0247727760328116,0.0,0,False
2022-05-18,1.0247727760328116,1.0247727760328116,0.0,0,False
2022-05-19,1.0247727760328116,1.0196578016062865,-0.4991325439310135,1,True
2022-05-20,1.0196578016062865,1.0145716463573087,-0.4988100165531528,1,True
2022-05-21,1.0145716463573087,1.0145716463573087,0.0,0,False
2022-05-22,1.0145716463573087,1.0145716463573087,0.0,0,False
2022-05-23,1.0145716463573087,1.0095081131521924,-0.49908089027486113,1,True
2022-05-24,1.0095081131521924,1.0068381900201357,-0.2644776299736473,2,True
2022-05-25,1.0068381900201357,1.001011614042048,-0.5787003349536524,1,True
2022-05-26,1.001011614042048,1.0008576888400553,-0.015376964645907876,1,True
2022-05-27,1.0008576888400553,0.9958594041150255,-0.49940014257398024,1,True
2022-05-28,0.9958594041150255,0.9958594041150255,0.0,0,False
2022-05-29,0.9958594041150255,0.9958594041150255,0.0,0,False
2022-05-30,0.9958594041150255,0.9958594041150255,0.0,0,False
2022-05-31,0.9958594041150255,0.9943147642439146,-0.1551062192843844,3,True
2022-06-01,0.9943147642439146,0.9943147642439146,0.0,0,False
2022-06-02,0.9943147642439146,0.9893507916572002,-0.4992355303593543,1,True
2022-06-03,0.9893507916572002,0.9893507916572002,0.0,0,False
2022-06-04,0.9893507916572002,0.9893507916572002,0.0,0,False
2022-06-05,0.9893507916572002,0.9893507916572002,0.0,0,False
2022-06-06,0.9893507916572002,0.9893507916572002,0.0,0,False
2022-06-07,0.9893507916572002,0.9906873978163957,0.13509931668995723,1,True
2022-06-08,0.9906873978163957,0.9878899856741514,-0.28237082135194047,1,True
2022-06-09,0.9878899856741514,0.9878899856741514,0.0,0,False
2022-06-10,0.9878899856741514,0.9897060552124295,0.18383317622545636,2,True
2022-06-11,0.9897060552124295,0.9850908799945444,-0.4663177711784816,1,True
2022-06-12,0.9850908799945444,0.9887898131362726,0.37549156294580666,4,True
2022-06-13,0.9887898131362726,0.9825717466719533,-0.6288562424198729,3,True
2022-06-14,0.9825717466719533,0.9858356263419956,0.3321772360234565,1,True
2022-06-15,0.9858356263419956,0.9858356263419956,0.0,0,False
2022-06-16,0.9858356263419956,1.0209198014971939,3.5588260575832864,4,True
2022-06-17,1.0209198014971939,1.018460985362814,-0.24084322106143752,1,True
2022-06-18,1.018460985362814,0.9981879485539096,-1.9905560547007428,4,True
2022-06-19,0.9981879485539096,0.9981879485539096,0.0,0,False
2022-06-20,0.9981879485539096,0.9981879485539096,0.0,0,False
2022-06-21,0.9981879485539096,0.9981879485539096,0.0,0,False
2022-06-22,0.9981879485539096,0.9981879485539096,0.0,0,False
2022-06-23,0.9981879485539096,0.9981879485539096,0.0,0,False
2022-06-24,0.9981879485539096,0.9981879485539096,0.0,0,False
2022-06-25,0.9981879485539096,0.9981879485539096,0.0,0,False
2022-06-26,0.9981879485539096,0.9981879485539096,0.0,0,False
2022-06-27,0.9981879485539096,0.9981879485539096,0.0,0,False
2022-06-28,0.9981879485539096,1.0006863545180862,0.2502941422801275,1,True
2022-06-29,1.0006863545180862,0.9951050774688259,-0.5577448941979535,0,True
2022-06-30,0.9951050774688259,0.9951050774688259,0.0,0,False
2022-07-01,0.9951050774688259,0.9951050774688259,0.0,0,False
2022-07-02,0.9951050774688259,0.9951050774688259,0.0,0,False
2022-07-03,0.9951050774688259,0.9919425599949333,-0.31780738994287017,1,True
2022-07-04,0.9919425599949333,0.9919425599949333,0.0,0,False
2022-07-05,0.9919425599949333,0.9919425599949333,0.0,0,False
2022-07-06,0.9919425599949333,0.9919425599949333,0.0,0,False
2022-07-07,0.9919425599949333,0.9919425599949333,0.0,0,False
2022-07-08,0.9919425599949333,0.9919425599949333,0.0,0,False
2022-07-09,0.9919425599949333,0.9919425599949333,0.0,0,False
2022-07-10,0.9919425599949333,0.9919425599949333,0.0,0,False
2022-07-11,0.9919425599949333,0.9919425599949333,0.0,0,False
2022-07-12,0.9919425599949333,0.9919425599949333,0.0,0,False
2022-07-13,0.9919425599949333,1.0096308377209322,1.7831957654976804,4,True
2022-07-14,1.0096308377209322,1.03521805448575,2.534314108568303,0,True
2022-07-15,1.03521805448575,1.03521805448575,0.0,0,False
2022-07-16,1.03521805448575,1.03521805448575,0.0,0,False
2022-07-17,1.03521805448575,1.03521805448575,0.0,0,False
2022-07-18,1.03521805448575,1.03521805448575,0.0,0,False
2022-07-19,1.03521805448575,1.0315972290983668,-0.3497645130601912,2,True
2022-07-20,1.0315972290983668,1.0315972290983668,0.0,0,False
2022-07-21,1.0315972290983668,1.0345665495786298,0.287837190378859,3,True
2022-07-22,1.0345665495786298,1.0345665495786298,0.0,0,False
2022-07-23,1.0345665495786298,1.0345665495786298,0.0,0,False
2022-07-24,1.0345665495786298,1.0437438489988073,0.887067093355709,1,True
2022-07-25,1.0437438489988073,1.043832522929033,0.00849575595687213,1,True
2022-07-26,1.043832522929033,1.043832522929033,0.0,0,False
2022-07-27,1.043832522929033,1.043832522929033,0.0,0,False
2022-07-28,1.043832522929033,1.043832522929033,0.0,0,False
2022-07-29,1.043832522929033,1.0386193027880872,-0.4994307062130332,1,True
2022-07-30,1.0386193027880872,1.0386193027880872,0.0,0,False
2022-07-31,1.0386193027880872,1.0347183749836544,-0.3755878399295254,1,True
2022-08-01,1.0347183749836544,1.0347183749836544,0.0,0,False
2022-08-02,1.0347183749836544,1.0347183749836544,0.0,0,False
2022-08-03,1.0347183749836544,1.032427795703594,-0.22137224344705997,1,True
2022-08-04,1.032427795703594,1.032427795703594,0.0,0,False
2022-08-05,1.032427795703594,1.032427795703594,0.0,0,False
2022-08-06,1.032427795703594,1.032427795703594,0.0,0,False
2022-08-07,1.032427795703594,1.032427795703594,0.0,0,False
2022-08-08,1.032427795703594,1.032427795703594,0.0,0,False
2022-08-09,1.032427795703594,1.0370449055651645,0.44720898456862557,1,True
2022-08-10,1.0370449055651645,1.0370449055651645,0.0,0,False
2022-08-11,1.0370449055651645,1.0370449055651645,0.0,0,False
2022-08-12,1.0370449055651645,1.0342601110015837,-0.2685317240012086,1,True
2022-08-13,1.0342601110015837,1.0342601110015837,0.0,0,False
2022-08-14,1.0342601110015837,1.0342601110015837,0.0,0,False
2022-08-15,1.0342601110015837,1.0342601110015837,0.0,0,False
2022-08-16,1.0342601110015837,1.0323170754652062,-0.1878672024289707,1,True
2022-08-17,1.0323170754652062,1.0323170754652062,0.0,0,False
2022-08-18,1.0323170754652062,1.0323170754652062,0.0,0,False
2022-08-19,1.0323170754652062,1.0126311172594136,-1.9069681858087328,8,True
2022-08-20,1.0126311172594136,1.0150205010026891,0.23595796164572747,0,True
2022-08-21,1.0150205010026891,1.0150205010026891,0.0,0,False
2022-08-22,1.0150205010026891,1.0150205010026891,0.0,0,False
2022-08-23,1.0150205010026891,1.0150205010026891,0.0,0,False
2022-08-24,1.0150205010026891,1.0150205010026891,0.0,0,False
2022-08-25,1.0150205010026891,1.0150205010026891,0.0,0,False
2022-08-26,1.0150205010026891,1.0150205010026891,0.0,0,False
2022-08-27,1.0150205010026891,1.009953110923884,-0.499240170400439,1,True
2022-08-28,1.009953110923884,1.0110511543317222,0.10872221650308767,1,True
2022-08-29,1.0110511543317222,1.0113207255196452,0.026662467746363383,0,True
2022-08-30,1.0113207255196452,1.0113207255196452,0.0,0,False
2022-08-31,1.0113207255196452,1.0113207255196452,0.0,0,False
2022-09-01,1.0113207255196452,1.0113207255196452,0.0,0,False
2022-09-02,1.0113207255196452,1.0113207255196452,0.0,0,False
2022-09-03,1.0113207255196452,1.0113207255196452,0.0,0,False
2022-09-04,1.0113207255196452,1.0113207255196452,0.0,0,False
2022-09-05,1.0113207255196452,1.0113207255196452,0.0,0,False
2022-09-06,1.0113207255196452,1.0113207255196452,0.0,0,False
2022-09-07,1.0113207255196452,0.9963839741923615,-1.4769549313457309,4,True
2022-09-08,0.9963839741923615,0.9963839741923615,0.0,0,False
2022-09-09,0.9963839741923615,0.9963839741923615,0.0,0,False
2022-09-10,0.9963839741923615,0.9963839741923615,0.0,0,False
2022-09-11,0.9963839741923615,0.9963839741923615,0.0,0,False
2022-09-12,0.9963839741923615,0.9963839741923615,0.0,0,False
2022-09-13,0.9963839741923615,0.9868506493081113,-0.9567922739802781,4,True
2022-09-14,0.9868506493081113,0.9772537759730402,-0.9724747449676885,1,True
2022-09-15,0.9772537759730402,0.9755732280272761,-0.17196638038986523,1,True
2022-09-16,0.9755732280272761,0.9755732280272761,0.0,0,False
2022-09-17,0.9755732280272761,0.9755732280272761,0.0,0,False
2022-09-18,0.9755732280272761,0.9755732280272761,0.0,0,False
2022-09-19,0.9755732280272761,0.978827275894892,0.33355239505659107,5,True
2022-09-20,0.978827275894892,0.978827275894892,0.0,0,False
2022-09-21,0.978827275894892,0.978827275894892,0.0,0,False
2022-09-22,0.978827275894892,0.978827275894892,0.0,0,False
2022-09-23,0.978827275894892,0.978827275894892,0.0,0,False
2022-09-24,0.978827275894892,0.978827275894892,0.0,0,False
2022-09-25,0.978827275894892,0.978827275894892,0.0,0,False
2022-09-26,0.978827275894892,0.978827275894892,0.0,0,False
2022-09-27,0.978827275894892,0.978827275894892,0.0,0,False
2022-09-28,0.978827275894892,0.978827275894892,0.0,0,False
2022-09-29,0.978827275894892,0.978827275894892,0.0,0,False
2022-09-30,0.978827275894892,0.978827275894892,0.0,0,False
2022-10-01,0.978827275894892,0.978827275894892,0.0,0,False
2022-10-02,0.978827275894892,0.978827275894892,0.0,0,False
2022-10-03,0.978827275894892,0.978827275894892,0.0,0,False
2022-10-04,0.978827275894892,0.978827275894892,0.0,0,False
2022-10-05,0.978827275894892,0.978827275894892,0.0,0,False
2022-10-06,0.978827275894892,0.978827275894892,0.0,0,False
2022-10-07,0.978827275894892,0.978827275894892,0.0,0,False
2022-10-08,0.978827275894892,0.978827275894892,0.0,0,False
2022-10-09,0.978827275894892,0.978827275894892,0.0,0,False
2022-10-10,0.978827275894892,0.9739399869942426,-0.4993004405380197,1,True
2022-10-11,0.9739399869942426,1.0006682050454336,2.744339323583911,4,True
2022-10-12,1.0006682050454336,1.0006682050454336,0.0,0,False
2022-10-13,1.0006682050454336,1.0006682050454336,0.0,0,False
2022-10-14,1.0006682050454336,1.0006682050454336,0.0,0,False
2022-10-15,1.0006682050454336,1.0006682050454336,0.0,0,False
2022-10-16,1.0006682050454336,1.0006682050454336,0.0,0,False
2022-10-17,1.0006682050454336,1.0006682050454336,0.0,0,False
2022-10-18,1.0006682050454336,1.0006682050454336,0.0,0,False
2022-10-19,1.0006682050454336,1.0006682050454336,0.0,0,False
2022-10-20,1.0006682050454336,1.00679343812776,0.6121142903754206,1,True
2022-10-21,1.00679343812776,1.00679343812776,0.0,0,False
2022-10-22,1.00679343812776,1.00679343812776,0.0,0,False
2022-10-23,1.00679343812776,1.00679343812776,0.0,0,False
2022-10-24,1.00679343812776,1.00679343812776,0.0,0,False
2022-10-25,1.00679343812776,1.00679343812776,0.0,0,False
2022-10-26,1.00679343812776,1.00679343812776,0.0,0,False
2022-10-27,1.00679343812776,1.00679343812776,0.0,0,False
2022-10-28,1.00679343812776,1.00679343812776,0.0,0,False
2022-10-29,1.00679343812776,1.00679343812776,0.0,0,False
2022-10-30,1.00679343812776,1.00679343812776,0.0,0,False
2022-10-31,1.00679343812776,1.00679343812776,0.0,0,False
2022-11-01,1.00679343812776,1.00679343812776,0.0,0,False
2022-11-02,1.00679343812776,1.0172490229226052,1.0385034704128104,1,True
2022-11-03,1.0172490229226052,1.0264365624797507,0.9031750682590101,3,True
2022-11-04,1.0264365624797507,1.0119195883822314,-1.4143079687699345,5,True
2022-11-05,1.0119195883822314,1.0130566331214315,0.11236512784755792,1,True
2022-11-06,1.0130566331214315,1.0130566331214315,0.0,0,False
2022-11-07,1.0130566331214315,1.01168793801021,-0.13510548832835756,2,True
2022-11-08,1.01168793801021,1.0053842324014735,-0.6230879475675688,5,True
2022-11-09,1.0053842324014735,0.9572195916575101,-4.790669993790997,14,True
2022-11-10,0.9572195916575101,0.988479305015746,3.265678390901594,5,True
2022-11-11,0.988479305015746,1.0021251736461783,1.3804910797009518,5,True
2022-11-12,1.0021251736461783,0.9841862184506466,-1.7900912647730194,2,True
2022-11-13,0.9841862184506466,0.9832452345388779,-0.09561035240363003,1,True
2022-11-14,0.9832452345388779,0.9818590256050664,-0.1409830309995419,2,True
2022-11-15,0.9818590256050664,0.9818590256050664,0.0,0,False
2022-11-16,0.9818590256050664,0.9818590256050664,0.0,0,False
2022-11-17,0.9818590256050664,0.9818590256050664,0.0,0,False
2022-11-18,0.9818590256050664,0.9818590256050664,0.0,0,False
2022-11-19,0.9818590256050664,0.9849846260384019,0.31833494950146424,2,True
2022-11-20,0.9849846260384019,0.9826677466122075,-0.23521985673146117,1,True
2022-11-21,0.9826677466122075,0.9774624316503513,-0.5297126093536386,1,True
2022-11-22,0.9774624316503513,0.9774624316503513,0.0,0,False
2022-11-23,0.9774624316503513,0.9774624316503513,0.0,0,False
2022-11-24,0.9774624316503513,0.9774624316503513,0.0,0,False
2022-11-25,0.9774624316503513,0.9739931139275383,-0.35493105519721624,1,True
2022-11-26,0.9739931139275383,0.9739931139275383,0.0,0,False
2022-11-27,0.9739931139275383,0.9739931139275383,0.0,0,False
2022-11-28,0.9739931139275383,0.9680054629524006,-0.6147529063109114,2,True
2022-11-29,0.9680054629524006,0.9680054629524006,0.0,0,False
2022-11-30,0.9680054629524006,0.9680054629524006,0.0,0,False
2022-12-01,0.9680054629524006,0.9679132616893737,-0.009524870112376238,1,True
2022-12-02,0.9679132616893737,0.9671005202774583,-0.08396841370856833,1,True
2022-12-03,0.9671005202774583,0.9671005202774583,0.0,0,False
2022-12-04,0.9671005202774583,0.9611447096711743,-0.6158419400472792,3,True
2022-12-05,0.9611447096711743,0.9633538621915698,0.22984598449815596,1,True
2022-12-06,0.9633538621915698,0.9623529653101889,-0.10389711617535546,0,True
2022-12-07,0.9623529653101889,0.9623529653101889,0.0,0,False
2022-12-08,0.9623529653101889,0.9575543053083727,-0.49863825174263354,1,True
2022-12-09,0.9575543053083727,0.9575543053083727,0.0,0,False
2022-12-10,0.9575543053083727,0.9575543053083727,0.0,0,False
2022-12-11,0.9575543053083727,0.9575543053083727,0.0,0,False
2022-12-12,0.9575543053083727,0.9575543053083727,0.0,0,False
2022-12-13,0.9575543053083727,0.9575543053083727,0.0,0,False
2022-12-14,0.9575543053083727,0.9575543053083727,0.0,0,False
2022-12-15,0.9575543053083727,0.9575543053083727,0.0,0,False
2022-12-16,0.9575543053083727,0.9575543053083727,0.0,0,False
2022-12-17,0.9575543053083727,0.9631818235107444,0.5876970288969163,4,True
2022-12-18,0.9631818235107444,0.9631818235107444,0.0,0,False
2022-12-19,0.9631818235107444,0.9631818235107444,0.0,0,False
2022-12-20,0.9631818235107444,0.9631818235107444,0.0,0,False
2022-12-21,0.9631818235107444,0.9631818235107444,0.0,0,False
2022-12-22,0.9631818235107444,0.9631818235107444,0.0,0,False
2022-12-23,0.9631818235107444,0.9631818235107444,0.0,0,False
2022-12-24,0.9631818235107444,0.9631818235107444,0.0,0,False
2022-12-25,0.9631818235107444,0.9631818235107444,0.0,0,False
2022-12-26,0.9631818235107444,0.9631818235107444,0.0,0,False
2022-12-27,0.9631818235107444,0.9631818235107444,0.0,0,False
2022-12-28,0.9631818235107444,0.9669319306808591,0.3893457163099079,1,True
2022-12-29,0.9669319306808591,0.9654831224371223,-0.14983559832558724,0,True
2022-12-30,0.9654831224371223,0.9654831224371223,0.0,0,False
2022-12-31,0.9654831224371223,0.9654831224371223,0.0,0,False
2023-01-01,0.9654831224371223,0.9654831224371223,0.0,0,False
2023-01-02,0.9654831224371223,0.9660019958522277,0.05374235996955523,1,True
2023-01-03,0.9660019958522277,0.9661287793488696,0.013124558457056068,0,True
2023-01-04,0.9661287793488696,0.9661287793488696,0.0,0,False
2023-01-05,0.9661287793488696,0.9661287793488696,0.0,0,False
2023-01-06,0.9661287793488696,0.9661287793488696,0.0,0,False
2023-01-07,0.9661287793488696,0.9661287793488696,0.0,0,False
2023-01-08,0.9661287793488696,0.9661287793488696,0.0,0,False
2023-01-09,0.9661287793488696,0.9661287793488696,0.0,0,False
2023-01-10,0.9661287793488696,0.9646930732324401,-0.1486040108852893,2,True
2023-01-11,0.9646930732324401,0.9655184913694321,0.08556277223243924,0,True
2023-01-12,0.9655184913694321,0.9655184913694321,0.0,0,False
2023-01-13,0.9655184913694321,0.9655184913694321,0.0,0,False
2023-01-14,0.9655184913694321,0.9601135415397684,-0.5597976504828739,3,True
2023-01-15,0.9601135415397684,0.9609195766636556,0.08395206285649603,1,True
2023-01-16,0.9609195766636556,0.9609195766636556,0.0,0,False
2023-01-17,0.9609195766636556,0.9609195766636556,0.0,0,False
2023-01-18,0.9609195766636556,0.9609195766636556,0.0,0,False
2023-01-19,0.9609195766636556,0.9561233056058972,-0.49913345239683826,1,True
2023-01-20,0.9561233056058972,0.9561233056058972,0.0,0,False
2023-01-21,0.9561233056058972,0.957950282407854,0.19108171417272501,1,True
2023-01-22,0.957950282407854,0.9559042779729311,-0.21358148460274284,0,True
2023-01-23,0.9559042779729311,0.9559042779729311,0.0,0,False
2023-01-24,0.9559042779729311,0.9598307410234485,0.41075902064626746,1,True
2023-01-25,0.9598307410234485,0.9598974440821557,0.006949460551353148,5,True
2023-01-26,0.9598974440821557,0.9627857192361636,0.300894139453578,1,True
2023-01-27,0.9627857192361636,0.9627857192361636,0.0,0,False
2023-01-28,0.9627857192361636,0.9627857192361636,0.0,0,False
2023-01-29,0.9627857192361636,0.9627857192361636,0.0,0,False
2023-01-30,0.9627857192361636,0.9630175037219331,0.0240743585138814,2,True
2023-01-31,0.9630175037219331,0.9628423429844852,-0.018188738706292895,2,True
2023-02-01,0.9628423429844852,0.9628423429844852,0.0,0,False
2023-02-02,0.9628423429844852,0.9628423429844852,0.0,0,False
2023-02-03,0.9628423429844852,0.9628423429844852,0.0,0,False
2023-02-04,0.9628423429844852,0.9628423429844852,0.0,0,False
2023-02-05,0.9628423429844852,0.9671100817207839,0.4432437737491135,5,True
2023-02-06,0.9671100817207839,0.9749770324537752,0.813449356147089,1,True
2023-02-07,0.9749770324537752,0.9749770324537752,0.0,0,False
2023-02-08,0.9749770324537752,0.9749770324537752,0.0,0,False
2023-02-09,0.9749770324537752,0.9749770324537752,0.0,0,False
2023-02-10,0.9749770324537752,0.9776015070342797,0.2691832210548917,1,True
2023-02-11,0.9776015070342797,0.9747795921872137,-0.2886569657228555,0,True
2023-02-12,0.9747795921872137,0.9699117659340993,-0.4993771199284014,1,True
2023-02-13,0.9699117659340993,0.9699117659340993,0.0,0,False
2023-02-14,0.9699117659340993,0.9699117659340993,0.0,0,False
2023-02-15,0.9699117659340993,0.9699117659340993,0.0,0,False
2023-02-16,0.9699117659340993,0.9699117659340993,0.0,0,False
2023-02-17,0.9699117659340993,0.9699117659340993,0.0,0,False
2023-02-18,0.9699117659340993,0.9699117659340993,0.0,0,False
2023-02-19,0.9699117659340993,0.9699117659340993,0.0,0,False
2023-02-20,0.9699117659340993,0.9699117659340993,0.0,0,False
2023-02-21,0.9699117659340993,0.957461910124643,-1.2836070503244312,3,True
2023-02-22,0.957461910124643,0.9541795431388271,-0.3428195890725849,2,True
2023-02-23,0.9541795431388271,0.9699138756348274,1.6489907595630626,1,True
2023-02-24,0.9699138756348274,0.9699138756348274,0.0,0,False
2023-02-25,0.9699138756348274,0.9699138756348274,0.0,0,False
2023-02-26,0.9699138756348274,0.9717486180688011,0.1891655001607928,1,True
2023-02-27,0.9717486180688011,0.9668975173216663,-0.4992135473035786,1,True
2023-02-28,0.9668975173216663,0.9668975173216663,0.0,0,False
2023-03-01,0.9668975173216663,0.9668975173216663,0.0,0,False
2023-03-02,0.9668975173216663,0.9668975173216663,0.0,0,False
2023-03-03,0.9668975173216663,0.9647399460702502,-0.22314373682462696,6,True
2023-03-04,0.9647399460702502,0.9647399460702502,0.0,0,False
2023-03-05,0.9647399460702502,0.9647399460702502,0.0,0,False
2023-03-06,0.9647399460702502,0.9647399460702502,0.0,0,False
2023-03-07,0.9647399460702502,0.9647399460702502,0.0,0,False
2023-03-08,0.9647399460702502,0.9647399460702502,0.0,0,False
2023-03-09,0.9647399460702502,0.9647399460702502,0.0,0,False
2023-03-10,0.9647399460702502,0.9637798395963477,-0.09951971801450687,1,True
2023-03-11,0.9637798395963477,0.9786359840617587,1.5414458629507077,3,True
2023-03-12,0.9786359840617587,0.9805798684655617,0.1986320179782286,0,True
2023-03-13,0.9805798684655617,0.9805798684655617,0.0,0,False
2023-03-14,0.9805798684655617,0.9805798684655617,0.0,0,False
2023-03-15,0.9805798684655617,0.9805798684655617,0.0,0,False
2023-03-16,0.9805798684655617,0.9869950026202035,0.6542184232968484,5,True
2023-03-17,0.9869950026202035,0.9811720651728396,-0.5899662543280892,2,True
2023-03-18,0.9811720651728396,0.9811720651728396,0.0,0,False
2023-03-19,0.9811720651728396,0.9811720651728396,0.0,0,False
2023-03-20,0.9811720651728396,0.9811720651728396,0.0,0,False
2023-03-21,0.9811720651728396,0.9714026685842446,-0.9956863770753666,2,True
2023-03-22,0.9714026685842446,0.9714026685842446,0.0,0,False
2023-03-23,0.9714026685842446,0.9728398617658849,0.14795030198289094,3,True
2023-03-24,0.9728398617658849,0.9728398617658849,0.0,0,False
2023-03-25,0.9728398617658849,0.9682140567208046,-0.4754950148407322,1,True
2023-03-26,0.9682140567208046,0.9682140567208046,0.0,0,False
2023-03-27,0.9682140567208046,0.9682140567208046,0.0,0,False
2023-03-28,0.9682140567208046,0.9682140567208046,0.0,0,False
2023-03-29,0.9682140567208046,0.9682140567208046,0.0,0,False
2023-03-30,0.9682140567208046,0.9682140567208046,0.0,0,False
2023-03-31,0.9682140567208046,0.9682140567208046,0.0,0,False
2023-04-01,0.9682140567208046,0.9682140567208046,0.0,0,False
2023-04-02,0.9682140567208046,0.9682140567208046,0.0,0,False
2023-04-03,0.9682140567208046,0.9682140567208046,0.0,0,False
2023-04-04,0.9682140567208046,0.9633801848812398,-0.4992565234940294,1,True
2023-04-05,0.9633801848812398,0.9633801848812398,0.0,0,False
2023-04-06,0.9633801848812398,0.9585731125218775,-0.4989797833505283,1,True
2023-04-07,0.9585731125218775,0.9568577842398759,-0.17894600417998063,1,True
2023-04-08,0.9568577842398759,0.9568577842398759,0.0,0,False
2023-04-09,0.9568577842398759,0.9568577842398759,0.0,0,False
2023-04-10,0.9568577842398759,0.9568577842398759,0.0,0,False
2023-04-11,0.9568577842398759,0.9568577842398759,0.0,0,False
2023-04-12,0.9568577842398759,0.9568577842398759,0.0,0,False
2023-04-13,0.9568577842398759,0.9568577842398759,0.0,0,False
2023-04-14,0.9568577842398759,0.9568577842398759,0.0,0,False
2023-04-15,0.9568577842398759,0.9568577842398759,0.0,0,False
2023-04-16,0.9568577842398759,0.9568577842398759,0.0,0,False
2023-04-17,0.9568577842398759,0.9520810481122145,-0.4992106670748342,1,True
2023-04-18,0.9520810481122145,0.9520810481122145,0.0,0,False
2023-04-19,0.9520810481122145,0.9404615464168684,-1.220431991413462,3,True
2023-04-20,0.9404615464168684,0.9404615464168684,0.0,0,False
2023-04-21,0.9404615464168684,0.9404615464168684,0.0,0,False
2023-04-22,0.9404615464168684,0.9404615464168684,0.0,0,False
2023-04-23,0.9404615464168684,0.9404615464168684,0.0,0,False
2023-04-24,0.9404615464168684,0.9404615464168684,0.0,0,False
2023-04-25,0.9404615464168684,0.9404615464168684,0.0,0,False
2023-04-26,0.9404615464168684,0.9404615464168684,0.0,0,False
2023-04-27,0.9404615464168684,0.9404615464168684,0.0,0,False
2023-04-28,0.9404615464168684,0.9404615464168684,0.0,0,False
2023-04-29,0.9404615464168684,0.9404615464168684,0.0,0,False
2023-04-30,0.9404615464168684,0.9404615464168684,0.0,0,False
2023-05-01,0.9404615464168684,0.9404615464168684,0.0,0,False
2023-05-02,0.9404615464168684,0.9404615464168684,0.0,0,False
2023-05-03,0.9404615464168684,0.9404615464168684,0.0,0,False
2023-05-04,0.9404615464168684,0.9404615464168684,0.0,0,False
2023-05-05,0.9404615464168684,0.9404615464168684,0.0,0,False
2023-05-06,0.9404615464168684,0.9404615464168684,0.0,0,False
2023-05-07,0.9404615464168684,0.9404615464168684,0.0,0,False
2023-05-08,0.9404615464168684,0.9291649786108536,-1.201172748535484,5,True
2023-05-09,0.9291649786108536,0.9273731140853243,-0.19284675668772566,2,True
2023-05-10,0.9273731140853243,0.9289894121009481,0.17428778029844327,1,True
2023-05-11,0.9289894121009481,0.9289894121009481,0.0,0,False
2023-05-12,0.9289894121009481,0.9289894121009481,0.0,0,False
2023-05-13,0.9289894121009481,0.9289894121009481,0.0,0,False
2023-05-14,0.9289894121009481,0.9289894121009481,0.0,0,False
2023-05-15,0.9289894121009481,0.9289894121009481,0.0,0,False
2023-05-16,0.9289894121009481,0.9289894121009481,0.0,0,False
2023-05-17,0.9289894121009481,0.9289894121009481,0.0,0,False
2023-05-18,0.9289894121009481,0.9289894121009481,0.0,0,False
2023-05-19,0.9289894121009481,0.9289894121009481,0.0,0,False
2023-05-20,0.9289894121009481,0.9289894121009481,0.0,0,False
2023-05-21,0.9289894121009481,0.9289894121009481,0.0,0,False
2023-05-22,0.9289894121009481,0.9289894121009481,0.0,0,False
2023-05-23,0.9289894121009481,0.9289894121009481,0.0,0,False
2023-05-24,0.9289894121009481,0.9289894121009481,0.0,0,False
2023-05-25,0.9289894121009481,0.9289894121009481,0.0,0,False
2023-05-26,0.9289894121009481,0.9316773975663268,0.2893451131267266,1,True
2023-05-27,0.9316773975663268,0.9316688946941951,-0.0009126412376159188,1,True
2023-05-28,0.9316688946941951,0.9316688946941951,0.0,0,False
2023-05-29,0.9316688946941951,0.9316688946941951,0.0,0,False
2023-05-30,0.9316688946941951,0.9427735294852907,1.1919078606504874,1,True
2023-05-31,0.9427735294852907,0.9516146157919443,0.9377741345241608,0,True
2023-06-01,0.9516146157919443,0.9516146157919443,0.0,0,False
2023-06-02,0.9516146157919443,0.9679891288638391,1.7207084464825995,3,True
2023-06-03,0.9679891288638391,0.9627793382103629,-0.5382075581356172,1,True
2023-06-04,0.9627793382103629,0.9627793382103629,0.0,0,False
2023-06-05,0.9627793382103629,0.9627793382103629,0.0,0,False
2023-06-06,0.9627793382103629,0.9436302721581162,-1.988936124017926,4,True
2023-06-07,0.9436302721581162,0.9436302721581162,0.0,0,False
2023-06-08,0.9436302721581162,0.9400521556475551,-0.3791862783691591,1,True
2023-06-09,0.9400521556475551,0.9400521556475551,0.0,0,False
2023-06-10,0.9400521556475551,0.9659901986420946,2.7592131818124477,5,True
2023-06-11,0.9659901986420946,0.9648291219658341,-0.12019549244832728,0,True
2023-06-12,0.9648291219658341,0.9648291219658341,0.0,0,False
2023-06-13,0.9648291219658341,0.9600108931260138,-0.4993867546206676,1,True
2023-06-14,0.9600108931260138,0.9600108931260138,0.0,0,False
2023-06-15,0.9600108931260138,0.9600108931260138,0.0,0,False
2023-06-16,0.9600108931260138,0.9600108931260138,0.0,0,False
2023-06-17,0.9600108931260138,0.9600108931260138,0.0,0,False
2023-06-18,0.9600108931260138,0.9600108931260138,0.0,0,False
2023-06-19,0.9600108931260138,0.9674832895540453,0.7783657957983747,1,True
2023-06-20,0.9674832895540453,0.9686554305416128,0.1211536158012505,0,True
2023-06-21,0.9686554305416128,0.9686554305416128,0.0,0,False
2023-06-22,0.9686554305416128,1.0035826643363999,3.605743868617739,2,True
2023-06-23,1.0035826643363999,1.0035826643363999,0.0,0,False
2023-06-24,1.0035826643363999,1.0035826643363999,0.0,0,False
2023-06-25,1.0035826643363999,1.0001353416044296,-0.3435016221857268,1,True
2023-06-26,1.0001353416044296,1.0001353416044296,0.0,0,False
2023-06-27,1.0001353416044296,1.0001353416044296,0.0,0,False
2023-06-28,1.0001353416044296,1.0001353416044296,0.0,0,False
2023-06-29,1.0001353416044296,1.0001353416044296,0.0,0,False
2023-06-30,1.0001353416044296,0.9802136782875733,-1.991896745184274,4,True
2023-07-01,0.9802136782875733,0.9753213681977646,-0.49910649057208767,1,True
2023-07-02,0.9753213681977646,0.9753213681977646,0.0,0,False
2023-07-03,0.9753213681977646,0.9753213681977646,0.0,0,False
2023-07-04,0.9753213681977646,0.9753213681977646,0.0,0,False
2023-07-05,0.9753213681977646,0.9704503772775859,-0.4994241979112468,1,True
2023-07-06,0.9704503772775859,0.9704503772775859,0.0,0,False
2023-07-07,0.9704503772775859,0.9704503772775859,0.0,0,False
2023-07-08,0.9704503772775859,0.9704503772775859,0.0,0,False
2023-07-09,0.9704503772775859,0.9704503772775859,0.0,0,False
2023-07-10,0.9704503772775859,0.9704503772775859,0.0,0,False
2023-07-11,0.9704503772775859,0.9704503772775859,0.0,0,False
2023-07-12,0.9704503772775859,0.9704503772775859,0.0,0,False
2023-07-13,0.9704503772775859,0.9704503772775859,0.0,0,False
2023-07-14,0.9704503772775859,0.9704503772775859,0.0,0,False
2023-07-15,0.9704503772775859,0.9704503772775859,0.0,0,False
2023-07-16,0.9704503772775859,0.9704503772775859,0.0,0,False
2023-07-17,0.9704503772775859,0.9704503772775859,0.0,0,False
2023-07-18,0.9704503772775859,0.9704503772775859,0.0,0,False
2023-07-19,0.9704503772775859,0.9704503772775859,0.0,0,False
2023-07-20,0.9704503772775859,0.9704503772775859,0.0,0,False
2023-07-21,0.9704503772775859,0.9704503772775859,0.0,0,False
2023-07-22,0.9704503772775859,0.9704503772775859,0.0,0,False
2023-07-23,0.9704503772775859,0.9704503772775859,0.0,0,False
2023-07-24,0.9704503772775859,0.966378573939661,-0.41957872687397035,2,True
2023-07-25,0.966378573939661,0.9659180610627727,-0.04765346514368218,0,True
2023-07-26,0.9659180610627727,0.9659180610627727,0.0,0,False
2023-07-27,0.9659180610627727,0.9659180610627727,0.0,0,False
2023-07-28,0.9659180610627727,0.9659180610627727,0.0,0,False
2023-07-29,0.9659180610627727,0.9659180610627727,0.0,0,False
2023-07-30,0.9659180610627727,0.9659180610627727,0.0,0,False
2023-07-31,0.9659180610627727,0.9659180610627727,0.0,0,False
2023-08-01,0.9659180610627727,0.9659180610627727,0.0,0,False
2023-08-02,0.9659180610627727,0.9659180610627727,0.0,0,False
2023-08-03,0.9659180610627727,0.9659180610627727,0.0,0,False
2023-08-04,0.9659180610627727,0.9659180610627727,0.0,0,False
2023-08-05,0.9659180610627727,0.9659180610627727,0.0,0,False
2023-08-06,0.9659180610627727,0.9659180610627727,0.0,0,False
2023-08-07,0.9659180610627727,0.9659180610627727,0.0,0,False
2023-08-08,0.9659180610627727,0.9659180610627727,0.0,0,False
2023-08-09,0.9659180610627727,0.9659180610627727,0.0,0,False
2023-08-10,0.9659180610627727,0.9659180610627727,0.0,0,False
2023-08-11,0.9659180610627727,0.9659180610627727,0.0,0,False
2023-08-12,0.9659180610627727,0.9659180610627727,0.0,0,False
2023-08-13,0.9659180610627727,0.9706563125251587,0.4905438311374688,1,True
2023-08-14,0.9706563125251587,0.9711500783770161,0.050869277362730614,1,True
2023-08-15,0.9711500783770161,0.9715479879877469,0.04097302977061901,0,True
2023-08-16,0.9715479879877469,0.9833658730289427,1.2163974592416027,4,True
2023-08-17,0.9833658730289427,0.9856164500302799,0.22886466401410566,1,True
2023-08-18,0.9856164500302799,1.050476886952505,6.580697483309295,4,True
2023-08-19,1.050476886952505,1.055493637336703,0.47756884958716217,2,True
2023-08-20,1.055493637336703,1.0543351022963825,-0.10976238978036568,0,True
2023-08-21,1.0543351022963825,1.0543351022963825,0.0,0,False
2023-08-22,1.0543351022963825,1.0543351022963825,0.0,0,False
2023-08-23,1.0543351022963825,1.0543351022963825,0.0,0,False
2023-08-24,1.0543351022963825,1.0543351022963825,0.0,0,False
2023-08-25,1.0543351022963825,1.0481544084163792,-0.5862172156216316,5,True
2023-08-26,1.0481544084163792,1.05033836133541,0.2083617548611416,0,True
2023-08-27,1.05033836133541,1.05033836133541,0.0,0,False
2023-08-28,1.05033836133541,1.05033836133541,0.0,0,False
2023-08-29,1.05033836133541,1.0523697546816133,0.19340370884106672,1,True
2023-08-30,1.0523697546816133,1.0523697546816133,0.0,0,False
2023-08-31,1.0523697546816133,1.0523697546816133,0.0,0,False
2023-09-01,1.0523697546816133,1.0523697546816133,0.0,0,False
2023-09-02,1.0523697546816133,1.084067871925262,3.012070339596451,3,True
2023-09-03,1.084067871925262,1.0837989013519238,-0.024811230025723052,0,True
2023-09-04,1.0837989013519238,1.0830268522664637,-0.07123545562714995,1,True
2023-09-05,1.0830268522664637,1.0896156086017816,0.6083650023570142,2,True
2023-09-06,1.0896156086017816,1.1174717717502178,2.5565128590789854,1,True
2023-09-07,1.1174717717502178,1.1174717717502178,0.0,0,False
2023-09-08,1.1174717717502178,1.1140326715355628,-0.3077572339271306,3,True
2023-09-09,1.1140326715355628,1.1062183940417676,-0.7014406034451581,1,True
2023-09-10,1.1062183940417676,1.1040488173477834,-0.19612553051637782,3,True
2023-09-11,1.1040488173477834,1.1048592332219305,0.07340398915456348,1,True
2023-09-12,1.1048592332219305,1.1048592332219305,0.0,0,False
2023-09-13,1.1048592332219305,1.10235206453293,-0.22692200179104116,1,True
2023-09-14,1.10235206453293,1.10235206453293,0.0,0,False
2023-09-15,1.10235206453293,1.10235206453293,0.0,0,False
2023-09-16,1.10235206453293,1.1080132103304097,0.5135515212989716,1,True
2023-09-17,1.1080132103304097,1.1174397440179773,0.8507600450681219,1,True
2023-09-18,1.1174397440179773,1.1040280110906273,-1.2002197880599308,3,True
2023-09-19,1.1040280110906273,1.1040280110906273,0.0,0,False
2023-09-20,1.1040280110906273,1.1080802822709916,0.3670442361658255,1,True
2023-09-21,1.1080802822709916,1.1117731970736064,0.33327141198165045,0,True
2023-09-22,1.1117731970736064,1.1117731970736064,0.0,0,False
2023-09-23,1.1117731970736064,1.1117731970736064,0.0,0,False
2023-09-24,1.1117731970736064,1.1117731970736064,0.0,0,False
2023-09-25,1.1117731970736064,1.1117731970736064,0.0,0,False
2023-09-26,1.1117731970736064,1.1133308141546467,0.14010205365089234,1,True
2023-09-27,1.1133308141546467,1.1030356744311418,-0.9247152412036663,1,True
2023-09-28,1.1030356744311418,1.1030356744311418,0.0,0,False
2023-09-29,1.1030356744311418,1.1030356744311418,0.0,0,False
2023-09-30,1.1030356744311418,1.1030356744311418,0.0,0,False
2023-10-01,1.1030356744311418,1.1030356744311418,0.0,0,False
2023-10-02,1.1030356744311418,1.1030356744311418,0.0,0,False
2023-10-03,1.1030356744311418,1.1036544664686019,0.05609900493737108,1,True
2023-10-04,1.1036544664686019,1.1019597746245844,-0.15355275545978486,0,True
2023-10-05,1.1019597746245844,1.1019597746245844,0.0,0,False
2023-10-06,1.1019597746245844,1.1019597746245844,0.0,0,False
2023-10-07,1.1019597746245844,1.1019597746245844,0.0,0,False
2023-10-08,1.1019597746245844,1.1019597746245844,0.0,0,False
2023-10-09,1.1019597746245844,1.0976179286104626,-0.3940112982437127,1,True
2023-10-10,1.0976179286104626,1.0976179286104626,0.0,0,False
2023-10-11,1.0976179286104626,1.0976179286104626,0.0,0,False
2023-10-12,1.0976179286104626,1.0976179286104626,0.0,0,False
2023-10-13,1.0976179286104626,1.0976179286104626,0.0,0,False
2023-10-14,1.0976179286104626,1.0976179286104626,0.0,0,False
2023-10-15,1.0976179286104626,1.0976925895674388,0.0068020897827869575,1,True
2023-10-16,1.0976925895674388,1.0974576745089424,-0.02140080572001768,1,True
2023-10-17,1.0974576745089424,1.0916650704656692,-0.5278202684094513,1,True
2023-10-18,1.0916650704656692,1.0916650704656692,0.0,0,False
2023-10-19,1.0916650704656692,1.0808002002782946,-0.9952567395730583,2,True
2023-10-20,1.0808002002782946,1.0808002002782946,0.0,0,False
2023-10-21,1.0808002002782946,1.0813504271590049,0.05090921342987276,1,True
2023-10-22,1.0813504271590049,1.0813504271590049,0.0,0,False
2023-10-23,1.0813504271590049,1.0813504271590049,0.0,0,False
2023-10-24,1.0813504271590049,1.075951729804398,-0.49925511832373815,1,True
2023-10-25,1.075951729804398,1.0762210930874943,0.025034885453956157,1,True
2023-10-26,1.0762210930874943,1.0884495854221838,1.1362435110436442,5,True
2023-10-27,1.0884495854221838,1.0890356488499182,0.053843874404813086,2,True
2023-10-28,1.0890356488499182,1.091307521271736,0.20861322806255966,1,True
2023-10-29,1.091307521271736,1.091307521271736,0.0,0,False
2023-10-30,1.091307521271736,1.091307521271736,0.0,0,False
2023-10-31,1.091307521271736,1.091307521271736,0.0,0,False
2023-11-01,1.091307521271736,1.091307521271736,0.0,0,False
2023-11-02,1.091307521271736,1.091307521271736,0.0,0,False
2023-11-03,1.091307521271736,1.0858596885537815,-0.4992023432227488,1,True
2023-11-04,1.0858596885537815,1.0858596885537815,0.0,0,False
2023-11-05,1.0858596885537815,1.1027706277732452,1.5573779372901164,1,True
2023-11-06,1.1027706277732452,1.1051758872264268,0.21811058370664327,1,True
2023-11-07,1.1051758872264268,1.0980938513351084,-0.6408062257937663,1,True
2023-11-08,1.0980938513351084,1.0980938513351084,0.0,0,False
2023-11-09,1.0980938513351084,1.0840080058665484,-1.2827542428576422,4,True
2023-11-10,1.0840080058665484,1.0885559031446501,0.4195446208412612,4,True
2023-11-11,1.0885559031446501,1.0885559031446501,0.0,0,False
2023-11-12,1.0885559031446501,1.0885559031446501,0.0,0,False
2023-11-13,1.0885559031446501,1.085860442665797,-0.24761801126303995,1,True
2023-11-14,1.085860442665797,1.095084331132266,0.8494543224932594,2,True
2023-11-15,1.095084331132266,1.095084331132266,0.0,0,False
2023-11-16,1.095084331132266,1.095084331132266,0.0,0,False
2023-11-17,1.095084331132266,1.093277483185206,-0.16499623779585582,1,True
2023-11-18,1.093277483185206,1.0886395796361785,-0.4242201655443534,2,True
2023-11-19,1.0886395796361785,1.0891648960245373,0.04825438999143117,0,True
2023-11-20,1.0891648960245373,1.091934569715934,0.2542933307441375,1,True
2023-11-21,1.091934569715934,1.0879926226460446,-0.36100579459764637,0,True
2023-11-22,1.0879926226460446,1.084959788858017,-0.2787549956590363,1,True
2023-11-23,1.084959788858017,1.084959788858017,0.0,0,False
2023-11-24,1.084959788858017,1.084959788858017,0.0,0,False
2023-11-25,1.084959788858017,1.0941833584320053,0.8501300848851479,1,True
2023-11-26,1.0941833584320053,1.0941833584320053,0.0,0,False
2023-11-27,1.0941833584320053,1.0874125460877002,-0.6188005229770477,2,True
2023-11-28,1.0874125460877002,1.081981968384715,-0.4994036276777747,1,True
2023-11-29,1.081981968384715,1.0747986712950888,-0.6639017376925516,2,True
2023-11-30,1.0747986712950888,1.0744728751978796,-0.030312290655942764,1,True
2023-12-01,1.0744728751978796,1.0744728751978796,0.0,0,False
2023-12-02,1.0744728751978796,1.085074260499766,0.986659183921601,1,True
2023-12-03,1.085074260499766,1.0863662440259132,0.11906867328619342,1,True
2023-12-04,1.0863662440259132,1.0848365753164633,-0.1408059867343825,5,True
2023-12-05,1.0848365753164633,1.0819262220321355,-0.26827573392598225,1,True
2023-12-06,1.0819262220321355,1.0819262220321355,0.0,0,False
2023-12-07,1.0819262220321355,1.0765257911413064,-0.4991496444818333,1,True
2023-12-08,1.0765257911413064,1.0765257911413064,0.0,0,False
2023-12-09,1.0765257911413064,1.0765257911413064,0.0,0,False
2023-12-10,1.0765257911413064,1.0765257911413064,0.0,0,False
2023-12-11,1.0765257911413064,1.096069216721334,1.8154163830397474,4,True
2023-12-12,1.096069216721334,1.096069216721334,0.0,0,False
2023-12-13,1.096069216721334,1.0952706004516533,-0.07286184645067806,1,True
2023-12-14,1.0952706004516533,1.0952706004516533,0.0,0,False
2023-12-15,1.0952706004516533,1.0952706004516533,0.0,0,False
2023-12-16,1.0952706004516533,1.0922479864928705,-0.2759696058249328,1,True
2023-12-17,1.0922479864928705,1.0867953495993974,-0.4992123547859384,1,True
2023-12-18,1.0867953495993974,1.0925923621881823,0.5334042504802516,1,True
2023-12-19,1.0925923621881823,1.0906027391018196,-0.1821011344412149,0,True
2023-12-20,1.0906027391018196,1.0906027391018196,0.0,0,False
2023-12-21,1.0906027391018196,1.0851576757855736,-0.4992710105175657,1,True
2023-12-22,1.0851576757855736,1.0851576757855736,0.0,0,False
2023-12-23,1.0851576757855736,1.0851576757855736,0.0,0,False
2023-12-24,1.0851576757855736,1.0829054019988793,-0.20755267524269483,1,True
2023-12-25,1.0829054019988793,1.079744793894615,-0.29186373051887093,0,True
2023-12-26,1.079744793894615,1.079744793894615,0.0,0,False
2023-12-27,1.079744793894615,1.0757162645442615,-0.37310014117527546,2,True
2023-12-28,1.0757162645442615,1.078115540022286,0.22303980678779478,1,True
2023-12-29,1.078115540022286,1.0790125783962528,0.08320428939816438,1,True
2023-12-30,1.0790125783962528,1.0795616150091498,0.050883244912047765,2,True
2023-12-31,1.0795616150091498,1.0741706287801447,-0.4993680910894027,1,True
