day,start_equity,end_equity,return_pct,entries,active
2024-01-02,1.00371343555889,0.9922079032340996,-1.1462965341680231,1,True
2024-01-03,0.9922079032340996,0.9690243236517089,-2.3365646964536246,4,True
2024-01-04,0.9690243236517089,0.9760175950817969,0.721681722470513,8,True
2024-01-05,0.9760175950817969,0.9798132465618454,0.38889170637650405,7,True
2024-01-06,0.9798132465618454,0.9891802618970239,0.9560000712428796,7,True
2024-01-07,0.9891802618970239,1.0277717253495713,3.9013580172472917,7,True
2024-01-08,1.0277717253495713,1.0069106398563485,-2.0297391900061634,1,True
2024-01-09,1.0069106398563485,0.997397602372757,-0.9447747503143589,5,True
2024-01-10,0.997397602372757,0.976436667178352,-2.1015626210189375,5,True
2024-01-11,0.976436667178352,1.0040133174580654,2.8242128964086177,5,True
2024-01-12,1.0040133174580654,0.9831331865947854,-2.0796667235593813,1,True
2024-01-13,0.9831331865947854,0.9936749832304725,1.0722653633736146,8,True
2024-01-14,0.9936749832304725,0.9923505397605498,-0.133287391981729,0,True
2024-01-15,0.9923505397605498,1.0070107517201867,1.4773219111841707,4,True
2024-01-16,1.0070107517201867,1.0016282516312558,-0.5345027428690807,1,True
2024-01-17,1.0016282516312558,1.0098498072228868,0.8208190591910025,0,True
2024-01-18,1.0098498072228868,1.008678523628045,-0.11598592052640688,1,True
2024-01-19,1.008678523628045,0.9997969889418508,-0.8805119250729132,1,True
2024-01-20,0.9997969889418508,1.026390307786139,2.659871867831254,7,True
2024-01-21,1.026390307786139,1.0234688101204428,-0.28463808002996416,3,True
2024-01-22,1.0234688101204428,1.0028135239335296,-2.0181646946800913,3,True
2024-01-23,1.0028135239335296,0.9785379618871463,-2.420745379575917,9,True
2024-01-24,0.9785379618871463,0.9736581331069364,-0.49868568929087864,1,True
2024-01-25,0.9736581331069364,0.9638374147510991,-1.0086413312750175,3,True
2024-01-26,0.9638374147510991,0.9591691186478596,-0.4843447693348768,0,True
2024-01-27,0.9591691186478596,0.9591691186478596,0.0,0,False
2024-01-28,0.9591691186478596,0.9563845980594224,-0.29030548777075893,1,True
2024-01-29,0.9563845980594224,0.9543808946867761,-0.20950811804288927,0,True
2024-01-30,0.9543808946867761,0.9543808946867761,0.0,0,False
2024-01-31,0.9543808946867761,0.9496271855901587,-0.4980934889918909,1,True
2024-02-01,0.9496271855901587,0.9496271855901587,0.0,0,False
2024-02-02,0.9496271855901587,0.9492160278263608,-0.043296755825528166,3,True
2024-02-03,0.9492160278263608,0.9468199453537044,-0.2524275193860004,1,True
2024-02-04,0.9468199453537044,0.947532834022292,0.07529295005728187,1,True
2024-02-05,0.947532834022292,0.947532834022292,0.0,0,False
2024-02-06,0.947532834022292,0.9439799448069817,-0.3749621213893217,2,True
2024-02-07,0.9439799448069817,0.9405008241967081,-0.36855874210176554,5,True
2024-02-08,0.9405008241967081,0.9583834796028498,1.9013971009983255,1,True
2024-02-09,0.9583834796028498,0.9681035409482153,1.0142142004986754,0,True
2024-02-10,0.9681035409482153,0.9650238430016579,-0.3181165873580971,2,True
2024-02-11,0.9650238430016579,0.9636341517625766,-0.1440058967619562,0,True
2024-02-12,0.9636341517625766,0.9651988065727941,0.16237021149112518,3,True
2024-02-13,0.9651988065727941,0.9661321149180496,0.09669596966965788,0,True
2024-02-14,0.9661321149180496,0.9674327285478769,0.13462068072724875,2,True
2024-02-15,0.9674327285478769,0.9767777936518918,0.9659653667125623,6,True
2024-02-16,0.9767777936518918,0.9749589846717903,-0.18620498868032742,5,True
2024-02-17,0.9749589846717903,0.9676457291745052,-0.7501090417405654,5,True
2024-02-18,0.9676457291745052,0.9644194001998785,-0.33342047376978545,4,True
2024-02-19,0.9644194001998785,0.9611547292706548,-0.33851153642772136,6,True
2024-02-20,0.9611547292706548,0.9564831196089165,-0.48604137497021416,10,True
2024-02-21,0.9564831196089165,0.9482608610872141,-0.8596344622437635,7,True
2024-02-22,0.9482608610872141,0.9604640717307805,1.2869043893233068,3,True
2024-02-23,0.9604640717307805,0.9513770886410253,-0.946103384521213,7,True
2024-02-24,0.9513770886410253,0.9538332493243119,0.2581689965642342,8,True
2024-02-25,0.9538332493243119,0.9584002501613555,0.4788049525720428,8,True
2024-02-26,0.9584002501613555,0.9657271670620906,0.7644944687255073,6,True
2024-02-27,0.9657271670620906,0.9668109200869899,0.1122214494799989,4,True
2024-02-28,0.9668109200869899,0.9908330832609004,2.4846805797093197,6,True
2024-02-29,0.9908330832609004,1.004119102576964,1.340893793366127,12,True
2024-03-01,1.004119102576964,1.0150897711373503,1.09256646270659,8,True
2024-03-02,1.0150897711373503,1.019261478571761,0.41096931059965147,6,True
2024-03-03,1.019261478571761,1.0206272152555689,0.13399276952186234,11,True
2024-03-04,1.0206272152555689,1.043816542659985,2.2720663389922846,4,True
2024-03-05,1.043816542659985,1.037114089605234,-0.6421102541324886,8,True
2024-03-06,1.037114089605234,1.0130985316818018,-2.315613890905055,10,True
2024-03-07,1.0130985316818018,1.0107028127271556,-0.2364744276816988,7,True
2024-03-08,1.0107028127271556,1.01845982736255,0.7674871918545323,5,True
2024-03-09,1.01845982736255,1.0271668542489203,0.8549209946668634,6,True
2024-03-10,1.0271668542489203,1.036124294956637,0.872053130478645,7,True
2024-03-11,1.036124294956637,1.0502847397258912,1.3666743303077267,8,True
2024-03-12,1.0502847397258912,1.0497057606993927,-0.055125910583986304,5,True
2024-03-13,1.0497057606993927,1.0405533802733888,-0.8718996092682119,6,True
2024-03-14,1.0405533802733888,1.0560687159904512,1.4910658127875953,6,True
2024-03-15,1.0560687159904512,1.0314878555536184,-2.327581535618084,11,True
2024-03-16,1.0314878555536184,1.030092262515381,-0.1352990275865551,4,True
2024-03-17,1.030092262515381,1.014142071915844,-1.5484234936964048,8,True
2024-03-18,1.014142071915844,1.019060558621568,0.48498990840921685,4,True
2024-03-19,1.019060558621568,0.9982010280695698,-2.046937287045414,9,True
2024-03-20,0.9982010280695698,0.9844505780099992,-1.3775231314039682,7,True
2024-03-21,0.9844505780099992,1.0092330260038538,2.5173887392042182,5,True
2024-03-22,1.0092330260038538,1.0059049464075458,-0.3297632469961731,7,True
2024-03-23,1.0059049464075458,1.0183852626101095,1.2407053218234543,5,True
2024-03-24,1.0183852626101095,1.0164560196236223,-0.1894413693244723,7,True
2024-03-25,1.0164560196236223,1.0303880699353312,1.3706495945459363,4,True
2024-03-26,1.0303880699353312,1.050390621903312,1.9412639326497727,7,True
2024-03-27,1.050390621903312,1.0517850984925428,0.13275790550224542,6,True
2024-03-28,1.0517850984925428,1.0425205987900243,-0.8808358015146456,7,True
2024-03-29,1.0425205987900243,1.0354268778341542,-0.6804394046605156,8,True
2024-03-30,1.0354268778341542,1.0301682720486982,-0.5078683872351886,2,True
2024-03-31,1.0301682720486982,1.0275998541276017,-0.24932023153738658,1,True
2024-04-01,1.0275998541276017,1.023961879146729,-0.35402642052349,6,True
2024-04-02,1.023961879146729,1.009871460384875,-1.3760686846658432,8,True
2024-04-03,1.009871460384875,1.014946320897109,0.5025253917265715,4,True
2024-04-04,1.014946320897109,1.0128494008870956,-0.20660403085750456,3,True
2024-04-05,1.0128494008870956,0.9974403308099281,-1.521358462933542,5,True
2024-04-06,0.9974403308099281,0.9898930295787021,-0.7566669401765203,3,True
2024-04-07,0.9898930295787021,1.0029784818527527,1.3219056891045966,4,True
2024-04-08,1.0029784818527527,0.9932126327129671,-0.9736848114373919,2,True
2024-04-09,0.9932126327129671,0.9879352391090721,-0.5313457994870374,3,True
2024-04-10,0.9879352391090721,0.982980817896891,-0.5014925084208088,6,True
2024-04-11,0.982980817896891,0.99388059294377,1.1088492113406012,1,True
2024-04-12,0.99388059294377,0.9934662469411104,-0.04168971661195897,8,True
2024-04-13,0.9934662469411104,0.9733843645582818,-2.0213955375596115,9,True
2024-04-14,0.9733843645582818,0.9517376230164976,-2.2238636996812167,12,True
2024-04-15,0.9517376230164976,0.9572516189366143,0.5793609275043909,5,True
2024-04-16,0.9572516189366143,0.9460871563458352,-1.1663038609620147,1,True
2024-04-17,0.9460871563458352,0.9425458785311808,-0.3743077781895088,1,True
2024-04-18,0.9425458785311808,0.9586027204738662,1.7035607823894683,1,True
2024-04-19,0.9586027204738662,0.984129017649805,2.6628650879814364,10,True
2024-04-20,0.984129017649805,0.9870082074953866,0.29256223462015285,0,True
2024-04-21,0.9870082074953866,0.9870082074953866,0.0,0,False
2024-04-22,0.9870082074953866,0.9870082074953866,0.0,0,False
2024-04-23,0.9870082074953866,0.9907871851134574,0.3828719547996684,4,True
2024-04-24,0.9907871851134574,0.9850186198710271,-0.5822204131323838,5,True
2024-04-25,0.9850186198710271,0.9795810175331714,-0.5520304112187957,3,True
2024-04-26,0.9795810175331714,0.9772152141884144,-0.24151175884509213,1,True
2024-04-27,0.9772152141884144,0.9775676017370551,0.03606038296624092,6,True
2024-04-28,0.9775676017370551,0.9828746465485465,0.5428826407566367,3,True
2024-04-29,0.9828746465485465,0.9859200869277254,0.30985033441173204,3,True
2024-04-30,0.9859200869277254,0.9806781269870678,-0.5316820308421066,2,True
2024-05-01,0.9806781269870678,0.9742565770096456,-0.6548070973246944,6,True
2024-05-02,0.9742565770096456,0.9780547369113846,0.3898521181552539,4,True
2024-05-03,0.9780547369113846,0.9831410272263227,0.5200414785577534,3,True
2024-05-04,0.9831410272263227,0.9837234129140016,0.05923724791772056,0,True
2024-05-05,0.9837234129140016,0.9812752007818095,-0.24887200000047738,1,True
2024-05-06,0.9812752007818095,0.9788287893209787,-0.24930941481876578,1,True
2024-05-07,0.9788287893209787,0.9808403007012693,0.20550186122805236,4,True
2024-05-08,0.9808403007012693,0.9790931596175322,-0.17812696750816315,3,True
2024-05-09,0.9790931596175322,0.9742765444769775,-0.4919465623103969,8,True
2024-05-10,0.9742765444769775,0.967389144822441,-0.7069245065561836,4,True
2024-05-11,0.967389144822441,0.95906136011176,-0.8608515771809211,4,True
2024-05-12,0.95906136011176,0.95601634602464,-0.3174994024120803,0,True
2024-05-13,0.95601634602464,0.9561770924035348,0.01681418728489703,4,True
2024-05-14,0.9561770924035348,0.9455780652529852,-1.1084795102031642,3,True
2024-05-15,0.9455780652529852,0.9374190146251394,-0.8628637790643712,3,True
2024-05-16,0.9374190146251394,0.9262002311983374,-1.1967736147626917,4,True
2024-05-17,0.9262002311983374,0.9255308599976072,-0.07227067951215416,1,True
2024-05-18,0.9255308599976072,0.9323291823511164,0.7345322179237446,2,True
2024-05-19,0.9323291823511164,0.9314543483943066,-0.0938331625106481,0,True
2024-05-20,0.9314543483943066,0.9372386453827073,0.6209962944906389,2,True
2024-05-21,0.9372386453827073,0.9333550016339827,-0.41437085078142033,2,True
2024-05-22,0.9333550016339827,0.936544221856642,0.34169423392771403,1,True
2024-05-23,0.936544221856642,0.9308575560447294,-0.6071967216496277,5,True
2024-05-24,0.9308575560447294,0.9402951013629143,1.0138549402000319,5,True
2024-05-25,0.9402951013629143,0.9348376245480887,-0.5804004303452404,3,True
2024-05-26,0.9348376245480887,0.9402558168047451,0.5795864559126729,3,True
2024-05-27,0.9402558168047451,0.9493220964922882,0.9642354267323627,4,True
2024-05-28,0.9493220964922882,0.9535616283100683,0.44658518256817104,2,True
2024-05-29,0.9535616283100683,0.9486322537293865,-0.516943471122866,4,True
2024-05-30,0.9486322537293865,0.9339536771107851,-1.547341086168541,6,True
2024-05-31,0.9339536771107851,0.9277166232459928,-0.6678119073407207,3,True
2024-06-01,0.9277166232459928,0.9215193977120691,-0.6680084606267123,3,True
2024-06-02,0.9215193977120691,0.9191541763450618,-0.2566653911876049,3,True
2024-06-03,0.9191541763450618,0.904206060356181,-1.6262903845272958,10,True
2024-06-04,0.904206060356181,0.904206060356181,0.0,0,False
2024-06-05,0.904206060356181,0.904206060356181,0.0,0,False
2024-06-06,0.904206060356181,0.904206060356181,0.0,0,False
2024-06-07,0.904206060356181,0.904206060356181,0.0,0,False
2024-06-08,0.904206060356181,0.904206060356181,0.0,0,False
2024-06-09,0.904206060356181,0.904206060356181,0.0,0,False
2024-06-10,0.904206060356181,0.904206060356181,0.0,0,False
2024-06-11,0.904206060356181,0.904206060356181,0.0,0,False
2024-06-12,0.904206060356181,0.904206060356181,0.0,0,False
2024-06-13,0.904206060356181,0.904206060356181,0.0,0,False
2024-06-14,0.904206060356181,0.904206060356181,0.0,0,False
2024-06-15,0.904206060356181,0.904206060356181,0.0,0,False
2024-06-16,0.904206060356181,0.904206060356181,0.0,0,False
2024-06-17,0.904206060356181,0.904206060356181,0.0,0,False
2024-06-18,0.904206060356181,0.904206060356181,0.0,0,False
2024-06-19,0.904206060356181,0.904206060356181,0.0,0,False
2024-06-20,0.904206060356181,0.904206060356181,0.0,0,False
2024-06-21,0.904206060356181,0.904206060356181,0.0,0,False
2024-06-22,0.904206060356181,0.904206060356181,0.0,0,False
2024-06-23,0.904206060356181,0.904206060356181,0.0,0,False
2024-06-24,0.904206060356181,0.904206060356181,0.0,0,False
2024-06-25,0.904206060356181,0.904206060356181,0.0,0,False
2024-06-26,0.904206060356181,0.904206060356181,0.0,0,False
2024-06-27,0.904206060356181,0.904206060356181,0.0,0,False
2024-06-28,0.904206060356181,0.904206060356181,0.0,0,False
2024-06-29,0.904206060356181,0.904206060356181,0.0,0,False
2024-06-30,0.904206060356181,0.904206060356181,0.0,0,False
2024-07-01,0.904206060356181,0.904206060356181,0.0,0,False
2024-07-02,0.904206060356181,0.904206060356181,0.0,0,False
2024-07-03,0.904206060356181,0.904206060356181,0.0,0,False
2024-07-04,0.904206060356181,0.904206060356181,0.0,0,False
2024-07-05,0.904206060356181,0.904206060356181,0.0,0,False
2024-07-06,0.904206060356181,0.904206060356181,0.0,0,False
2024-07-07,0.904206060356181,0.904206060356181,0.0,0,False
2024-07-08,0.904206060356181,0.904206060356181,0.0,0,False
2024-07-09,0.904206060356181,0.904206060356181,0.0,0,False
2024-07-10,0.904206060356181,0.904206060356181,0.0,0,False
2024-07-11,0.904206060356181,0.904206060356181,0.0,0,False
2024-07-12,0.904206060356181,0.904206060356181,0.0,0,False
2024-07-13,0.904206060356181,0.904206060356181,0.0,0,False
2024-07-14,0.904206060356181,0.904206060356181,0.0,0,False
2024-07-15,0.904206060356181,0.904206060356181,0.0,0,False
2024-07-16,0.904206060356181,0.904206060356181,0.0,0,False
2024-07-17,0.904206060356181,0.904206060356181,0.0,0,False
2024-07-18,0.904206060356181,0.904206060356181,0.0,0,False
2024-07-19,0.904206060356181,0.904206060356181,0.0,0,False
2024-07-20,0.904206060356181,0.904206060356181,0.0,0,False
2024-07-21,0.904206060356181,0.904206060356181,0.0,0,False
2024-07-22,0.904206060356181,0.904206060356181,0.0,0,False
2024-07-23,0.904206060356181,0.904206060356181,0.0,0,False
2024-07-24,0.904206060356181,0.904206060356181,0.0,0,False
2024-07-25,0.904206060356181,0.904206060356181,0.0,0,False
2024-07-26,0.904206060356181,0.904206060356181,0.0,0,False
2024-07-27,0.904206060356181,0.904206060356181,0.0,0,False
2024-07-28,0.904206060356181,0.904206060356181,0.0,0,False
2024-07-29,0.904206060356181,0.904206060356181,0.0,0,False
2024-07-30,0.904206060356181,0.904206060356181,0.0,0,False
2024-07-31,0.904206060356181,0.904206060356181,0.0,0,False
2024-08-01,0.904206060356181,0.904206060356181,0.0,0,False
2024-08-02,0.904206060356181,0.904206060356181,0.0,0,False
2024-08-03,0.904206060356181,0.904206060356181,0.0,0,False
2024-08-04,0.904206060356181,0.904206060356181,0.0,0,False
2024-08-05,0.904206060356181,0.904206060356181,0.0,0,False
2024-08-06,0.904206060356181,0.904206060356181,0.0,0,False
2024-08-07,0.904206060356181,0.904206060356181,0.0,0,False
2024-08-08,0.904206060356181,0.904206060356181,0.0,0,False
2024-08-09,0.904206060356181,0.904206060356181,0.0,0,False
2024-08-10,0.904206060356181,0.904206060356181,0.0,0,False
2024-08-11,0.904206060356181,0.904206060356181,0.0,0,False
2024-08-12,0.904206060356181,0.904206060356181,0.0,0,False
2024-08-13,0.904206060356181,0.904206060356181,0.0,0,False
2024-08-14,0.904206060356181,0.904206060356181,0.0,0,False
2024-08-15,0.904206060356181,0.904206060356181,0.0,0,False
2024-08-16,0.904206060356181,0.904206060356181,0.0,0,False
2024-08-17,0.904206060356181,0.904206060356181,0.0,0,False
2024-08-18,0.904206060356181,0.904206060356181,0.0,0,False
2024-08-19,0.904206060356181,0.904206060356181,0.0,0,False
2024-08-20,0.904206060356181,0.904206060356181,0.0,0,False
2024-08-21,0.904206060356181,0.904206060356181,0.0,0,False
2024-08-22,0.904206060356181,0.904206060356181,0.0,0,False
2024-08-23,0.904206060356181,0.904206060356181,0.0,0,False
2024-08-24,0.904206060356181,0.904206060356181,0.0,0,False
2024-08-25,0.904206060356181,0.904206060356181,0.0,0,False
2024-08-26,0.904206060356181,0.904206060356181,0.0,0,False
2024-08-27,0.904206060356181,0.904206060356181,0.0,0,False
2024-08-28,0.904206060356181,0.904206060356181,0.0,0,False
2024-08-29,0.904206060356181,0.904206060356181,0.0,0,False
2024-08-30,0.904206060356181,0.904206060356181,0.0,0,False
2024-08-31,0.904206060356181,0.904206060356181,0.0,0,False
2024-09-01,0.904206060356181,0.904206060356181,0.0,0,False
2024-09-02,0.904206060356181,0.904206060356181,0.0,0,False
2024-09-03,0.904206060356181,0.904206060356181,0.0,0,False
2024-09-04,0.904206060356181,0.904206060356181,0.0,0,False
2024-09-05,0.904206060356181,0.904206060356181,0.0,0,False
2024-09-06,0.904206060356181,0.904206060356181,0.0,0,False
2024-09-07,0.904206060356181,0.904206060356181,0.0,0,False
2024-09-08,0.904206060356181,0.904206060356181,0.0,0,False
2024-09-09,0.904206060356181,0.904206060356181,0.0,0,False
2024-09-10,0.904206060356181,0.904206060356181,0.0,0,False
2024-09-11,0.904206060356181,0.904206060356181,0.0,0,False
2024-09-12,0.904206060356181,0.904206060356181,0.0,0,False
2024-09-13,0.904206060356181,0.904206060356181,0.0,0,False
2024-09-14,0.904206060356181,0.904206060356181,0.0,0,False
2024-09-15,0.904206060356181,0.904206060356181,0.0,0,False
2024-09-16,0.904206060356181,0.904206060356181,0.0,0,False
2024-09-17,0.904206060356181,0.904206060356181,0.0,0,False
2024-09-18,0.904206060356181,0.904206060356181,0.0,0,False
2024-09-19,0.904206060356181,0.904206060356181,0.0,0,False
2024-09-20,0.904206060356181,0.904206060356181,0.0,0,False
2024-09-21,0.904206060356181,0.904206060356181,0.0,0,False
2024-09-22,0.904206060356181,0.904206060356181,0.0,0,False
2024-09-23,0.904206060356181,0.904206060356181,0.0,0,False
2024-09-24,0.904206060356181,0.904206060356181,0.0,0,False
2024-09-25,0.904206060356181,0.904206060356181,0.0,0,False
2024-09-26,0.904206060356181,0.904206060356181,0.0,0,False
2024-09-27,0.904206060356181,0.904206060356181,0.0,0,False
2024-09-28,0.904206060356181,0.904206060356181,0.0,0,False
2024-09-29,0.904206060356181,0.904206060356181,0.0,0,False
2024-09-30,0.904206060356181,0.904206060356181,0.0,0,False
2024-10-01,0.904206060356181,0.904206060356181,0.0,0,False
2024-10-02,0.904206060356181,0.904206060356181,0.0,0,False
2024-10-03,0.904206060356181,0.904206060356181,0.0,0,False
2024-10-04,0.904206060356181,0.904206060356181,0.0,0,False
2024-10-05,0.904206060356181,0.904206060356181,0.0,0,False
2024-10-06,0.904206060356181,0.904206060356181,0.0,0,False
2024-10-07,0.904206060356181,0.904206060356181,0.0,0,False
2024-10-08,0.904206060356181,0.904206060356181,0.0,0,False
2024-10-09,0.904206060356181,0.904206060356181,0.0,0,False
2024-10-10,0.904206060356181,0.904206060356181,0.0,0,False
2024-10-11,0.904206060356181,0.904206060356181,0.0,0,False
2024-10-12,0.904206060356181,0.904206060356181,0.0,0,False
2024-10-13,0.904206060356181,0.904206060356181,0.0,0,False
2024-10-14,0.904206060356181,0.904206060356181,0.0,0,False
2024-10-15,0.904206060356181,0.904206060356181,0.0,0,False
2024-10-16,0.904206060356181,0.904206060356181,0.0,0,False
2024-10-17,0.904206060356181,0.904206060356181,0.0,0,False
2024-10-18,0.904206060356181,0.904206060356181,0.0,0,False
2024-10-19,0.904206060356181,0.904206060356181,0.0,0,False
2024-10-20,0.904206060356181,0.904206060356181,0.0,0,False
2024-10-21,0.904206060356181,0.904206060356181,0.0,0,False
2024-10-22,0.904206060356181,0.904206060356181,0.0,0,False
2024-10-23,0.904206060356181,0.904206060356181,0.0,0,False
2024-10-24,0.904206060356181,0.904206060356181,0.0,0,False
2024-10-25,0.904206060356181,0.904206060356181,0.0,0,False
2024-10-26,0.904206060356181,0.904206060356181,0.0,0,False
2024-10-27,0.904206060356181,0.904206060356181,0.0,0,False
2024-10-28,0.904206060356181,0.904206060356181,0.0,0,False
2024-10-29,0.904206060356181,0.904206060356181,0.0,0,False
2024-10-30,0.904206060356181,0.904206060356181,0.0,0,False
2024-10-31,0.904206060356181,0.904206060356181,0.0,0,False
2024-11-01,0.904206060356181,0.904206060356181,0.0,0,False
2024-11-02,0.904206060356181,0.904206060356181,0.0,0,False
2024-11-03,0.904206060356181,0.904206060356181,0.0,0,False
2024-11-04,0.904206060356181,0.904206060356181,0.0,0,False
2024-11-05,0.904206060356181,0.904206060356181,0.0,0,False
2024-11-06,0.904206060356181,0.904206060356181,0.0,0,False
2024-11-07,0.904206060356181,0.904206060356181,0.0,0,False
2024-11-08,0.904206060356181,0.904206060356181,0.0,0,False
2024-11-09,0.904206060356181,0.904206060356181,0.0,0,False
2024-11-10,0.904206060356181,0.904206060356181,0.0,0,False
2024-11-11,0.904206060356181,0.904206060356181,0.0,0,False
2024-11-12,0.904206060356181,0.904206060356181,0.0,0,False
2024-11-13,0.904206060356181,0.904206060356181,0.0,0,False
2024-11-14,0.904206060356181,0.904206060356181,0.0,0,False
2024-11-15,0.904206060356181,0.904206060356181,0.0,0,False
2024-11-16,0.904206060356181,0.904206060356181,0.0,0,False
2024-11-17,0.904206060356181,0.904206060356181,0.0,0,False
2024-11-18,0.904206060356181,0.904206060356181,0.0,0,False
2024-11-19,0.904206060356181,0.904206060356181,0.0,0,False
2024-11-20,0.904206060356181,0.904206060356181,0.0,0,False
2024-11-21,0.904206060356181,0.904206060356181,0.0,0,False
2024-11-22,0.904206060356181,0.904206060356181,0.0,0,False
2024-11-23,0.904206060356181,0.904206060356181,0.0,0,False
2024-11-24,0.904206060356181,0.904206060356181,0.0,0,False
2024-11-25,0.904206060356181,0.904206060356181,0.0,0,False
2024-11-26,0.904206060356181,0.904206060356181,0.0,0,False
2024-11-27,0.904206060356181,0.904206060356181,0.0,0,False
2024-11-28,0.904206060356181,0.904206060356181,0.0,0,False
2024-11-29,0.904206060356181,0.904206060356181,0.0,0,False
2024-11-30,0.904206060356181,0.904206060356181,0.0,0,False
2024-12-01,0.904206060356181,0.904206060356181,0.0,0,False
2024-12-02,0.904206060356181,0.904206060356181,0.0,0,False
2024-12-03,0.904206060356181,0.904206060356181,0.0,0,False
2024-12-04,0.904206060356181,0.904206060356181,0.0,0,False
2024-12-05,0.904206060356181,0.904206060356181,0.0,0,False
2024-12-06,0.904206060356181,0.904206060356181,0.0,0,False
2024-12-07,0.904206060356181,0.904206060356181,0.0,0,False
2024-12-08,0.904206060356181,0.904206060356181,0.0,0,False
2024-12-09,0.904206060356181,0.904206060356181,0.0,0,False
2024-12-10,0.904206060356181,0.904206060356181,0.0,0,False
2024-12-11,0.904206060356181,0.904206060356181,0.0,0,False
2024-12-12,0.904206060356181,0.904206060356181,0.0,0,False
2024-12-13,0.904206060356181,0.904206060356181,0.0,0,False
2024-12-14,0.904206060356181,0.904206060356181,0.0,0,False
2024-12-15,0.904206060356181,0.904206060356181,0.0,0,False
2024-12-16,0.904206060356181,0.904206060356181,0.0,0,False
2024-12-17,0.904206060356181,0.904206060356181,0.0,0,False
2024-12-18,0.904206060356181,0.904206060356181,0.0,0,False
2024-12-19,0.904206060356181,0.904206060356181,0.0,0,False
2024-12-20,0.904206060356181,0.904206060356181,0.0,0,False
2024-12-21,0.904206060356181,0.904206060356181,0.0,0,False
2024-12-22,0.904206060356181,0.904206060356181,0.0,0,False
2024-12-23,0.904206060356181,0.904206060356181,0.0,0,False
2024-12-24,0.904206060356181,0.904206060356181,0.0,0,False
2024-12-25,0.904206060356181,0.904206060356181,0.0,0,False
2024-12-26,0.904206060356181,0.904206060356181,0.0,0,False
2024-12-27,0.904206060356181,0.904206060356181,0.0,0,False
2024-12-28,0.904206060356181,0.904206060356181,0.0,0,False
2024-12-29,0.904206060356181,0.904206060356181,0.0,0,False
2024-12-30,0.904206060356181,0.904206060356181,0.0,0,False
2024-12-31,0.904206060356181,0.904206060356181,0.0,0,False
