day,start_equity,end_equity,return_pct,entries,active
2024-01-02,1.0,1.0,0.0,0,False
2024-01-03,1.0,0.9935163439506344,-0.6483656049365627,6,True
2024-01-04,0.9935163439506344,0.9961362235721276,0.26369768725449383,1,True
2024-01-05,0.9961362235721276,0.995010024357746,-0.11305674743390393,1,True
2024-01-06,0.995010024357746,0.9956594970737493,0.06527298219156652,2,True
2024-01-07,0.9956594970737493,0.9918391812438132,-0.38369702103621117,1,True
2024-01-08,0.9918391812438132,0.9967170404987609,0.49179941135524263,3,True
2024-01-09,0.9967170404987609,1.0123514986989561,1.568595455373356,0,True
2024-01-10,1.0123514986989561,1.0123514986989561,0.0,0,False
2024-01-11,1.0123514986989561,1.0131776866691748,0.08161078155961565,1,True
2024-01-12,1.0131776866691748,1.005993178770132,-0.7091064078465825,2,True
2024-01-13,1.005993178770132,1.0113746240212997,0.5349385427987574,4,True
2024-01-14,1.0113746240212997,1.0143838765842137,0.2975408410929914,0,True
2024-01-15,1.0143838765842137,1.0143838765842137,0.0,0,False
2024-01-16,1.0143838765842137,1.0140621170952777,-0.03171969669110153,1,True
2024-01-17,1.0140621170952777,1.0158158073881383,0.17293716659920744,0,True
2024-01-18,1.0158158073881383,1.0158158073881383,0.0,0,False
2024-01-19,1.0158158073881383,1.0158158073881383,0.0,0,False
2024-01-20,1.0158158073881383,1.0295368762357568,1.350743781286301,6,True
2024-01-21,1.0295368762357568,1.031935478830587,0.23297879368828767,0,True
2024-01-22,1.031935478830587,1.031935478830587,0.0,0,False
2024-01-23,1.031935478830587,1.0105591728409544,-2.071476989419596,8,True
2024-01-24,1.0105591728409544,1.0235361921507342,1.2841424489075548,0,True
2024-01-25,1.0235361921507342,1.0220292561328297,-0.14722840574283858,1,True
2024-01-26,1.0220292561328297,1.0220292561328297,0.0,0,False
2024-01-27,1.0220292561328297,1.0220292561328297,0.0,0,False
2024-01-28,1.0220292561328297,1.0220292561328297,0.0,0,False
2024-01-29,1.0220292561328297,1.0220292561328297,0.0,0,False
2024-01-30,1.0220292561328297,1.0220292561328297,0.0,0,False
2024-01-31,1.0220292561328297,1.0175617254595084,-0.43712356045712,1,True
2024-02-01,1.0175617254595084,1.0175617254595084,0.0,0,False
2024-02-02,1.0175617254595084,1.0173562785496622,-0.020190117680918274,2,True
2024-02-03,1.0173562785496622,1.025715899350322,0.8217004187143884,1,True
2024-02-04,1.025715899350322,1.0240749815575536,-0.1599778061164514,1,True
2024-02-05,1.0240749815575536,1.0240749815575536,0.0,0,False
2024-02-06,1.0240749815575536,1.0189720789453784,-0.4982938460633024,1,True
2024-02-07,1.0189720789453784,1.0171110920120219,-0.18263375138626303,3,True
2024-02-08,1.0171110920120219,1.0259484732655166,0.8688707971921561,0,True
2024-02-09,1.0259484732655166,1.0259484732655166,0.0,0,False
2024-02-10,1.0259484732655166,1.0259484732655166,0.0,0,False
2024-02-11,1.0259484732655166,1.0259484732655166,0.0,0,False
2024-02-12,1.0259484732655166,1.0259484732655166,0.0,0,False
2024-02-13,1.0259484732655166,1.0259484732655166,0.0,0,False
2024-02-14,1.0259484732655166,1.0272899380105434,0.1307536177481694,1,True
2024-02-15,1.0272899380105434,1.0279695910716735,0.0661598090259119,0,True
2024-02-16,1.0279695910716735,1.033212640765946,0.5100393766324096,1,True
2024-02-17,1.033212640765946,1.0300156521489918,-0.30942213546518715,2,True
2024-02-18,1.0300156521489918,1.0315303143441035,0.1470523474037977,0,True
2024-02-19,1.0315303143441035,1.0315303143441035,0.0,0,False
2024-02-20,1.0315303143441035,1.0338850958800485,0.22828040079871936,7,True
2024-02-21,1.0338850958800485,1.0290276806687435,-0.4698215721129384,6,True
2024-02-22,1.0290276806687435,1.0545473082402592,2.47997483944562,3,True
2024-02-23,1.0545473082402592,1.0552617559010797,0.06774922805623529,1,True
2024-02-24,1.0552617559010797,1.0516512871713026,-0.34213963593271446,3,True
2024-02-25,1.0516512871713026,1.0480640655375482,-0.34110371731710387,1,True
2024-02-26,1.0480640655375482,1.053421476371654,0.5111720752832172,0,True
2024-02-27,1.053421476371654,1.0532414166025426,-0.017092851546152144,1,True
2024-02-28,1.0532414166025426,1.0533008975898839,0.005647421987364787,1,True
2024-02-29,1.0533008975898839,1.0784877922299199,2.3912345178540573,5,True
2024-03-01,1.0784877922299199,1.0751239289004562,-0.31190555458291414,1,True
2024-03-02,1.0751239289004562,1.0746913685785668,-0.04023353124803508,1,True
2024-03-03,1.0746913685785668,1.0791470929422697,0.4146050200064533,6,True
2024-03-04,1.0791470929422697,1.0933249745258005,1.3138043623761364,0,True
2024-03-05,1.0933249745258005,1.0857983203218107,-0.68841875740141,5,True
2024-03-06,1.0857983203218107,1.0712074942780179,-1.3437878628757116,5,True
2024-03-07,1.0712074942780179,1.0704133632122772,-0.07413419622086526,0,True
2024-03-08,1.0704133632122772,1.0713292701606385,0.08556572440507892,2,True
2024-03-09,1.0713292701606385,1.061927955545477,-0.8775373619495874,3,True
2024-03-10,1.061927955545477,1.059964915178206,-0.18485626609788808,2,True
2024-03-11,1.059964915178206,1.0559620722514897,-0.3776391906371024,0,True
2024-03-12,1.0559620722514897,1.052062862805342,-0.3692565811415971,1,True
2024-03-13,1.052062862805342,1.056530065001538,0.4246136190269256,2,True
2024-03-14,1.056530065001538,1.0513481180907411,-0.490468476236805,1,True
2024-03-15,1.0513481180907411,1.0363888662483274,-1.422863805528074,11,True
2024-03-16,1.0363888662483274,1.0455475280157358,0.8837090078516852,1,True
2024-03-17,1.0455475280157358,1.0304575360293395,-1.443262174320703,4,True
2024-03-18,1.0304575360293395,1.0304575360293395,0.0,0,False
2024-03-19,1.0304575360293395,1.021493036639623,-0.8699533048454722,10,True
2024-03-20,1.021493036639623,1.0189644895862613,-0.2475344385782452,0,True
2024-03-21,1.0189644895862613,1.0207874315551229,0.17890142271805853,2,True
2024-03-22,1.0207874315551229,1.0207874315551229,0.0,0,False
2024-03-23,1.0207874315551229,1.022572869546056,0.1749079128269715,1,True
2024-03-24,1.022572869546056,1.01911836926686,-0.337824362651995,2,True
2024-03-25,1.01911836926686,1.0274570072670184,0.8182207535084585,2,True
2024-03-26,1.0274570072670184,1.0415739306884464,1.3739673116813123,2,True
2024-03-27,1.0415739306884464,1.0407734214651922,-0.07685572763184156,2,True
2024-03-28,1.0407734214651922,1.0394694844482628,-0.12528538777381026,0,True
2024-03-29,1.0394694844482628,1.027182194901723,-1.1820731373429094,4,True
2024-03-30,1.027182194901723,1.0262418010184156,-0.09155083567209399,0,True
2024-03-31,1.0262418010184156,1.0262418010184156,0.0,0,False
2024-04-01,1.0262418010184156,1.0245678176852748,-0.1631178277360701,4,True
2024-04-02,1.0245678176852748,1.0122916897148067,-1.1981762220682146,5,True
2024-04-03,1.0122916897148067,1.010529514231781,-0.1740778375373342,1,True
2024-04-04,1.010529514231781,1.0100500260632423,-0.047449199828975,1,True
2024-04-05,1.0100500260632423,1.001562749369551,-0.8402828052756273,3,True
2024-04-06,1.001562749369551,0.9998425587578592,-0.17175065793676447,1,True
2024-04-07,0.9998425587578592,1.0153606170684486,1.5520501877683612,1,True
2024-04-08,1.0153606170684486,1.0096482179850528,-0.5625980550524656,0,True
2024-04-09,1.0096482179850528,1.0046119257074102,-0.4988165370799602,1,True
2024-04-10,1.0046119257074102,0.9986539185127523,-0.5930655452315525,4,True
2024-04-11,0.9986539185127523,0.9970085219740852,-0.16476143618577854,1,True
2024-04-12,0.9970085219740852,0.9935507663222565,-0.34681304879744523,2,True
2024-04-13,0.9935507663222565,0.9716595356580174,-2.20333287500466,7,True
2024-04-14,0.9716595356580174,0.9307600117449324,-4.209244330153927,14,True
2024-04-15,0.9307600117449324,0.9372723551305314,0.6996801864521451,0,True
2024-04-16,0.9372723551305314,0.9372723551305314,0.0,0,False
2024-04-17,0.9372723551305314,0.9372723551305314,0.0,0,False
2024-04-18,0.9372723551305314,0.9372723551305314,0.0,0,False
2024-04-19,0.9372723551305314,0.9414834200628854,0.4492893564291167,4,True
2024-04-20,0.9414834200628854,0.9390587504522968,-0.25753715454985837,0,True
2024-04-21,0.9390587504522968,0.9390587504522968,0.0,0,False
2024-04-22,0.9390587504522968,0.9390587504522968,0.0,0,False
2024-04-23,0.9390587504522968,0.9410054500421663,0.20730327989935127,1,True
2024-04-24,0.9410054500421663,0.9380046169180302,-0.31889646590268494,1,True
2024-04-25,0.9380046169180302,0.9380046169180302,0.0,0,False
2024-04-26,0.9380046169180302,0.9380046169180302,0.0,0,False
2024-04-27,0.9380046169180302,0.94536795174949,0.7849998495373267,3,True
2024-04-28,0.94536795174949,0.9484451757058752,0.3255054236491306,1,True
2024-04-29,0.9484451757058752,0.9506879214557646,0.23646551296128138,2,True
2024-04-30,0.9506879214557646,0.9485803714942812,-0.2216868347560519,2,True
2024-05-01,0.9485803714942812,0.9453781396505416,-0.33758149967779705,3,True
2024-05-02,0.9453781396505416,0.9467046919563392,0.14031975673649555,1,True
2024-05-03,0.9467046919563392,0.945031163859099,-0.1767740364507886,1,True
2024-05-04,0.945031163859099,0.9453186290918548,0.030418598216575,0,True
2024-05-05,0.9453186290918548,0.9433188338205982,-0.21154721907656882,1,True
2024-05-06,0.9433188338205982,0.9433188338205982,0.0,0,False
2024-05-07,0.9433188338205982,0.9484552654787068,0.544506424970348,2,True
2024-05-08,0.9484552654787068,0.9506725833489691,0.2337820191385731,2,True
2024-05-09,0.9506725833489691,0.9460215544474967,-0.48923561938517546,1,True
2024-05-10,0.9460215544474967,0.9489439699222995,0.3089163731062605,0,True
2024-05-11,0.9489439699222995,0.9415714271847909,-0.7769207636265651,3,True
2024-05-12,0.9415714271847909,0.9413225672970302,-0.026430271838728814,0,True
2024-05-13,0.9413225672970302,0.9436796641320181,0.25040266927374155,3,True
2024-05-14,0.9436796641320181,0.9431532485509958,-0.05578329183415498,3,True
2024-05-15,0.9431532485509958,0.9490451916683917,0.6247068677808221,2,True
2024-05-16,0.9490451916683917,0.9584470355960694,0.9906634594659902,0,True
2024-05-17,0.9584470355960694,0.9584470355960694,0.0,0,False
2024-05-18,0.9584470355960694,0.9640235612918565,0.5818293018475584,2,True
2024-05-19,0.9640235612918565,0.9634011255665285,-0.06456644321990446,0,True
2024-05-20,0.9634011255665285,0.9596080946861484,-0.3937125232389094,1,True
2024-05-21,0.9596080946861484,0.9542464182384729,-0.5587360587479329,2,True
2024-05-22,0.9542464182384729,0.9569051412441786,0.27862017136135453,1,True
2024-05-23,0.9569051412441786,0.9520794164980608,-0.5043054466029151,1,True
2024-05-24,0.9520794164980608,0.9575412207560255,0.5736710786222288,2,True
2024-05-25,0.9575412207560255,0.9572354701352992,-0.03193080507646329,0,True
2024-05-26,0.9572354701352992,0.9589369962868651,0.17775418950214394,2,True
2024-05-27,0.9589369962868651,0.9625095880782263,0.37255750953344435,2,True
2024-05-28,0.9625095880782263,0.9677012946993359,0.5393927172689716,1,True
2024-05-29,0.9677012946993359,0.967118229210643,-0.06025263083625498,0,True
2024-05-30,0.967118229210643,0.9674492990057398,0.03423260828896435,3,True
2024-05-31,0.9674492990057398,0.9627270758174905,-0.4881106630706511,0,True
2024-06-01,0.9627270758174905,0.9607716350086085,-0.2031147620130569,2,True
2024-06-02,0.9607716350086085,0.9696419535856879,0.9232494230535737,0,True
2024-06-03,0.9696419535856879,0.970726250511467,0.11182446487276732,1,True
2024-06-04,0.970726250511467,0.9784912317423359,0.799914623384046,3,True
2024-06-05,0.9784912317423359,0.9774783206457167,-0.10351764673613983,0,True
2024-06-06,0.9774783206457167,0.9786865471293827,0.12360647373415024,1,True
2024-06-07,0.9786865471293827,0.9774746796830539,-0.12382590216278855,0,True
2024-06-08,0.9774746796830539,0.9960296059227736,1.898251343526991,5,True
2024-06-09,0.9960296059227736,0.9960296059227736,0.0,0,False
2024-06-10,0.9960296059227736,0.9960296059227736,0.0,0,False
2024-06-11,0.9960296059227736,0.9962486012561184,0.021986829712949962,1,True
2024-06-12,0.9962486012561184,0.9937697745669841,-0.24881607723301613,1,True
2024-06-13,0.9937697745669841,0.9888174316520062,-0.4983390561597467,1,True
2024-06-14,0.9888174316520062,0.9828597084085903,-0.6025099328459849,4,True
2024-06-15,0.9828597084085903,0.9938253086491344,1.1156831587184834,4,True
2024-06-16,0.9938253086491344,0.9934217775454199,-0.04060382646755567,0,True
2024-06-17,0.9934217775454199,0.9861178982933079,-0.7352243948344661,2,True
2024-06-18,0.9861178982933079,0.9921639703487134,0.6131185800267502,5,True
2024-06-19,0.9921639703487134,0.9921639703487134,0.0,0,False
2024-06-20,0.9921639703487134,0.9967334820924031,0.46056013726074596,1,True
2024-06-21,0.9967334820924031,0.9952815814173106,-0.14566588774007627,1,True
2024-06-22,0.9952815814173106,0.9980059757548906,0.27373101124812393,0,True
2024-06-23,0.9980059757548906,0.9977873160460062,-0.021909659280239246,2,True
2024-06-24,0.9977873160460062,0.9977873160460062,0.0,0,False
2024-06-25,0.9977873160460062,0.9977873160460062,0.0,0,False
2024-06-26,0.9977873160460062,0.9977873160460062,0.0,0,False
2024-06-27,0.9977873160460062,0.9928155872407256,-0.4982754065247508,1,True
2024-06-28,0.9928155872407256,0.9926282567622812,-0.01886860771043164,1,True
2024-06-29,0.9926282567622812,0.9814681209887213,-1.1243016403705508,3,True
2024-06-30,0.9814681209887213,0.978931261863968,-0.25847595764982856,0,True
2024-07-01,0.978931261863968,0.9726513509364081,-0.6415068322164319,2,True
2024-07-02,0.9726513509364081,0.9768988621741151,0.4366941179506645,0,True
2024-07-03,0.9768988621741151,0.9738151027794181,-0.31566823487071405,1,True
2024-07-04,0.9738151027794181,0.9655770193703356,-0.845959708939581,4,True
2024-07-05,0.9655770193703356,0.9360243006721491,-3.0606278013387445,15,True
2024-07-06,0.9360243006721491,0.9429261522486484,0.7373581616997749,0,True
2024-07-07,0.9429261522486484,0.9429261522486484,0.0,0,False
2024-07-08,0.9429261522486484,0.9417965939944916,-0.119792865163737,2,True
2024-07-09,0.9417965939944916,0.9417966291991633,3.738033460543022e-06,1,True
2024-07-10,0.9417966291991633,0.9453767187910171,0.38013404177270615,1,True
2024-07-11,0.9453767187910171,0.9350085972565159,-1.0967185174350802,2,True
2024-07-12,0.9350085972565159,0.9350085972565159,0.0,0,False
2024-07-13,0.9350085972565159,0.9350085972565159,0.0,0,False
2024-07-14,0.9350085972565159,0.9358318059370673,0.08804289960187006,1,True
2024-07-15,0.9358318059370673,0.9371290192475847,0.13861607420133648,0,True
2024-07-16,0.9371290192475847,0.9371290192475847,0.0,0,False
2024-07-17,0.9371290192475847,0.9371290192475847,0.0,0,False
2024-07-18,0.9371290192475847,0.9371290192475847,0.0,0,False
2024-07-19,0.9371290192475847,0.9341275957140875,-0.3202785819082843,2,True
2024-07-20,0.9341275957140875,0.9350363071181289,0.097279152035612,0,True
2024-07-21,0.9350363071181289,0.9348266314798735,-0.022424331190051827,1,True
2024-07-22,0.9348266314798735,0.9348434251792485,0.0017964506796586122,1,True
2024-07-23,0.9348434251792485,0.9319212747242187,-0.31258180528674906,3,True
2024-07-24,0.9319212747242187,0.930938028646882,-0.10550741827711763,1,True
2024-07-25,0.930938028646882,0.9301193292198805,-0.08794349374592336,0,True
2024-07-26,0.9301193292198805,0.9301193292198805,0.0,0,False
2024-07-27,0.9301193292198805,0.9301193292198805,0.0,0,False
2024-07-28,0.9301193292198805,0.9279305153226469,-0.23532613810631764,1,True
2024-07-29,0.9279305153226469,0.9279305153226469,0.0,0,False
2024-07-30,0.9279305153226469,0.9243394661450985,-0.38699548277058016,2,True
2024-07-31,0.9243394661450985,0.9173686884325591,-0.7541361120942502,3,True
2024-08-01,0.9173686884325591,0.915364606183513,-0.21845984873000157,0,True
2024-08-02,0.915364606183513,0.9109335448901534,-0.4840761007610106,4,True
2024-08-03,0.9109335448901534,0.9081963474993349,-0.30048266486317754,6,True
2024-08-04,0.9081963474993349,0.8939871247934462,-1.564554046601585,3,True
2024-08-05,0.8939871247934462,0.878959884242248,-1.6809235988348492,8,True
2024-08-06,0.878959884242248,0.8808610006138285,0.2162915971096302,0,True
2024-08-07,0.8808610006138285,0.8808610006138285,0.0,0,False
2024-08-08,0.8808610006138285,0.8808610006138285,0.0,0,False
2024-08-09,0.8808610006138285,0.8808610006138285,0.0,0,False
2024-08-10,0.8808610006138285,0.8808610006138285,0.0,0,False
2024-08-11,0.8808610006138285,0.8798503060023509,-0.11473939824482304,1,True
2024-08-12,0.8798503060023509,0.8808471226719964,0.11329389361407483,1,True
2024-08-13,0.8808471226719964,0.8774636163522617,-0.38411958586763717,0,True
2024-08-14,0.8774636163522617,0.8774636163522617,0.0,0,False
2024-08-15,0.8774636163522617,0.8774636163522617,0.0,0,False
2024-08-16,0.8774636163522617,0.8774636163522617,0.0,0,False
2024-08-17,0.8774636163522617,0.8955299542518637,2.058927294866808,1,True
2024-08-18,0.8955299542518637,0.8955299542518637,0.0,0,False
2024-08-19,0.8955299542518637,0.895092992228927,-0.04879368030762388,1,True
2024-08-20,0.895092992228927,0.8883347844390038,-0.7550285667072609,2,True
2024-08-21,0.8883347844390038,0.8883347844390038,0.0,0,False
2024-08-22,0.8883347844390038,0.8883347844390038,0.0,0,False
2024-08-23,0.8883347844390038,0.8883347844390038,0.0,0,False
2024-08-24,0.8883347844390038,0.8868937191603598,-0.16222096712718015,1,True
2024-08-25,0.8868937191603598,0.8837396186723624,-0.35563455009958167,2,True
2024-08-26,0.8837396186723624,0.8859523336102266,0.25038086910580404,2,True
2024-08-27,0.8859523336102266,0.879535069016916,-0.7243351983915902,0,True
2024-08-28,0.879535069016916,0.8804908180816104,0.10866525944925876,4,True
2024-08-29,0.8804908180816104,0.8792492021529856,-0.14101406887240264,3,True
2024-08-30,0.8792492021529856,0.8812279339844189,0.22504789615822585,0,True
2024-08-31,0.8812279339844189,0.8812279339844189,0.0,0,False
2024-09-01,0.8812279339844189,0.8780609832225266,-0.35937929788188994,1,True
2024-09-02,0.8780609832225266,0.8780609832225266,0.0,0,False
2024-09-03,0.8780609832225266,0.8780609832225266,0.0,0,False
2024-09-04,0.8780609832225266,0.8780609832225266,0.0,0,False
2024-09-05,0.8780609832225266,0.8780609832225266,0.0,0,False
2024-09-06,0.8780609832225266,0.8779608236956704,-0.011406898697241541,1,True
2024-09-07,0.8779608236956704,0.8759370779355615,-0.2305052464175117,0,True
2024-09-08,0.8759370779355615,0.8759370779355615,0.0,0,False
2024-09-09,0.8759370779355615,0.8759370779355615,0.0,0,False
2024-09-10,0.8759370779355615,0.8759370779355615,0.0,0,False
2024-09-11,0.8759370779355615,0.8715676448961065,-0.4988295563139178,1,True
2024-09-12,0.8715676448961065,0.8715676448961065,0.0,0,False
2024-09-13,0.8715676448961065,0.8690220572751141,-0.292070000062461,1,True
2024-09-14,0.8690220572751141,0.8690220572751141,0.0,0,False
2024-09-15,0.8690220572751141,0.8709634023496049,0.22339422322352753,1,True
2024-09-16,0.8709634023496049,0.8711843401779911,0.02536706224280927,0,True
2024-09-17,0.8711843401779911,0.8711843401779911,0.0,0,False
2024-09-18,0.8711843401779911,0.8711843401779911,0.0,0,False
2024-09-19,0.8711843401779911,0.8711843401779911,0.0,0,False
2024-09-20,0.8711843401779911,0.8711843401779911,0.0,0,False
2024-09-21,0.8711843401779911,0.8711843401779911,0.0,0,False
2024-09-22,0.8711843401779911,0.8687501433870762,-0.27941236758428634,1,True
2024-09-23,0.8687501433870762,0.8687501433870762,0.0,0,False
2024-09-24,0.8687501433870762,0.8687501433870762,0.0,0,False
2024-09-25,0.8687501433870762,0.8687501433870762,0.0,0,False
2024-09-26,0.8687501433870762,0.8687501433870762,0.0,0,False
2024-09-27,0.8687501433870762,0.8687501433870762,0.0,0,False
2024-09-28,0.8687501433870762,0.8687501433870762,0.0,0,False
2024-09-29,0.8687501433870762,0.8687501433870762,0.0,0,False
2024-09-30,0.8687501433870762,0.8670126523186418,-0.19999893889632858,1,True
2024-10-01,0.8670126523186418,0.8682373814127101,0.14125850306718757,0,True
2024-10-02,0.8682373814127101,0.852569783388003,-1.8045293096243253,7,True
2024-10-03,0.852569783388003,0.8454937820747892,-0.8299615411063166,1,True
2024-10-04,0.8454937820747892,0.8454937820747892,0.0,0,False
2024-10-05,0.8454937820747892,0.8454937820747892,0.0,0,False
2024-10-06,0.8454937820747892,0.8454937820747892,0.0,0,False
2024-10-07,0.8454937820747892,0.8454937820747892,0.0,0,False
2024-10-08,0.8454937820747892,0.8454937820747892,0.0,0,False
2024-10-09,0.8454937820747892,0.8454937820747892,0.0,0,False
2024-10-10,0.8454937820747892,0.8454937820747892,0.0,0,False
2024-10-11,0.8454937820747892,0.8454937820747892,0.0,0,False
2024-10-12,0.8454937820747892,0.8454937820747892,0.0,0,False
2024-10-13,0.8454937820747892,0.8454937820747892,0.0,0,False
2024-10-14,0.8454937820747892,0.8454937820747892,0.0,0,False
2024-10-15,0.8454937820747892,0.845694778070225,0.023772616629136323,1,True
2024-10-16,0.845694778070225,0.8464958620061314,0.09472494766189499,3,True
2024-10-17,0.8464958620061314,0.8463615228274626,-0.015870033711729015,2,True
2024-10-18,0.8463615228274626,0.8506261785560383,0.5038810973269081,1,True
2024-10-19,0.8506261785560383,0.8498841314872411,-0.08723539052805096,1,True
2024-10-20,0.8498841314872411,0.8515317533107081,0.19386428836878355,2,True
2024-10-21,0.8515317533107081,0.8504071600263212,-0.13206709908520908,0,True
2024-10-22,0.8504071600263212,0.8504071600263212,0.0,0,False
2024-10-23,0.8504071600263212,0.8504071600263212,0.0,0,False
2024-10-24,0.8504071600263212,0.8496241485045147,-0.09207489760343357,1,True
2024-10-25,0.8496241485045147,0.8496241485045147,0.0,0,False
2024-10-26,0.8496241485045147,0.8361377234769874,-1.5873401257798236,9,True
2024-10-27,0.8361377234769874,0.8343693160476845,-0.21149714689934207,1,True
2024-10-28,0.8343693160476845,0.8343693160476845,0.0,0,False
2024-10-29,0.8343693160476845,0.8465107397667619,1.455161819299633,2,True
2024-10-30,0.8465107397667619,0.8487331444501318,0.2625370924392856,0,True
2024-10-31,0.8487331444501318,0.8487331444501318,0.0,0,False
2024-11-01,0.8487331444501318,0.8484518310234679,-0.033145097313969085,2,True
2024-11-02,0.8484518310234679,0.8469628213213903,-0.17549725837486818,0,True
2024-11-03,0.8469628213213903,0.8450388990225312,-0.22715546071521153,2,True
2024-11-04,0.8450388990225312,0.8538084489486631,1.0377687862979768,3,True
2024-11-05,0.8538084489486631,0.8547770667345527,0.11344673235340608,1,True
2024-11-06,0.8547770667345527,0.8556084417627463,0.09726220561458998,1,True
2024-11-07,0.8556084417627463,0.8565377017111099,0.10860808554542523,1,True
2024-11-08,0.8565377017111099,0.8543606303090675,-0.254171112105539,2,True
2024-11-09,0.8543606303090675,0.8526512098289383,-0.20008184126073525,2,True
2024-11-10,0.8526512098289383,0.8538152771260399,0.13652326809401316,1,True
2024-11-11,0.8538152771260399,0.8549376086479332,0.13144898574211084,2,True
2024-11-12,0.8549376086479332,0.8465587113775505,-0.9800595020768577,4,True
2024-11-13,0.8465587113775505,0.8447357635206192,-0.21533625871794637,0,True
2024-11-14,0.8447357635206192,0.8468929247801894,0.25536521036824134,4,True
2024-11-15,0.8468929247801894,0.8530047605024312,0.7216775041340773,3,True
2024-11-16,0.8530047605024312,0.848053329157991,-0.5804693682510909,0,True
2024-11-17,0.848053329157991,0.8454529062820038,-0.30663435736631994,6,True
2024-11-18,0.8454529062820038,0.846714546847968,0.14922659282259332,1,True
2024-11-19,0.846714546847968,0.8439273893722896,-0.32917321263158383,1,True
2024-11-20,0.8439273893722896,0.8456182390348879,0.20035487458889278,1,True
2024-11-21,0.8456182390348879,0.8587270534065167,1.5502047811303044,3,True
2024-11-22,0.8587270534065167,0.8542422545559961,-0.5222612741417221,0,True
2024-11-23,0.8542422545559961,0.8542422545559961,0.0,0,False
2024-11-24,0.8542422545559961,0.8640644113739059,1.1498092918635683,9,True
2024-11-25,0.8640644113739059,0.8684778013298377,0.5107709446005693,0,True
2024-11-26,0.8684778013298377,0.8636268997354056,-0.5585521687490713,2,True
2024-11-27,0.8636268997354056,0.8636268997354056,0.0,0,False
2024-11-28,0.8636268997354056,0.8628947702006458,-0.08477382246711018,2,True
2024-11-29,0.8628947702006458,0.8710247575662057,0.9421759925221762,2,True
2024-11-30,0.8710247575662057,0.8737439084772882,0.31217837236685586,0,True
2024-12-01,0.8737439084772882,0.8743893463130792,0.07387036745307718,1,True
2024-12-02,0.8743893463130792,0.8758912436361401,0.17176528160982585,9,True
2024-12-03,0.8758912436361401,0.8714735061419733,-0.5043705512829733,5,True
2024-12-04,0.8714735061419733,0.9137444669381737,4.850515878943318,1,True
2024-12-05,0.9137444669381737,0.9170094679424585,0.3573210150563666,6,True
2024-12-06,0.9170094679424585,0.9136090937122671,-0.3708112455830026,1,True
2024-12-07,0.9136090937122671,0.913087749758067,-0.05706422558490187,1,True
2024-12-08,0.913087749758067,0.9119070660744891,-0.12930670506647868,0,True
2024-12-09,0.9119070660744891,0.9119070660744891,0.0,0,False
2024-12-10,0.9119070660744891,0.8896286221999629,-2.4430607792556014,7,True
2024-12-11,0.8896286221999629,0.9068237469683499,1.9328430245269201,4,True
2024-12-12,0.9068237469683499,0.9137469119918237,0.7634521092570568,0,True
2024-12-13,0.9137469119918237,0.9137469119918237,0.0,0,False
2024-12-14,0.9137469119918237,0.9137469119918237,0.0,0,False
2024-12-15,0.9137469119918237,0.9085206555974804,-0.571958857070265,2,True
2024-12-16,0.9085206555974804,0.9067353793287375,-0.19650365214524124,0,True
2024-12-17,0.9067353793287375,0.9067353793287375,0.0,0,False
2024-12-18,0.9067353793287375,0.9023608944695249,-0.48244338524112695,2,True
2024-12-19,0.9023608944695249,0.8850811774248556,-1.9149452453641191,6,True
2024-12-20,0.8850811774248556,0.8516498310083229,-3.777206799697308,10,True
2024-12-21,0.8516498310083229,0.8519832206870885,0.03914633299120229,1,True
2024-12-22,0.8519832206870885,0.8541815920108239,0.25802988490342127,0,True
2024-12-23,0.8541815920108239,0.8522178606840135,-0.22989623578606455,1,True
2024-12-24,0.8522178606840135,0.8522178606840135,0.0,0,False
2024-12-25,0.8522178606840135,0.8522178606840135,0.0,0,False
2024-12-26,0.8522178606840135,0.8522178606840135,0.0,0,False
2024-12-27,0.8522178606840135,0.8522178606840135,0.0,0,False
2024-12-28,0.8522178606840135,0.8479661169821074,-0.49890337882539937,1,True
2024-12-29,0.8479661169821074,0.8756304463802229,3.262433350116889,3,True
2024-12-30,0.8756304463802229,0.8743422020062002,-0.14712192561922022,0,True
2024-12-31,0.8743422020062002,0.8743422020062002,0.0,0,False
