day,start_equity,end_equity,return_pct,entries,active
2021-09-02,1.0,1.0,0.0,0,False
2021-09-03,1.0,1.0,0.0,0,False
2021-09-04,1.0,1.0,0.0,0,False
2021-09-05,1.0,1.0,0.0,0,False
2021-09-06,1.0,1.0,0.0,0,False
2021-09-07,1.0,1.0,0.0,0,False
2021-09-08,1.0,1.0,0.0,0,False
2021-09-09,1.0,1.0,0.0,0,False
2021-09-10,1.0,1.0,0.0,0,False
2021-09-11,1.0,1.0,0.0,0,False
2021-09-12,1.0,1.0,0.0,0,False
2021-09-13,1.0,1.0,0.0,0,False
2021-09-14,1.0,1.0,0.0,0,False
2021-09-15,1.0,1.0,0.0,0,False
2021-09-16,1.0,1.0,0.0,0,False
2021-09-17,1.0,1.0,0.0,0,False
2021-09-18,1.0,1.0,0.0,0,False
2021-09-19,1.0,1.0,0.0,0,False
2021-09-20,1.0,1.0,0.0,0,False
2021-09-21,1.0,1.0,0.0,0,False
2021-09-22,1.0,1.0,0.0,0,False
2021-09-23,1.0,1.0,0.0,0,False
2021-09-24,1.0,1.0,0.0,0,False
2021-09-25,1.0,1.0,0.0,0,False
2021-09-26,1.0,1.0,0.0,0,False
2021-09-27,1.0,1.0,0.0,0,False
2021-09-28,1.0,1.0,0.0,0,False
2021-09-29,1.0,1.0,0.0,0,False
2021-09-30,1.0,1.0,0.0,0,False
2021-10-01,1.0,1.0,0.0,0,False
2021-10-02,1.0,1.0,0.0,0,False
2021-10-03,1.0,1.0,0.0,0,False
2021-10-04,1.0,1.0,0.0,0,False
2021-10-05,1.0,1.0,0.0,0,False
2021-10-06,1.0,1.0013367622167146,0.13367622167146376,1,True
2021-10-07,1.0013367622167146,1.0004939772081831,-0.08416599093653554,0,True
2021-10-08,1.0004939772081831,1.0004939772081831,0.0,0,False
2021-10-09,1.0004939772081831,0.9981469044963843,-0.2345913883807782,3,True
2021-10-10,0.9981469044963843,1.000300551514583,0.21576453410787622,1,True
2021-10-11,1.000300551514583,0.9966563313634399,-0.3643125204345177,0,True
2021-10-12,0.9966563313634399,0.9966563313634399,0.0,0,False
2021-10-13,0.9966563313634399,1.0093351271265074,1.27213316808239,4,True
2021-10-14,1.0093351271265074,1.0222462302479358,1.2791691059227395,0,True
2021-10-15,1.0222462302479358,1.025202631890334,0.2892064118134474,1,True
2021-10-16,1.025202631890334,1.0408565661164488,1.5269112406833374,0,True
2021-10-17,1.0408565661164488,1.0408565661164488,0.0,0,False
2021-10-18,1.0408565661164488,1.0397556360502,-0.10577154452283688,1,True
2021-10-19,1.0397556360502,1.0418095259165334,0.1975358242957581,0,True
2021-10-20,1.0418095259165334,1.0418095259165334,0.0,0,False
2021-10-21,1.0418095259165334,1.0418095259165334,0.0,0,False
2021-10-22,1.0418095259165334,1.0418095259165334,0.0,0,False
2021-10-23,1.0418095259165334,1.0418095259165334,0.0,0,False
2021-10-24,1.0418095259165334,1.0418095259165334,0.0,0,False
2021-10-25,1.0418095259165334,1.0452346928507752,0.3287709364366176,1,True
2021-10-26,1.0452346928507752,1.0452346928507752,0.0,0,False
2021-10-27,1.0452346928507752,1.038605731784386,-0.6342079067725326,6,True
2021-10-28,1.038605731784386,1.0418300070039404,0.31044265604185384,0,True
2021-10-29,1.0418300070039404,1.0418300070039404,0.0,0,False
2021-10-30,1.0418300070039404,1.0418300070039404,0.0,0,False
2021-10-31,1.0418300070039404,1.0418300070039404,0.0,0,False
2021-11-01,1.0418300070039404,1.0430315461948583,0.11532967785918835,1,True
2021-11-02,1.0430315461948583,1.0425788077755722,-0.043406014030711315,0,True
2021-11-03,1.0425788077755722,1.0425678526963047,-0.0010507674993776028,1,True
2021-11-04,1.0425678526963047,1.0614839981197493,1.8143802702647482,1,True
2021-11-05,1.0614839981197493,1.0545779724152575,-0.6506010186422606,0,True
2021-11-06,1.0545779724152575,1.0514396066619924,-0.2975944724198487,1,True
2021-11-07,1.0514396066619924,1.0516135440076386,0.01654278044540547,0,True
2021-11-08,1.0516135440076386,1.0516135440076386,0.0,0,False
2021-11-09,1.0516135440076386,1.0516135440076386,0.0,0,False
2021-11-10,1.0516135440076386,1.0516135440076386,0.0,0,False
2021-11-11,1.0516135440076386,1.0440352452042831,-0.7206353366727258,9,True
2021-11-12,1.0440352452042831,1.0449063083996482,0.08343235531234061,0,True
2021-11-13,1.0449063083996482,1.0437179744072544,-0.11372636788974377,1,True
2021-11-14,1.0437179744072544,1.0440502501324804,0.03183577684524597,0,True
2021-11-15,1.0440502501324804,1.0440502501324804,0.0,0,False
2021-11-16,1.0440502501324804,1.059008673228216,1.4327301864864639,5,True
2021-11-17,1.059008673228216,1.0445934394513803,-1.3612007286865069,0,True
2021-11-18,1.0445934394513803,1.0416413989010507,-0.2826018658397822,2,True
2021-11-19,1.0416413989010507,1.0452519017773925,0.34661668402877766,1,True
2021-11-20,1.0452519017773925,1.045775491423563,0.05009219741960447,0,True
2021-11-21,1.045775491423563,1.045775491423563,0.0,0,False
2021-11-22,1.045775491423563,1.0405548973958745,-0.49920791513119456,1,True
2021-11-23,1.0405548973958745,1.0405548973958745,0.0,0,False
2021-11-24,1.0405548973958745,1.0405548973958745,0.0,0,False
2021-11-25,1.0405548973958745,1.0428304998222289,0.21869124176430166,2,True
2021-11-26,1.0428304998222289,1.0203283239439154,-2.157798020114432,7,True
2021-11-27,1.0203283239439154,1.0316129109119896,1.1059760572416089,0,True
2021-11-28,1.0316129109119896,1.0264635564371651,-0.49915568333399607,1,True
2021-11-29,1.0264635564371651,1.0264635564371651,0.0,0,False
2021-11-30,1.0264635564371651,1.0264635564371651,0.0,0,False
2021-12-01,1.0264635564371651,1.0243381176392365,-0.2070642240145304,1,True
2021-12-02,1.0243381176392365,1.0221224742706712,-0.2163000019633876,2,True
2021-12-03,1.0221224742706712,1.0169094633085207,-0.5100182310216916,1,True
2021-12-04,1.0169094633085207,0.9478373967143848,-6.792351638602079,15,True
2021-12-05,0.9478373967143848,0.9450229137481351,-0.29693732026252473,1,True
2021-12-06,0.9450229137481351,0.93259757940901,-1.314818313753252,7,True
2021-12-07,0.93259757940901,0.9494483223759601,1.8068611091215159,0,True
2021-12-08,0.9494483223759601,0.9526535784225835,0.33759141715079544,1,True
2021-12-09,0.9526535784225835,0.9504194469216564,-0.23451667547677024,0,True
2021-12-10,0.9504194469216564,0.9456712539543214,-0.49958920587263034,1,True
2021-12-11,0.9456712539543214,0.9452893838344271,-0.04038085310276163,1,True
2021-12-12,0.9452893838344271,0.9467620683722836,0.1557919260536611,0,True
2021-12-13,0.9467620683722836,0.943434909774118,-0.3514249999353902,1,True
2021-12-14,0.943434909774118,0.9420335576158818,-0.14853723809856723,0,True
2021-12-15,0.9420335576158818,0.9420335576158818,0.0,0,False
2021-12-16,0.9420335576158818,0.9420335576158818,0.0,0,False
2021-12-17,0.9420335576158818,0.942271942140647,0.025305311348833293,2,True
2021-12-18,0.942271942140647,0.947694154986703,0.5754403377158601,0,True
2021-12-19,0.947694154986703,0.9447367325256238,-0.3120650734751651,1,True
2021-12-20,0.9447367325256238,0.942959006098271,-0.18817162137861887,0,True
2021-12-21,0.942959006098271,0.9404211084101834,-0.26914188969769937,1,True
2021-12-22,0.9404211084101834,0.9408459963222829,0.04518060136036173,0,True
2021-12-23,0.9408459963222829,0.9408459963222829,0.0,0,False
2021-12-24,0.9408459963222829,0.9408459963222829,0.0,0,False
2021-12-25,0.9408459963222829,0.9423698739186335,0.16196886656341114,1,True
2021-12-26,0.9423698739186335,0.9420554184698231,-0.03336858037521484,0,True
2021-12-27,0.9420554184698231,0.9420554184698231,0.0,0,False
2021-12-28,0.9420554184698231,0.9420554184698231,0.0,0,False
2021-12-29,0.9420554184698231,0.9420554184698231,0.0,0,False
2021-12-30,0.9420554184698231,0.9420554184698231,0.0,0,False
2021-12-31,0.9420554184698231,0.9420554184698231,0.0,0,False
2022-01-01,0.9420554184698231,0.9420554184698231,0.0,0,False
2022-01-02,0.9420554184698231,0.9420554184698231,0.0,0,False
2022-01-03,0.9420554184698231,0.9420554184698231,0.0,0,False
2022-01-04,0.9420554184698231,0.9420554184698231,0.0,0,False
2022-01-05,0.9420554184698231,0.943264623451493,0.12835815791325533,1,True
2022-01-06,0.943264623451493,0.9273455771955899,-1.6876543294557012,9,True
2022-01-07,0.9273455771955899,0.9377123579516461,1.1178983338020254,4,True
2022-01-08,0.9377123579516461,0.9385530665714674,0.08965527783570959,0,True
2022-01-09,0.9385530665714674,0.9390402364119125,0.05190647793893444,1,True
2022-01-10,0.9390402364119125,0.9404292682139054,0.14792037104824907,0,True
2022-01-11,0.9404292682139054,0.9404292682139054,0.0,0,False
2022-01-12,0.9404292682139054,0.9404292682139054,0.0,0,False
2022-01-13,0.9404292682139054,0.9404292682139054,0.0,0,False
2022-01-14,0.9404292682139054,0.9404292682139054,0.0,0,False
2022-01-15,0.9404292682139054,0.9407585878365411,0.03501801079215383,1,True
2022-01-16,0.9407585878365411,0.9398038684694136,-0.10148399169260802,0,True
2022-01-17,0.9398038684694136,0.9417385238223925,0.2058573515056672,1,True
2022-01-18,0.9417385238223925,0.9474643315886553,0.6080039863955555,0,True
2022-01-19,0.9474643315886553,0.9474643315886553,0.0,0,False
2022-01-20,0.9474643315886553,0.9474643315886553,0.0,0,False
2022-01-21,0.9474643315886553,0.9168494417220973,-3.2312445804925094,7,True
2022-01-22,0.9168494417220973,0.8948796435745127,-2.396227466345968,8,True
2022-01-23,0.8948796435745127,0.9035151404794579,0.964989757779211,0,True
2022-01-24,0.9035151404794579,0.898037757707616,-0.6062303249213197,2,True
2022-01-25,0.898037757707616,0.9125378584988921,1.6146426658373514,0,True
2022-01-26,0.9125378584988921,0.9125378584988921,0.0,0,False
2022-01-27,0.9125378584988921,0.9248333445487251,1.3473946242689383,4,True
2022-01-28,0.9248333445487251,0.9129166460305056,-1.2885238825417034,0,True
2022-01-29,0.9129166460305056,0.9129166460305056,0.0,0,False
2022-01-30,0.9129166460305056,0.9191852210946773,0.6866536053897532,1,True
2022-01-31,0.9191852210946773,0.9180010669067793,-0.12882650424772546,0,True
2022-02-01,0.9180010669067793,0.9180010669067793,0.0,0,False
2022-02-02,0.9180010669067793,0.9180010669067793,0.0,0,False
2022-02-03,0.9180010669067793,0.9153187199270727,-0.29219432050823224,3,True
2022-02-04,0.9153187199270727,0.9209975093062078,0.6204166106848152,0,True
2022-02-05,0.9209975093062078,0.9209975093062078,0.0,0,False
2022-02-06,0.9209975093062078,0.9209975093062078,0.0,0,False
2022-02-07,0.9209975093062078,0.9209975093062078,0.0,0,False
2022-02-08,0.9209975093062078,0.9209975093062078,0.0,0,False
2022-02-09,0.9209975093062078,0.9231757930143687,0.23651352866325137,2,True
2022-02-10,0.9231757930143687,0.9240226932237432,0.09173769674020171,5,True
2022-02-11,0.9240226932237432,0.9155394687185714,-0.9180753424545718,0,True
2022-02-12,0.9155394687185714,0.8972950530307675,-1.9927503194744345,4,True
2022-02-13,0.8972950530307675,0.8972950530307675,0.0,0,False
2022-02-14,0.8972950530307675,0.8972950530307675,0.0,0,False
2022-02-15,0.8972950530307675,0.8972950530307675,0.0,0,False
2022-02-16,0.8972950530307675,0.8972950530307675,0.0,0,False
2022-02-17,0.8972950530307675,0.8972950530307675,0.0,0,False
2022-02-18,0.8972950530307675,0.8972950530307675,0.0,0,False
2022-02-19,0.8972950530307675,0.8972950530307675,0.0,0,False
2022-02-20,0.8972950530307675,0.8972950530307675,0.0,0,False
2022-02-21,0.8972950530307675,0.8972950530307675,0.0,0,False
2022-02-22,0.8972950530307675,0.8957240999470114,-0.17507653457465855,2,True
2022-02-23,0.8957240999470114,0.8949848240026174,-0.0825338901161432,0,True
2022-02-24,0.8949848240026174,0.8771601391377642,-1.9916186718268891,4,True
2022-02-25,0.8771601391377642,0.8771601391377642,0.0,0,False
2022-02-26,0.8771601391377642,0.8771601391377642,0.0,0,False
2022-02-27,0.8771601391377642,0.8771601391377642,0.0,0,False
2022-02-28,0.8771601391377642,0.8791853169172211,0.2308789112838161,1,True
2022-03-01,0.8791853169172211,0.8817711164453229,0.2941131384187168,0,True
2022-03-02,0.8817711164453229,0.8817711164453229,0.0,0,False
2022-03-03,0.8817711164453229,0.8817711164453229,0.0,0,False
2022-03-04,0.8817711164453229,0.8800732700934012,-0.1925495539892741,1,True
2022-03-05,0.8800732700934012,0.8794882575453202,-0.06647316399223113,0,True
2022-03-06,0.8794882575453202,0.8736156495609515,-0.6677301185077034,3,True
2022-03-07,0.8736156495609515,0.8688457556387635,-0.5459945600316485,0,True
2022-03-08,0.8688457556387635,0.8697374406242633,0.10262868635919631,1,True
2022-03-09,0.8697374406242633,0.8774847944403673,0.8907692660147237,1,True
2022-03-10,0.8774847944403673,0.8750330020395397,-0.2794113831216083,3,True
2022-03-11,0.8750330020395397,0.8711700820830658,-0.4414599160797561,0,True
2022-03-12,0.8711700820830658,0.8711700820830658,0.0,0,False
2022-03-13,0.8711700820830658,0.8711700820830658,0.0,0,False
2022-03-14,0.8711700820830658,0.8668222130790406,-0.49908382914493066,1,True
2022-03-15,0.8668222130790406,0.8675405034584742,0.08286478687276055,1,True
2022-03-16,0.8675405034584742,0.8704660088511998,0.33721830635722316,1,True
2022-03-17,0.8704660088511998,0.8715770036318023,0.1276321842904382,1,True
2022-03-18,0.8715770036318023,0.8707491846930768,-0.09497943787823981,0,True
2022-03-19,0.8707491846930768,0.8707491846930768,0.0,0,False
2022-03-20,0.8707491846930768,0.8663996042493848,-0.499521621168697,1,True
2022-03-21,0.8663996042493848,0.8660988441840459,-0.03471378147724691,3,True
2022-03-22,0.8660988441840459,0.8626674662308278,-0.3961877996097374,0,True
2022-03-23,0.8626674662308278,0.8626674662308278,0.0,0,False
2022-03-24,0.8626674662308278,0.8626674662308278,0.0,0,False
2022-03-25,0.8626674662308278,0.8626674662308278,0.0,0,False
2022-03-26,0.8626674662308278,0.8626674662308278,0.0,0,False
2022-03-27,0.8626674662308278,0.8626674662308278,0.0,0,False
2022-03-28,0.8626674662308278,0.8626674662308278,0.0,0,False
2022-03-29,0.8626674662308278,0.8626674662308278,0.0,0,False
2022-03-30,0.8626674662308278,0.8690177905057187,0.7361265520579696,4,True
2022-03-31,0.8690177905057187,0.8742257065926573,0.599287626080458,5,True
2022-04-01,0.8742257065926573,0.8547558922794476,-2.227092404900144,0,True
2022-04-02,0.8547558922794476,0.8547558922794476,0.0,0,False
2022-04-03,0.8547558922794476,0.8504890651729129,-0.49918662685740633,1,True
2022-04-04,0.8504890651729129,0.8504890651729129,0.0,0,False
2022-04-05,0.8504890651729129,0.8501518590224251,-0.03964849923370206,3,True
2022-04-06,0.8501518590224251,0.8269434083598401,-2.7299182394627586,7,True
2022-04-07,0.8269434083598401,0.8234524000929424,-0.42215806203980133,0,True
2022-04-08,0.8234524000929424,0.8234524000929424,0.0,0,False
2022-04-09,0.8234524000929424,0.8234524000929424,0.0,0,False
2022-04-10,0.8234524000929424,0.8234524000929424,0.0,0,False
2022-04-11,0.8234524000929424,0.8159590542036129,-0.909991383652986,6,True
2022-04-12,0.8159590542036129,0.8203778281669452,0.5415435910132826,0,True
2022-04-13,0.8203778281669452,0.8203778281669452,0.0,0,False
2022-04-14,0.8203778281669452,0.8203778281669452,0.0,0,False
2022-04-15,0.8203778281669452,0.8203778281669452,0.0,0,False
2022-04-16,0.8203778281669452,0.8203778281669452,0.0,0,False
2022-04-17,0.8203778281669452,0.8238338724981366,0.42127471178903253,1,True
2022-04-18,0.8238338724981366,0.8252069081410918,0.16666414052528555,6,True
2022-04-19,0.8252069081410918,0.8375330676006445,1.4937053165634984,0,True
2022-04-20,0.8375330676006445,0.8375330676006445,0.0,0,False
2022-04-21,0.8375330676006445,0.8395768810486736,0.24402779150967113,2,True
2022-04-22,0.8395768810486736,0.8353608041017446,-0.5021668702528848,0,True
2022-04-23,0.8353608041017446,0.8353608041017446,0.0,0,False
2022-04-24,0.8353608041017446,0.8353608041017446,0.0,0,False
2022-04-25,0.8353608041017446,0.8302439981513506,-0.6125264586595014,3,True
2022-04-26,0.8302439981513506,0.833128622874497,0.34744300826856644,2,True
2022-04-27,0.833128622874497,0.8319721025915263,-0.13881653459226762,0,True
2022-04-28,0.8319721025915263,0.8319721025915263,0.0,0,False
2022-04-29,0.8319721025915263,0.8319721025915263,0.0,0,False
2022-04-30,0.8319721025915263,0.8295201068423259,-0.2947209096990866,1,True
2022-05-01,0.8295201068423259,0.8334501880473141,0.47377769056720087,6,True
2022-05-02,0.8334501880473141,0.8356854560105388,0.26819454783035823,0,True
2022-05-03,0.8356854560105388,0.8364264696321974,0.08867135551169358,3,True
2022-05-04,0.8364264696321974,0.82985852951118,-0.7852381960013144,1,True
2022-05-05,0.82985852951118,0.82985852951118,0.0,0,False
2022-05-06,0.82985852951118,0.8190381202247695,-1.3038860120874074,4,True
2022-05-07,0.8190381202247695,0.8152860011710172,-0.4581128718065708,2,True
2022-05-08,0.8152860011710172,0.8048960964078832,-1.2743877299758344,3,True
2022-05-09,0.8048960964078832,0.7961597199442492,-1.0854042531232344,3,True
2022-05-10,0.7961597199442492,0.7793708819864903,-2.10872737431812,7,True
2022-05-11,0.7793708819864903,0.7594784573255543,-2.5523694970786437,8,True
2022-05-12,0.7594784573255543,0.7515226912298367,-1.0475301858769215,0,True
2022-05-13,0.7515226912298367,0.7515226912298367,0.0,0,False
2022-05-14,0.7515226912298367,0.7421418901456794,-1.2482392339752235,4,True
2022-05-15,0.7421418901456794,0.7636589393593387,2.8993174350306017,1,True
2022-05-16,0.7636589393593387,0.7610237481269437,-0.34507436455936125,6,True
2022-05-17,0.7610237481269437,0.7680710728137873,0.926032164461188,4,True
2022-05-18,0.7680710728137873,0.7546567770617871,-1.7464914676265098,0,True
2022-05-19,0.7546567770617871,0.7680105105557474,1.7695108425253014,6,True
2022-05-20,0.7680105105557474,0.7763466040380939,1.0854139842844335,1,True
2022-05-21,0.7763466040380939,0.7763466040380939,0.0,0,False
2022-05-22,0.7763466040380939,0.7763466040380939,0.0,0,False
2022-05-23,0.7763466040380939,0.776418393970338,0.009247149645630337,1,True
2022-05-24,0.776418393970338,0.764375134388723,-1.5511301219990337,6,True
2022-05-25,0.764375134388723,0.7628802457897399,-0.19557001944844332,1,True
2022-05-26,0.7628802457897399,0.7468817606053482,-2.0971161951939044,8,True
2022-05-27,0.7468817606053482,0.7391875006336772,-1.0301844786562708,2,True
2022-05-28,0.7391875006336772,0.7400847940126577,0.12138914391968125,0,True
2022-05-29,0.7400847940126577,0.7363939117258693,-0.49871073107404795,1,True
2022-05-30,0.7363939117258693,0.7363939117258693,0.0,0,False
2022-05-31,0.7363939117258693,0.7345407219143633,-0.2516574053637699,1,True
2022-06-01,0.7345407219143633,0.7382109841735933,0.4996676358071106,1,True
2022-06-02,0.7382109841735933,0.7390688144202722,0.11620393966897957,1,True
2022-06-03,0.7390688144202722,0.7402614372674533,0.16136830886535058,0,True
2022-06-04,0.7402614372674533,0.7402614372674533,0.0,0,False
2022-06-05,0.7402614372674533,0.7402614372674533,0.0,0,False
2022-06-06,0.7402614372674533,0.7417177239862918,0.19672600050788525,1,True
2022-06-07,0.7417177239862918,0.7386734494499579,-0.4104357274857473,4,True
2022-06-08,0.7386734494499579,0.7489828034646074,1.3956578542691833,3,True
2022-06-09,0.7489828034646074,0.7475058126382653,-0.1971995644639568,2,True
2022-06-10,0.7475058126382653,0.744420215796997,-0.4127856652215045,4,True
2022-06-11,0.744420215796997,0.7220914914880571,-2.999478498180519,3,True
2022-06-12,0.7220914914880571,0.7119397897890851,-1.4058747151350248,7,True
2022-06-13,0.7119397897890851,0.6859926835327843,-3.644564698931596,4,True
2022-06-14,0.6859926835327843,0.6941110638150852,1.183449980908291,4,True
2022-06-15,0.6941110638150852,0.6938091072156587,-0.04350263454481196,4,True
2022-06-16,0.6938091072156587,0.7015171780836433,1.110978623344705,1,True
2022-06-17,0.7015171780836433,0.7029860500970622,0.20938503850060908,0,True
2022-06-18,0.7029860500970622,0.6977771221360225,-0.7409717391007264,5,True
2022-06-19,0.6977771221360225,0.6999270980156216,0.30811785187476737,2,True
2022-06-20,0.6999270980156216,0.7010963881393222,0.16705884470191723,0,True
2022-06-21,0.7010963881393222,0.7010963881393222,0.0,0,False
2022-06-22,0.7010963881393222,0.7010963881393222,0.0,0,False
2022-06-23,0.7010963881393222,0.7010963881393222,0.0,0,False
2022-06-24,0.7010963881393222,0.6975979105603168,-0.49900094169507136,1,True
2022-06-25,0.6975979105603168,0.696372700471649,-0.17563270619370686,3,True
2022-06-26,0.696372700471649,0.6997957537139674,0.49155477232234457,0,True
2022-06-27,0.6997957537139674,0.6966494663552857,-0.44960080737610486,4,True
2022-06-28,0.6966494663552857,0.694462918602599,-0.31386627827710845,2,True
2022-06-29,0.694462918602599,0.6949774381410704,0.07408884257011916,2,True
2022-06-30,0.6949774381410704,0.6951368166577726,0.022932905149919414,1,True
2022-07-01,0.6951368166577726,0.6948545817848069,-0.04060134152047423,1,True
2022-07-02,0.6948545817848069,0.6935843412599613,-0.18280667036588705,1,True
2022-07-03,0.6935843412599613,0.694382344000924,0.11505489577707806,1,True
2022-07-04,0.694382344000924,0.6969142821738079,0.36463170395364397,0,True
2022-07-05,0.6969142821738079,0.6969142821738079,0.0,0,False
2022-07-06,0.6969142821738079,0.6969142821738079,0.0,0,False
2022-07-07,0.6969142821738079,0.6969142821738079,0.0,0,False
2022-07-08,0.6969142821738079,0.6969142821738079,0.0,0,False
2022-07-09,0.6969142821738079,0.6969142821738079,0.0,0,False
2022-07-10,0.6969142821738079,0.6969142821738079,0.0,0,False
2022-07-11,0.6969142821738079,0.6934341473421295,-0.4993633967183442,1,True
2022-07-12,0.6934341473421295,0.6942943278563001,0.12404646028285615,2,True
2022-07-13,0.6942943278563001,0.6986486998969575,0.6271651468192196,5,True
2022-07-14,0.6986486998969575,0.7111199419171603,1.7850519183735924,0,True
2022-07-15,0.7111199419171603,0.7111199419171603,0.0,0,False
2022-07-16,0.7111199419171603,0.7111199419171603,0.0,0,False
2022-07-17,0.7111199419171603,0.7111199419171603,0.0,0,False
2022-07-18,0.7111199419171603,0.7111199419171603,0.0,0,False
2022-07-19,0.7111199419171603,0.7111199419171603,0.0,0,False
2022-07-20,0.7111199419171603,0.7111127692499225,-0.0010086438046563728,1,True
2022-07-21,0.7111127692499225,0.7055158855639567,-0.7870599331058714,5,True
2022-07-22,0.7055158855639567,0.7055331242245725,0.002443412114239152,0,True
2022-07-23,0.7055331242245725,0.7042908566454941,-0.17607501851082397,1,True
2022-07-24,0.7042908566454941,0.7076449274960197,0.4762337632070013,1,True
2022-07-25,0.7076449274960197,0.70797253887128,0.046296011252344726,1,True
2022-07-26,0.70797253887128,0.7074875768389989,-0.06850011909420584,1,True
2022-07-27,0.7074875768389989,0.7087755037040152,0.18204232938912046,0,True
2022-07-28,0.7087755037040152,0.7087755037040152,0.0,0,False
2022-07-29,0.7087755037040152,0.7087755037040152,0.0,0,False
2022-07-30,0.7087755037040152,0.7087755037040152,0.0,0,False
2022-07-31,0.7087755037040152,0.7080160224886409,-0.10715398760330341,1,True
2022-08-01,0.7080160224886409,0.7078705815735172,-0.020542037256798817,1,True
2022-08-02,0.7078705815735172,0.7067336445347214,-0.1606136867940644,1,True
2022-08-03,0.7067336445347214,0.708866292781975,0.3017612453780405,1,True
2022-08-04,0.708866292781975,0.707030408992871,-0.2589887271828184,0,True
2022-08-05,0.707030408992871,0.708450781550069,0.20089271113830076,1,True
2022-08-06,0.708450781550069,0.7083456900572284,-0.014833986435969226,0,True
2022-08-07,0.7083456900572284,0.7089057189069936,0.07906151722614219,2,True
2022-08-08,0.7089057189069936,0.7093781357021026,0.06664028551461865,0,True
2022-08-09,0.7093781357021026,0.706457072805536,-0.41177797137424976,5,True
2022-08-10,0.706457072805536,0.7165832541036268,1.4333753157678597,1,True
2022-08-11,0.7165832541036268,0.7185054538375714,0.26824513731471544,1,True
2022-08-12,0.7185054538375714,0.7173126513327636,-0.16601161458650315,1,True
2022-08-13,0.7173126513327636,0.7173126513327636,0.0,0,False
2022-08-14,0.7173126513327636,0.7173126513327636,0.0,0,False
2022-08-15,0.7173126513327636,0.7173126513327636,0.0,0,False
2022-08-16,0.7173126513327636,0.7167627640846704,-0.07665935447693784,1,True
2022-08-17,0.7167627640846704,0.7144119557142468,-0.32797579453304193,1,True
2022-08-18,0.7144119557142468,0.7109682615617922,-0.4820319879741852,1,True
2022-08-19,0.7109682615617922,0.6952392942390673,-2.2123304475185512,10,True
2022-08-20,0.6952392942390673,0.6952198963860484,-0.002790097334770536,1,True
2022-08-21,0.6952198963860484,0.6987474716549401,0.5074042453659722,0,True
2022-08-22,0.6987474716549401,0.6987474716549401,0.0,0,False
2022-08-23,0.6987474716549401,0.6987474716549401,0.0,0,False
2022-08-24,0.6987474716549401,0.6987474716549401,0.0,0,False
2022-08-25,0.6987474716549401,0.6974408413582514,-0.1869960679205196,1,True
2022-08-26,0.6974408413582514,0.6963729932440902,-0.15310948984311734,0,True
2022-08-27,0.6963729932440902,0.6899169187632613,-0.9271000661230211,3,True
2022-08-28,0.6899169187632613,0.6886584582386387,-0.1824075465316266,0,True
2022-08-29,0.6886584582386387,0.6885927171139138,-0.009546259679005242,1,True
2022-08-30,0.6885927171139138,0.6864581473090886,-0.3099901802290028,1,True
2022-08-31,0.6864581473090886,0.6864581473090886,0.0,0,False
2022-09-01,0.6864581473090886,0.6864581473090886,0.0,0,False
2022-09-02,0.6864581473090886,0.6864581473090886,0.0,0,False
2022-09-03,0.6864581473090886,0.6864581473090886,0.0,0,False
2022-09-04,0.6864581473090886,0.6864581473090886,0.0,0,False
2022-09-05,0.6864581473090886,0.6864581473090886,0.0,0,False
2022-09-06,0.6864581473090886,0.6849829136997894,-0.21490510602607538,1,True
2022-09-07,0.6849829136997894,0.6740323523925738,-1.5986619648756584,5,True
2022-09-08,0.6740323523925738,0.6740319659586448,-5.733165887589209e-05,0,True
2022-09-09,0.6740319659586448,0.6740319659586448,0.0,0,False
2022-09-10,0.6740319659586448,0.6740319659586448,0.0,0,False
2022-09-11,0.6740319659586448,0.6740319659586448,0.0,0,False
2022-09-12,0.6740319659586448,0.6740319659586448,0.0,0,False
2022-09-13,0.6740319659586448,0.6679366395265295,-0.9043082138465386,4,True
2022-09-14,0.6679366395265295,0.6637976786309953,-0.6196637002078731,0,True
2022-09-15,0.6637976786309953,0.6662283913129425,0.3661827632420067,1,True
2022-09-16,0.6662283913129425,0.6643154493080419,-0.2871300637805052,1,True
2022-09-17,0.6643154493080419,0.6637392451617196,-0.08673652658875985,1,True
2022-09-18,0.6637392451617196,0.6646503609639719,0.1372701416849864,0,True
2022-09-19,0.6646503609639719,0.6590912043073245,-0.8364031652047466,8,True
2022-09-20,0.6590912043073245,0.6590982942312235,0.001075712109743776,0,True
2022-09-21,0.6590982942312235,0.6590982942312235,0.0,0,False
2022-09-22,0.6590982942312235,0.659750218643445,0.09891156113246424,1,True
2022-09-23,0.659750218643445,0.660037888896269,0.04360290374978426,0,True
2022-09-24,0.660037888896269,0.660037888896269,0.0,0,False
2022-09-25,0.660037888896269,0.660037888896269,0.0,0,False
2022-09-26,0.660037888896269,0.660037888896269,0.0,0,False
2022-09-27,0.660037888896269,0.660037888896269,0.0,0,False
2022-09-28,0.660037888896269,0.660037888896269,0.0,0,False
2022-09-29,0.660037888896269,0.660037888896269,0.0,0,False
2022-09-30,0.660037888896269,0.660037888896269,0.0,0,False
2022-10-01,0.660037888896269,0.660037888896269,0.0,0,False
2022-10-02,0.660037888896269,0.660037888896269,0.0,0,False
2022-10-03,0.660037888896269,0.660037888896269,0.0,0,False
2022-10-04,0.660037888896269,0.660037888896269,0.0,0,False
2022-10-05,0.660037888896269,0.660037888896269,0.0,0,False
2022-10-06,0.660037888896269,0.660037888896269,0.0,0,False
2022-10-07,0.660037888896269,0.660037888896269,0.0,0,False
2022-10-08,0.660037888896269,0.6586329993615604,-0.21284983155405168,1,True
2022-10-09,0.6586329993615604,0.6578324505705365,-0.12154702114832716,0,True
2022-10-10,0.6578324505705365,0.6578324505705365,0.0,0,False
2022-10-11,0.6578324505705365,0.6704785259701198,1.9223854628356074,5,True
2022-10-12,0.6704785259701198,0.6667618319826162,-0.5543345302708835,2,True
2022-10-13,0.6667618319826162,0.666533327042724,-0.03427084888957266,1,True
2022-10-14,0.666533327042724,0.6723476513216952,0.8723231146997801,0,True
2022-10-15,0.6723476513216952,0.6723476513216952,0.0,0,False
2022-10-16,0.6723476513216952,0.6723476513216952,0.0,0,False
2022-10-17,0.6723476513216952,0.6723476513216952,0.0,0,False
2022-10-18,0.6723476513216952,0.6723476513216952,0.0,0,False
2022-10-19,0.6723476513216952,0.6723476513216952,0.0,0,False
2022-10-20,0.6723476513216952,0.6753587783738904,0.4478526914277081,2,True
2022-10-21,0.6753587783738904,0.6722475729415964,-0.46067446399157275,0,True
2022-10-22,0.6722475729415964,0.6722475729415964,0.0,0,False
2022-10-23,0.6722475729415964,0.6722475729415964,0.0,0,False
2022-10-24,0.6722475729415964,0.6722475729415964,0.0,0,False
2022-10-25,0.6722475729415964,0.6717680204981664,-0.07133568981612104,1,True
2022-10-26,0.6717680204981664,0.672781006852739,0.1507940723080914,0,True
2022-10-27,0.672781006852739,0.672781006852739,0.0,0,False
2022-10-28,0.672781006852739,0.672781006852739,0.0,0,False
2022-10-29,0.672781006852739,0.672781006852739,0.0,0,False
2022-10-30,0.672781006852739,0.672781006852739,0.0,0,False
2022-10-31,0.672781006852739,0.672781006852739,0.0,0,False
2022-11-01,0.672781006852739,0.672781006852739,0.0,0,False
2022-11-02,0.672781006852739,0.6759250728632427,0.4673238362080889,2,True
2022-11-03,0.6759250728632427,0.6773413780573901,0.20953582741767285,0,True
2022-11-04,0.6773413780573901,0.6774289935887606,0.012935210251252549,2,True
2022-11-05,0.6774289935887606,0.6762057324713223,-0.18057407182381358,0,True
2022-11-06,0.6762057324713223,0.6763750129062599,0.025033865702228653,1,True
2022-11-07,0.6763750129062599,0.6779889724009474,0.23861902995980788,3,True
2022-11-08,0.6779889724009474,0.6603341566297066,-2.6039974822481438,6,True
2022-11-09,0.6603341566297066,0.6343727540883217,-3.9315553013174243,5,True
2022-11-10,0.6343727540883217,0.6343727540883217,0.0,0,False
2022-11-11,0.6343727540883217,0.628891119644596,-0.8641030700638375,7,True
2022-11-12,0.628891119644596,0.626483087811853,-0.3829012300418211,5,True
2022-11-13,0.626483087811853,0.6292363942648695,0.4394861579796405,1,True
2022-11-14,0.6292363942648695,0.6270523279649708,-0.3470978983105999,2,True
2022-11-15,0.6270523279649708,0.6276529103342952,0.09577866830883242,0,True
2022-11-16,0.6276529103342952,0.6272824921782147,-0.05901640062230262,1,True
2022-11-17,0.6272824921782147,0.6281549678712103,0.1390881626499585,1,True
2022-11-18,0.6281549678712103,0.6295449428274534,0.22127898804233936,0,True
2022-11-19,0.6295449428274534,0.6292445330021679,-0.04771856699163912,3,True
2022-11-20,0.6292445330021679,0.6236662385746781,-0.8865066178446401,2,True
2022-11-21,0.6236662385746781,0.6112329441020808,-1.9935814548839748,4,True
2022-11-22,0.6112329441020808,0.6088142910289003,-0.3957007056832662,0,True
2022-11-23,0.6088142910289003,0.6144421814206318,0.9244018208278915,1,True
2022-11-24,0.6144421814206318,0.6120685593481997,-0.3863051958679198,1,True
2022-11-25,0.6120685593481997,0.6109425881738575,-0.18396160971595465,1,True
2022-11-26,0.6109425881738575,0.6117622572633158,0.13416466707751873,0,True
2022-11-27,0.6117622572633158,0.6117622572633158,0.0,0,False
2022-11-28,0.6117622572633158,0.6089325639237003,-0.4625478780390879,4,True
2022-11-29,0.6089325639237003,0.6095610892673099,0.10321756149147543,0,True
2022-11-30,0.6095610892673099,0.6095610892673099,0.0,0,False
2022-12-01,0.6095610892673099,0.609458973606391,-0.01675232601241472,1,True
2022-12-02,0.609458973606391,0.609458973606391,0.0,0,False
2022-12-03,0.609458973606391,0.609458973606391,0.0,0,False
2022-12-04,0.609458973606391,0.609458973606391,0.0,0,False
2022-12-05,0.609458973606391,0.609458973606391,0.0,0,False
2022-12-06,0.609458973606391,0.6100348072838032,0.09448276296677438,2,True
2022-12-07,0.6100348072838032,0.6070206439684962,-0.49409693993162085,1,True
2022-12-08,0.6070206439684962,0.6052849814026338,-0.2859313901608429,1,True
2022-12-09,0.6052849814026338,0.6052849814026338,0.0,0,False
2022-12-10,0.6052849814026338,0.6052849814026338,0.0,0,False
2022-12-11,0.6052849814026338,0.6052849814026338,0.0,0,False
2022-12-12,0.6052849814026338,0.6048831650449585,-0.06638465681803041,1,True
2022-12-13,0.6048831650449585,0.60485427708415,-0.004775791835176513,0,True
2022-12-14,0.60485427708415,0.60485427708415,0.0,0,False
2022-12-15,0.60485427708415,0.60485427708415,0.0,0,False
2022-12-16,0.60485427708415,0.605318459227064,0.07674280574681003,5,True
2022-12-17,0.605318459227064,0.5940046997614402,-1.8690590536542318,5,True
2022-12-18,0.5940046997614402,0.5940178976943146,0.002221856641826392,0,True
2022-12-19,0.5940178976943146,0.5940178976943146,0.0,0,False
2022-12-20,0.5940178976943146,0.5940178976943146,0.0,0,False
2022-12-21,0.5940178976943146,0.5940178976943146,0.0,0,False
2022-12-22,0.5940178976943146,0.5940178976943146,0.0,0,False
2022-12-23,0.5940178976943146,0.5940178976943146,0.0,0,False
2022-12-24,0.5940178976943146,0.5940178976943146,0.0,0,False
2022-12-25,0.5940178976943146,0.5940178976943146,0.0,0,False
2022-12-26,0.5940178976943146,0.5940178976943146,0.0,0,False
2022-12-27,0.5940178976943146,0.5940178976943146,0.0,0,False
2022-12-28,0.5940178976943146,0.5947597647582605,0.12488968208290707,4,True
2022-12-29,0.5947597647582605,0.5903953444814297,-0.7338122945496739,0,True
2022-12-30,0.5903953444814297,0.5903953444814297,0.0,0,False
2022-12-31,0.5903953444814297,0.5903953444814297,0.0,0,False
2023-01-01,0.5903953444814297,0.5903953444814297,0.0,0,False
2023-01-02,0.5903953444814297,0.5903953444814297,0.0,0,False
2023-01-03,0.5903953444814297,0.5903953444814297,0.0,0,False
2023-01-04,0.5903953444814297,0.5903953444814297,0.0,0,False
2023-01-05,0.5903953444814297,0.5903953444814297,0.0,0,False
2023-01-06,0.5903953444814297,0.5898394377633045,-0.09415838443196378,1,True
2023-01-07,0.5898394377633045,0.59083849329301,0.1693775400122277,0,True
2023-01-08,0.59083849329301,0.59083849329301,0.0,0,False
2023-01-09,0.59083849329301,0.59083849329301,0.0,0,False
2023-01-10,0.59083849329301,0.5898018800020589,-0.17544782588106989,2,True
2023-01-11,0.5898018800020589,0.5886234036973881,-0.19980884168540047,1,True
2023-01-12,0.5886234036973881,0.5891428528650803,0.08824813359940009,0,True
2023-01-13,0.5891428528650803,0.5891428528650803,0.0,0,False
2023-01-14,0.5891428528650803,0.590459099518989,0.22341723191712237,4,True
2023-01-15,0.590459099518989,0.5920114071242133,0.2628984135376822,1,True
2023-01-16,0.5920114071242133,0.592010299218654,-0.0001871426033250856,0,True
2023-01-17,0.592010299218654,0.592010299218654,0.0,0,False
2023-01-18,0.592010299218654,0.592010299218654,0.0,0,False
2023-01-19,0.592010299218654,0.5858750104702907,-1.0363483129365858,5,True
2023-01-20,0.5858750104702907,0.5858684923281328,-0.0011125482468843373,0,True
2023-01-21,0.5858684923281328,0.5863640455642821,0.08458438073366548,1,True
2023-01-22,0.5863640455642821,0.5862939596999522,-0.011952619683974763,0,True
2023-01-23,0.5862939596999522,0.5862939596999522,0.0,0,False
2023-01-24,0.5862939596999522,0.5862939596999522,0.0,0,False
2023-01-25,0.5862939596999522,0.5820714090278398,-0.7202105023004779,6,True
2023-01-26,0.5820714090278398,0.5955548912433695,2.316465300717896,0,True
2023-01-27,0.5955548912433695,0.5955548912433695,0.0,0,False
2023-01-28,0.5955548912433695,0.5955548912433695,0.0,0,False
2023-01-29,0.5955548912433695,0.5955548912433695,0.0,0,False
2023-01-30,0.5955548912433695,0.5975028308108159,0.32707976982266906,4,True
2023-01-31,0.5975028308108159,0.599457697195824,0.3271727403124203,2,True
2023-02-01,0.599457697195824,0.6068616461109126,1.2351078232414547,0,True
2023-02-02,0.6068616461109126,0.6068616461109126,0.0,0,False
2023-02-03,0.6068616461109126,0.6071192901570811,0.042455153957998704,1,True
2023-02-04,0.6071192901570811,0.6083121891816156,0.19648511320169426,0,True
2023-02-05,0.6083121891816156,0.6096459033243066,0.21924830151527352,5,True
2023-02-06,0.6096459033243066,0.603567263861596,-0.9970770622035996,0,True
2023-02-07,0.603567263861596,0.603567263861596,0.0,0,False
2023-02-08,0.603567263861596,0.6021042624467914,-0.24239243948460665,1,True
2023-02-09,0.6021042624467914,0.6056163758702744,0.5833065205701704,4,True
2023-02-10,0.6056163758702744,0.579812251360231,-4.260803627207532,3,True
2023-02-11,0.579812251360231,0.579812251360231,0.0,0,False
2023-02-12,0.579812251360231,0.579812251360231,0.0,0,False
2023-02-13,0.579812251360231,0.5799072873191706,0.01639081594373426,2,True
2023-02-14,0.5799072873191706,0.579646828442916,-0.04491388226187665,0,True
2023-02-15,0.579646828442916,0.579646828442916,0.0,0,False
2023-02-16,0.579646828442916,0.579646828442916,0.0,0,False
2023-02-17,0.579646828442916,0.5832092467031748,0.6145842753644271,1,True
2023-02-18,0.5832092467031748,0.5825693014941121,-0.10972823436531387,0,True
2023-02-19,0.5825693014941121,0.5825693014941121,0.0,0,False
2023-02-20,0.5825693014941121,0.5864716706039653,0.669854916804713,1,True
2023-02-21,0.5864716706039653,0.5834010598752218,-0.5235735812407216,1,True
2023-02-22,0.5834010598752218,0.5834010598752218,0.0,0,False
2023-02-23,0.5834010598752218,0.5882034387450745,0.8231693769771065,1,True
2023-02-24,0.5882034387450745,0.5882034387450745,0.0,0,False
2023-02-25,0.5882034387450745,0.5878414300231167,-0.06154481563898084,1,True
2023-02-26,0.5878414300231167,0.5883338285780316,0.08376384000283732,0,True
2023-02-27,0.5883338285780316,0.5883338285780316,0.0,0,False
2023-02-28,0.5883338285780316,0.5883338285780316,0.0,0,False
2023-03-01,0.5883338285780316,0.5883338285780316,0.0,0,False
2023-03-02,0.5883338285780316,0.5862535186619986,-0.35359345578700463,1,True
2023-03-03,0.5862535186619986,0.5793911929364614,-1.1705389404227495,9,True
2023-03-04,0.5793911929364614,0.5808485044362839,0.25152462059987446,0,True
2023-03-05,0.5808485044362839,0.5849382774457518,0.7041032176603457,3,True
2023-03-06,0.5849382774457518,0.5839375329158017,-0.1710854920146443,0,True
2023-03-07,0.5839375329158017,0.5839375329158017,0.0,0,False
2023-03-08,0.5839375329158017,0.5839375329158017,0.0,0,False
2023-03-09,0.5839375329158017,0.5839375329158017,0.0,0,False
2023-03-10,0.5839375329158017,0.5704319601143173,-2.3128454740777626,7,True
2023-03-11,0.5704319601143173,0.5674178642703,-0.5283883188125005,5,True
2023-03-12,0.5674178642703,0.5722029654833264,0.843311695725335,0,True
2023-03-13,0.5722029654833264,0.5722029654833264,0.0,0,False
2023-03-14,0.5722029654833264,0.5722029654833264,0.0,0,False
2023-03-15,0.5722029654833264,0.5693434620718171,-0.4997358601757651,1,True
2023-03-16,0.5693434620718171,0.5697317160175045,0.0681932737533586,1,True
2023-03-17,0.5697317160175045,0.5697133321141311,-0.0032267649591077863,1,True
2023-03-18,0.5697133321141311,0.578230415979612,1.4949771025851044,1,True
2023-03-19,0.578230415979612,0.575937959601125,-0.3964607040954693,1,True
2023-03-20,0.575937959601125,0.575926455842793,-0.0019973954034857577,0,True
2023-03-21,0.575926455842793,0.575926455842793,0.0,0,False
2023-03-22,0.575926455842793,0.575926455842793,0.0,0,False
2023-03-23,0.575926455842793,0.5870539588536936,1.9321048543632147,6,True
2023-03-24,0.5870539588536936,0.5816742095882911,-0.9163977491791764,1,True
2023-03-25,0.5816742095882911,0.5792974357580927,-0.40860911331803695,1,True
2023-03-26,0.5792974357580927,0.579453971952393,0.02702173091713167,0,True
2023-03-27,0.579453971952393,0.5765625789285983,-0.49898579762125417,1,True
2023-03-28,0.5765625789285983,0.5849219562422533,1.4498647014498989,4,True
2023-03-29,0.5849219562422533,0.5851201224077625,0.03387907795122658,0,True
2023-03-30,0.5851201224077625,0.5851201224077625,0.0,0,False
2023-03-31,0.5851201224077625,0.5851201224077625,0.0,0,False
2023-04-01,0.5851201224077625,0.5851201224077625,0.0,0,False
2023-04-02,0.5851201224077625,0.5851201224077625,0.0,0,False
2023-04-03,0.5851201224077625,0.5851201224077625,0.0,0,False
2023-04-04,0.5851201224077625,0.5851201224077625,0.0,0,False
2023-04-05,0.5851201224077625,0.5851201224077625,0.0,0,False
2023-04-06,0.5851201224077625,0.5851201224077625,0.0,0,False
2023-04-07,0.5851201224077625,0.5833995315914903,-0.2940577071921524,1,True
2023-04-08,0.5833995315914903,0.5833995315914903,0.0,0,False
2023-04-09,0.5833995315914903,0.5833995315914903,0.0,0,False
2023-04-10,0.5833995315914903,0.5833995315914903,0.0,0,False
2023-04-11,0.5833995315914903,0.5833995315914903,0.0,0,False
2023-04-12,0.5833995315914903,0.5855347643562621,0.3659983680389667,1,True
2023-04-13,0.5855347643562621,0.5857411222257565,0.035242633239929155,0,True
2023-04-14,0.5857411222257565,0.5888644774843822,0.5332313440376657,1,True
2023-04-15,0.5888644774843822,0.5885231555678597,-0.05796272819521553,0,True
2023-04-16,0.5885231555678597,0.5885231555678597,0.0,0,False
2023-04-17,0.5885231555678597,0.5885231555678597,0.0,0,False
2023-04-18,0.5885231555678597,0.5885231555678597,0.0,0,False
2023-04-19,0.5885231555678597,0.58391842964108,-0.7824205187537125,7,True
2023-04-20,0.58391842964108,0.580128676465555,-0.6490209904582822,0,True
2023-04-21,0.580128676465555,0.580128676465555,0.0,0,False
2023-04-22,0.580128676465555,0.580128676465555,0.0,0,False
2023-04-23,0.580128676465555,0.580128676465555,0.0,0,False
2023-04-24,0.580128676465555,0.580128676465555,0.0,0,False
2023-04-25,0.580128676465555,0.580128676465555,0.0,0,False
2023-04-26,0.580128676465555,0.580128676465555,0.0,0,False
2023-04-27,0.580128676465555,0.5765450165070022,-0.6177353583667555,8,True
2023-04-28,0.5765450165070022,0.5825763045439611,1.0461087797618118,0,True
2023-04-29,0.5825763045439611,0.5825763045439611,0.0,0,False
2023-04-30,0.5825763045439611,0.5825763045439611,0.0,0,False
2023-05-01,0.5825763045439611,0.5825763045439611,0.0,0,False
2023-05-02,0.5825763045439611,0.5825763045439611,0.0,0,False
2023-05-03,0.5825763045439611,0.5825763045439611,0.0,0,False
2023-05-04,0.5825763045439611,0.5825763045439611,0.0,0,False
2023-05-05,0.5825763045439611,0.5825763045439611,0.0,0,False
2023-05-06,0.5825763045439611,0.5796710327549334,-0.49869377905817913,1,True
2023-05-07,0.5796710327549334,0.5796710327549334,0.0,0,False
2023-05-08,0.5796710327549334,0.5821964908930619,0.43567092288985254,6,True
2023-05-09,0.5821964908930619,0.5696213538449824,-2.1599472420024135,6,True
2023-05-10,0.5696213538449824,0.565654329510524,-0.696431815219134,1,True
2023-05-11,0.565654329510524,0.5621790842480651,-0.6143761447854779,5,True
2023-05-12,0.5621790842480651,0.5601552260005859,-0.3600024092298204,0,True
2023-05-13,0.5601552260005859,0.5601552260005859,0.0,0,False
2023-05-14,0.5601552260005859,0.5601552260005859,0.0,0,False
2023-05-15,0.5601552260005859,0.5601552260005859,0.0,0,False
2023-05-16,0.5601552260005859,0.5601552260005859,0.0,0,False
2023-05-17,0.5601552260005859,0.5601552260005859,0.0,0,False
2023-05-18,0.5601552260005859,0.5587925470398011,-0.2432680974011614,1,True
2023-05-19,0.5587925470398011,0.5573554235425483,-0.2571837267454469,0,True
2023-05-20,0.5573554235425483,0.5573554235425483,0.0,0,False
2023-05-21,0.5573554235425483,0.5573554235425483,0.0,0,False
2023-05-22,0.5573554235425483,0.5573554235425483,0.0,0,False
2023-05-23,0.5573554235425483,0.5573554235425483,0.0,0,False
2023-05-24,0.5573554235425483,0.5573554235425483,0.0,0,False
2023-05-25,0.5573554235425483,0.5573554235425483,0.0,0,False
2023-05-26,0.5573554235425483,0.5581024694201743,0.13403401959879435,1,True
2023-05-27,0.5581024694201743,0.5595220125411824,0.25435170041137045,0,True
2023-05-28,0.5595220125411824,0.5595220125411824,0.0,0,False
2023-05-29,0.5595220125411824,0.5595220125411824,0.0,0,False
2023-05-30,0.5595220125411824,0.5614674109890365,0.34768934988254063,2,True
2023-05-31,0.5614674109890365,0.5566966331077089,-0.8496980925257636,1,True
2023-06-01,0.5566966331077089,0.5564445613554927,-0.04527991319239755,0,True
2023-06-02,0.5564445613554927,0.5564445613554927,0.0,0,False
2023-06-03,0.5564445613554927,0.5564445613554927,0.0,0,False
2023-06-04,0.5564445613554927,0.5536633070335534,-0.4998259512437708,1,True
2023-06-05,0.5536633070335534,0.5536633070335534,0.0,0,False
2023-06-06,0.5536633070335534,0.5465719348985035,-1.2808094820378035,9,True
2023-06-07,0.5465719348985035,0.5463903281541769,-0.03322650372825642,0,True
2023-06-08,0.5463903281541769,0.5463903281541769,0.0,0,False
2023-06-09,0.5463903281541769,0.5463903281541769,0.0,0,False
2023-06-10,0.5463903281541769,0.550641858351147,0.7781122721064015,6,True
2023-06-11,0.550641858351147,0.5501955911799487,-0.08104490503766382,1,True
2023-06-12,0.5501955911799487,0.5501919421607849,-0.0006632221744795608,0,True
2023-06-13,0.5501919421607849,0.5501919421607849,0.0,0,False
2023-06-14,0.5501919421607849,0.5501919421607849,0.0,0,False
2023-06-15,0.5501919421607849,0.5523038527993446,0.3838497943582153,4,True
2023-06-16,0.5523038527993446,0.5563990088745348,0.741467953633479,0,True
2023-06-17,0.5563990088745348,0.5563990088745348,0.0,0,False
2023-06-18,0.5563990088745348,0.5563990088745348,0.0,0,False
2023-06-19,0.5563990088745348,0.5563990088745348,0.0,0,False
2023-06-20,0.5563990088745348,0.5536217250187712,-0.49915327156699885,1,True
2023-06-21,0.5536217250187712,0.5536217250187712,0.0,0,False
2023-06-22,0.5536217250187712,0.5536217250187712,0.0,0,False
2023-06-23,0.5536217250187712,0.5536217250187712,0.0,0,False
2023-06-24,0.5536217250187712,0.5536217250187712,0.0,0,False
2023-06-25,0.5536217250187712,0.5527949840102783,-0.1493331946944232,3,True
2023-06-26,0.5527949840102783,0.551055762741735,-0.31462320007429323,0,True
2023-06-27,0.551055762741735,0.551055762741735,0.0,0,False
2023-06-28,0.551055762741735,0.551055762741735,0.0,0,False
2023-06-29,0.551055762741735,0.5491795986829869,-0.3404671878238452,2,True
2023-06-30,0.5491795986829869,0.542308549231647,-1.2511479792435387,7,True
2023-07-01,0.542308549231647,0.5501446005645374,1.4449433526343425,0,True
2023-07-02,0.5501446005645374,0.5501446005645374,0.0,0,False
2023-07-03,0.5501446005645374,0.5501446005645374,0.0,0,False
2023-07-04,0.5501446005645374,0.5501446005645374,0.0,0,False
2023-07-05,0.5501446005645374,0.5504441155693257,0.05444295999288418,1,True
2023-07-06,0.5504441155693257,0.5505645337957505,0.021876558040823113,1,True
2023-07-07,0.5505645337957505,0.5501426013591297,-0.0766363270281678,0,True
2023-07-08,0.5501426013591297,0.5501426013591297,0.0,0,False
2023-07-09,0.5501426013591297,0.5501426013591297,0.0,0,False
2023-07-10,0.5501426013591297,0.5501426013591297,0.0,0,False
2023-07-11,0.5501426013591297,0.5501426013591297,0.0,0,False
2023-07-12,0.5501426013591297,0.5492691089543023,-0.15877563429363972,1,True
2023-07-13,0.5492691089543023,0.5489333771389714,-0.0611233746551032,0,True
2023-07-14,0.5489333771389714,0.5489333771389714,0.0,0,False
2023-07-15,0.5489333771389714,0.5537452455881929,0.8765851466895569,5,True
2023-07-16,0.5537452455881929,0.5543599968702878,0.11101698605862076,1,True
2023-07-17,0.5543599968702878,0.555030791093319,0.12100336005813617,0,True
2023-07-18,0.555030791093319,0.555030791093319,0.0,0,False
2023-07-19,0.555030791093319,0.555030791093319,0.0,0,False
2023-07-20,0.555030791093319,0.555030791093319,0.0,0,False
2023-07-21,0.555030791093319,0.555030791093319,0.0,0,False
2023-07-22,0.555030791093319,0.555030791093319,0.0,0,False
2023-07-23,0.555030791093319,0.555030791093319,0.0,0,False
2023-07-24,0.555030791093319,0.5547494431023824,-0.05069051941828384,2,True
2023-07-25,0.5547494431023824,0.5552189486887432,0.08463380940684218,0,True
2023-07-26,0.5552189486887432,0.5552189486887432,0.0,0,False
2023-07-27,0.5552189486887432,0.5552189486887432,0.0,0,False
2023-07-28,0.5552189486887432,0.5552189486887432,0.0,0,False
2023-07-29,0.5552189486887432,0.5552189486887432,0.0,0,False
2023-07-30,0.5552189486887432,0.5552189486887432,0.0,0,False
2023-07-31,0.5552189486887432,0.5524493660152653,-0.4988271167651659,1,True
2023-08-01,0.5524493660152653,0.5497596625101638,-0.48686878301660297,2,True
2023-08-02,0.5497596625101638,0.5524077205650152,0.4816755821553942,0,True
2023-08-03,0.5524077205650152,0.5524077205650152,0.0,0,False
2023-08-04,0.5524077205650152,0.5524077205650152,0.0,0,False
2023-08-05,0.5524077205650152,0.5524077205650152,0.0,0,False
2023-08-06,0.5524077205650152,0.5524077205650152,0.0,0,False
2023-08-07,0.5524077205650152,0.5525732587171606,0.02996666157670802,1,True
2023-08-08,0.5525732587171606,0.551473723751537,-0.19898446916816193,1,True
2023-08-09,0.551473723751537,0.5515458526335478,0.01307929623919346,0,True
2023-08-10,0.5515458526335478,0.5491564393941313,-0.43322114163445447,1,True
2023-08-11,0.5491564393941313,0.5487893798530461,-0.06684061494209859,0,True
2023-08-12,0.5487893798530461,0.5487893798530461,0.0,0,False
2023-08-13,0.5487893798530461,0.5502326436259697,0.26299047064468617,1,True
2023-08-14,0.5502326436259697,0.549787872169992,-0.08083334588195878,0,True
2023-08-15,0.549787872169992,0.549787872169992,0.0,0,False
2023-08-16,0.549787872169992,0.5511390500860822,0.2457634997944158,6,True
2023-08-17,0.5511390500860822,0.5539129950307954,0.5033112685954411,4,True
2023-08-18,0.5539129950307954,0.565796533674049,2.14538000549942,5,True
2023-08-19,0.565796533674049,0.5658310678606063,0.006103640531884835,0,True
2023-08-20,0.5658310678606063,0.5658310678606063,0.0,0,False
2023-08-21,0.5658310678606063,0.5658310678606063,0.0,0,False
2023-08-22,0.5658310678606063,0.5661824098351161,0.06209308651754508,1,True
2023-08-23,0.5661824098351161,0.5666888378522109,0.08944608809768884,0,True
2023-08-24,0.5666888378522109,0.5666888378522109,0.0,0,False
2023-08-25,0.5666888378522109,0.5561080957960528,-1.8671167225138618,4,True
2023-08-26,0.5561080957960528,0.5561080957960528,0.0,0,False
2023-08-27,0.5561080957960528,0.5561080957960528,0.0,0,False
2023-08-28,0.5561080957960528,0.5546246783817271,-0.266749832548685,1,True
2023-08-29,0.5546246783817271,0.5582624002310635,0.6558889265350532,1,True
2023-08-30,0.5582624002310635,0.5559137080672699,-0.420714732502403,1,True
2023-08-31,0.5559137080672699,0.5586681095728362,0.49547285227817817,1,True
2023-09-01,0.5586681095728362,0.5577144585095929,-0.1707008234231311,0,True
2023-09-02,0.5577144585095929,0.556121842103982,-0.2855612547444042,1,True
2023-09-03,0.556121842103982,0.5574494510339866,0.2387262699450554,0,True
2023-09-04,0.5574494510339866,0.5561136328529386,-0.23963036981563546,2,True
2023-09-05,0.5561136328529386,0.5580264581516603,0.3439630294457485,0,True
2023-09-06,0.5580264581516603,0.5578311496252584,-0.0349998684737729,2,True
2023-09-07,0.5578311496252584,0.5576600062687118,-0.030680136213534492,1,True
2023-09-08,0.5576600062687118,0.5570865080312978,-0.10284012318747537,1,True
2023-09-09,0.5570865080312978,0.5563626148694493,-0.12994268419939115,2,True
2023-09-10,0.5563626148694493,0.5504648155276903,-1.060063919489429,3,True
2023-09-11,0.5504648155276903,0.5506572772681761,0.03496349540548227,0,True
2023-09-12,0.5506572772681761,0.5506572772681761,0.0,0,False
2023-09-13,0.5506572772681761,0.5506572772681761,0.0,0,False
2023-09-14,0.5506572772681761,0.5511808590156737,0.09508305240149006,2,True
2023-09-15,0.5511808590156737,0.5580466817600879,1.24565696215857,0,True
2023-09-16,0.5580466817600879,0.555807799397047,-0.4011998343900869,2,True
2023-09-17,0.555807799397047,0.5558800424512366,0.012997848225215769,1,True
2023-09-18,0.5558800424512366,0.5558800424512366,0.0,0,False
2023-09-19,0.5558800424512366,0.5558800424512366,0.0,0,False
2023-09-20,0.5558800424512366,0.5568416765202926,0.1729930912460098,1,True
2023-09-21,0.5568416765202926,0.5531017527901962,-0.6716314327381401,0,True
2023-09-22,0.5531017527901962,0.558833414431388,1.036276166596406,1,True
2023-09-23,0.558833414431388,0.5582684215758056,-0.10110219628819417,0,True
2023-09-24,0.5582684215758056,0.5554816661879557,-0.4991784023864021,1,True
2023-09-25,0.5554816661879557,0.5552859098875952,-0.035240821124471466,1,True
2023-09-26,0.5552859098875952,0.5553706651931298,0.015263363255835216,0,True
2023-09-27,0.5553706651931298,0.5553706651931298,0.0,0,False
2023-09-28,0.5553706651931298,0.5553706651931298,0.0,0,False
2023-09-29,0.5553706651931298,0.5526016049076135,-0.4985967857257023,1,True
2023-09-30,0.5526016049076135,0.5526016049076135,0.0,0,False
2023-10-01,0.5526016049076135,0.5522502421105665,-0.06358338338624536,1,True
2023-10-02,0.5522502421105665,0.5536962170174622,0.26183327713347193,0,True
2023-10-03,0.5536962170174622,0.5515447408728342,-0.3885661629073556,3,True
2023-10-04,0.5515447408728342,0.5440174226589924,-1.364770191069109,3,True
2023-10-05,0.5440174226589924,0.5399512760912072,-0.7474294753118671,0,True
2023-10-06,0.5399512760912072,0.5399512760912072,0.0,0,False
2023-10-07,0.5399512760912072,0.5385141428350679,-0.2661598036294843,1,True
2023-10-08,0.5385141428350679,0.5371475200312753,-0.2537765854389473,1,True
2023-10-09,0.5371475200312753,0.5361438015561623,-0.18686085994674695,1,True
2023-10-10,0.5361438015561623,0.5344082678655715,-0.3237067528437998,1,True
2023-10-11,0.5344082678655715,0.5343248206419096,-0.015614882605619052,0,True
2023-10-12,0.5343248206419096,0.5343248206419096,0.0,0,False
2023-10-13,0.5343248206419096,0.5343248206419096,0.0,0,False
2023-10-14,0.5343248206419096,0.5343248206419096,0.0,0,False
2023-10-15,0.5343248206419096,0.5343248206419096,0.0,0,False
2023-10-16,0.5343248206419096,0.5343248206419096,0.0,0,False
2023-10-17,0.5343248206419096,0.5343248206419096,0.0,0,False
2023-10-18,0.5343248206419096,0.5319305528747258,-0.4480921856310993,3,True
2023-10-19,0.5319305528747258,0.525877561098496,-1.1379289539804383,3,True
2023-10-20,0.525877561098496,0.5251419159007858,-0.13988906394361011,0,True
2023-10-21,0.5251419159007858,0.5253286475212439,0.03555831572457091,2,True
2023-10-22,0.5253286475212439,0.5250245670313055,-0.057883858299589974,0,True
2023-10-23,0.5250245670313055,0.5250245670313055,0.0,0,False
2023-10-24,0.5250245670313055,0.5240172758307402,-0.19185601280734543,1,True
2023-10-25,0.5240172758307402,0.5273126026185309,0.6288584250522034,3,True
2023-10-26,0.5273126026185309,0.5246964738387834,-0.4961248350136671,1,True
2023-10-27,0.5246964738387834,0.5209224539513794,-0.719276777256106,5,True
2023-10-28,0.5209224539513794,0.5211582100292289,0.045257422877664766,1,True
2023-10-29,0.5211582100292289,0.5218913653409959,0.14067807004822797,0,True
2023-10-30,0.5218913653409959,0.5218913653409959,0.0,0,False
2023-10-31,0.5218913653409959,0.5206752457971863,-0.2330215873594721,1,True
2023-11-01,0.5206752457971863,0.5194603313980041,-0.23333438817935148,1,True
2023-11-02,0.5194603313980041,0.5189366481232751,-0.10081294818404807,2,True
2023-11-03,0.5189366481232751,0.5176218706021697,-0.25335992858864786,0,True
2023-11-04,0.5176218706021697,0.5173341589703665,-0.05558336077811088,1,True
2023-11-05,0.5173341589703665,0.5191518028715273,0.35134813150139443,1,True
2023-11-06,0.5191518028715273,0.513111969504192,-1.163404101445431,2,True
2023-11-07,0.513111969504192,0.5090344668147088,-0.7946613861733232,2,True
2023-11-08,0.5090344668147088,0.5097082934003672,0.13237346969350305,0,True
2023-11-09,0.5097082934003672,0.5097082934003672,0.0,0,False
2023-11-10,0.5097082934003672,0.5141165613163167,0.8648609357601478,5,True
2023-11-11,0.5141165613163167,0.514065309012737,-0.009969004586918295,0,True
2023-11-12,0.514065309012737,0.5146372738936571,0.11126307706283978,1,True
2023-11-13,0.5146372738936571,0.5153303395499781,0.13467070721040475,1,True
2023-11-14,0.5153303395499781,0.5145527436824685,-0.1508927008234462,2,True
2023-11-15,0.5145527436824685,0.5118250942893123,-0.5301010298060738,1,True
2023-11-16,0.5118250942893123,0.5112500581202786,-0.11235013199816235,0,True
2023-11-17,0.5112500581202786,0.5112579647447759,0.0015465278432325036,2,True
2023-11-18,0.5112579647447759,0.5099567929759987,-0.2545039605254318,3,True
2023-11-19,0.5099567929759987,0.5078734031441513,-0.40854242173914423,2,True
2023-11-20,0.5078734031441513,0.5087829532468585,0.17908992616593178,0,True
2023-11-21,0.5087829532468585,0.5118379795332255,0.6004576739198964,2,True
2023-11-22,0.5118379795332255,0.511230047864939,-0.11877423962187716,4,True
2023-11-23,0.511230047864939,0.5110291800208325,-0.03929108724053387,2,True
2023-11-24,0.5110291800208325,0.5172230199199602,1.21203252989881,1,True
2023-11-25,0.5172230199199602,0.5184017975838142,0.22790510446275558,2,True
2023-11-26,0.5184017975838142,0.5173859763655947,-0.19595248761753448,0,True
2023-11-27,0.5173859763655947,0.5173859763655947,0.0,0,False
2023-11-28,0.5173859763655947,0.5174100152564058,0.004646220019344227,1,True
2023-11-29,0.5174100152564058,0.5187567981160744,0.2602931562894373,1,True
2023-11-30,0.5187567981160744,0.5187521900942316,-0.0008882817265409848,0,True
2023-12-01,0.5187521900942316,0.5187521900942316,0.0,0,False
2023-12-02,0.5187521900942316,0.5187521900942316,0.0,0,False
2023-12-03,0.5187521900942316,0.5193805979840355,0.1211383588934245,2,True
2023-12-04,0.5193805979840355,0.5238562327590902,0.8617254461231072,3,True
2023-12-05,0.5238562327590902,0.5221732572812926,-0.3212666706156275,0,True
2023-12-06,0.5221732572812926,0.519881168784752,-0.4389517204451354,1,True
2023-12-07,0.519881168784752,0.5195090976755258,-0.07156849133349574,2,True
2023-12-08,0.5195090976755258,0.520123450159298,0.11825634748670044,0,True
2023-12-09,0.520123450159298,0.520123450159298,0.0,0,False
2023-12-10,0.520123450159298,0.5187928161347386,-0.2558304233642672,1,True
2023-12-11,0.5187928161347386,0.5223697900109292,0.6894802250425824,5,True
2023-12-12,0.5223697900109292,0.5223938169150005,0.0045995967858036835,0,True
2023-12-13,0.5223938169150005,0.5231570867142998,0.14611003702280634,3,True
2023-12-14,0.5231570867142998,0.5268098004082721,0.6982059092256909,0,True
2023-12-15,0.5268098004082721,0.5268098004082721,0.0,0,False
2023-12-16,0.5268098004082721,0.5319831589218227,0.9820163766014467,3,True
2023-12-17,0.5319831589218227,0.5258789418262487,-1.1474455522136218,2,True
2023-12-18,0.5258789418262487,0.5256309620929664,-0.04715528870981034,2,True
2023-12-19,0.5256309620929664,0.5442365047840398,3.5396588163280063,1,True
2023-12-20,0.5442365047840398,0.5456651830350749,0.26251055165842363,0,True
2023-12-21,0.5456651830350749,0.5449461517111609,-0.13177152332034536,1,True
2023-12-22,0.5449461517111609,0.543695576440283,-0.22948602663787065,0,True
2023-12-23,0.543695576440283,0.5434990844396453,-0.03614007712259282,1,True
2023-12-24,0.5434990844396453,0.5432383371951659,-0.04797565477930865,1,True
2023-12-25,0.5432383371951659,0.543757263626815,0.09552463368627251,1,True
2023-12-26,0.543757263626815,0.5432962003913183,-0.08479210602565512,0,True
2023-12-27,0.5432962003913183,0.5399400893767947,-0.6177313612917401,7,True
2023-12-28,0.5399400893767947,0.5417517309648855,0.335526408157949,1,True
2023-12-29,0.5417517309648855,0.5476571468393243,1.0900594380974127,0,True
2023-12-30,0.5476571468393243,0.5471279771174119,-0.09662427030604492,1,True
2023-12-31,0.5471279771174119,0.5474833286035629,0.06494851314735595,0,True
