day,start_equity,end_equity,return_pct,entries,active
2024-01-02,1.0,1.0,0.0,0,False
2024-01-03,1.0,1.0092932468531264,0.929324685312638,4,True
2024-01-04,1.0092932468531264,1.0110458065700842,0.17364227120533204,1,True
2024-01-05,1.0110458065700842,1.0110458065700842,0.0,0,False
2024-01-06,1.0110458065700842,1.0110458065700842,0.0,0,False
2024-01-07,1.0110458065700842,1.0110458065700842,0.0,0,False
2024-01-08,1.0110458065700842,1.0080903197317614,-0.29231977612855786,1,True
2024-01-09,1.0080903197317614,1.0081193771343773,0.0028824205576594153,0,True
2024-01-10,1.0081193771343773,1.0071027496715028,-0.10084395617553366,1,True
2024-01-11,1.0071027496715028,1.0071027496715028,0.0,0,False
2024-01-12,1.0071027496715028,1.0071027496715028,0.0,0,False
2024-01-13,1.0071027496715028,1.0071027496715028,0.0,0,False
2024-01-14,1.0071027496715028,1.0071027496715028,0.0,0,False
2024-01-15,1.0071027496715028,1.0071027496715028,0.0,0,False
2024-01-16,1.0071027496715028,1.0071027496715028,0.0,0,False
2024-01-17,1.0071027496715028,1.0071027496715028,0.0,0,False
2024-01-18,1.0071027496715028,1.0071027496715028,0.0,0,False
2024-01-19,1.0071027496715028,1.0071027496715028,0.0,0,False
2024-01-20,1.0071027496715028,1.0071027496715028,0.0,0,False
2024-01-21,1.0071027496715028,1.0071027496715028,0.0,0,False
2024-01-22,1.0071027496715028,1.0071027496715028,0.0,0,False
2024-01-23,1.0071027496715028,0.9970767511019515,-0.9955288646388505,2,True
2024-01-24,0.9970767511019515,0.9970767511019515,0.0,0,False
2024-01-25,0.9970767511019515,0.9970767511019515,0.0,0,False
2024-01-26,0.9970767511019515,0.9970767511019515,0.0,0,False
2024-01-27,0.9970767511019515,0.9970767511019515,0.0,0,False
2024-01-28,0.9970767511019515,0.9936882604698625,-0.339842507444299,2,True
2024-01-29,0.9936882604698625,0.9936145346625538,-0.007419410114983815,0,True
2024-01-30,0.9936145346625538,0.9936145346625538,0.0,0,False
2024-01-31,0.9936145346625538,0.9936145346625538,0.0,0,False
2024-02-01,0.9936145346625538,0.9936145346625538,0.0,0,False
2024-02-02,0.9936145346625538,0.9936145346625538,0.0,0,False
2024-02-03,0.9936145346625538,0.9936145346625538,0.0,0,False
2024-02-04,0.9936145346625538,0.9936145346625538,0.0,0,False
2024-02-05,0.9936145346625538,0.9936145346625538,0.0,0,False
2024-02-06,0.9936145346625538,0.986869806351539,-0.6788073317894217,2,True
2024-02-07,0.986869806351539,0.9837182754855467,-0.31934616356776857,0,True
2024-02-08,0.9837182754855467,0.9837182754855467,0.0,0,False
2024-02-09,0.9837182754855467,0.9837182754855467,0.0,0,False
2024-02-10,0.9837182754855467,0.9837182754855467,0.0,0,False
2024-02-11,0.9837182754855467,0.9837182754855467,0.0,0,False
2024-02-12,0.9837182754855467,0.9837182754855467,0.0,0,False
2024-02-13,0.9837182754855467,0.9837182754855467,0.0,0,False
2024-02-14,0.9837182754855467,0.9837182754855467,0.0,0,False
2024-02-15,0.9837182754855467,0.999026376189022,1.5561468242439203,1,True
2024-02-16,0.999026376189022,0.9953288136705324,-0.37011660618958553,0,True
2024-02-17,0.9953288136705324,0.9953288136705324,0.0,0,False
2024-02-18,0.9953288136705324,0.9953288136705324,0.0,0,False
2024-02-19,0.9953288136705324,0.9953288136705324,0.0,0,False
2024-02-20,0.9953288136705324,0.9953288136705324,0.0,0,False
2024-02-21,0.9953288136705324,1.0093840590710754,1.4121208195220225,5,True
2024-02-22,1.0093840590710754,1.0230970919392988,1.3585545308535174,1,True
2024-02-23,1.0230970919392988,1.0233936856984562,0.028989795933753726,0,True
2024-02-24,1.0233936856984562,1.0233936856984562,0.0,0,False
2024-02-25,1.0233936856984562,1.0233936856984562,0.0,0,False
2024-02-26,1.0233936856984562,1.0221329192579653,-0.12319466673574864,1,True
2024-02-27,1.0221329192579653,1.0209287331991712,-0.11781110226528613,1,True
2024-02-28,1.0209287331991712,1.0209287331991712,0.0,0,False
2024-02-29,1.0209287331991712,1.0284918802710135,0.7408104822500539,2,True
2024-03-01,1.0284918802710135,1.0284918802710135,0.0,0,False
2024-03-02,1.0284918802710135,1.0284918802710135,0.0,0,False
2024-03-03,1.0284918802710135,1.0435235676306427,1.4615270813483017,4,True
2024-03-04,1.0435235676306427,1.0464023114717822,0.2758676402178306,0,True
2024-03-05,1.0464023114717822,1.045970205542214,-0.041294435689887,1,True
2024-03-06,1.045970205542214,1.0531297241765303,0.6844859056577945,1,True
2024-03-07,1.0531297241765303,1.050764510666408,-0.22458899941995014,2,True
2024-03-08,1.050764510666408,1.0516915926426424,0.08822928133025432,0,True
2024-03-09,1.0516915926426424,1.0516915926426424,0.0,0,False
2024-03-10,1.0516915926426424,1.0516915926426424,0.0,0,False
2024-03-11,1.0516915926426424,1.0516915926426424,0.0,0,False
2024-03-12,1.0516915926426424,1.0613686288597302,0.9201401137734377,1,True
2024-03-13,1.0613686288597302,1.0613686288597302,0.0,0,False
2024-03-14,1.0613686288597302,1.0613686288597302,0.0,0,False
2024-03-15,1.0613686288597302,1.0613686288597302,0.0,0,False
2024-03-16,1.0613686288597302,1.0613686288597302,0.0,0,False
2024-03-17,1.0613686288597302,1.0585875146966304,-0.2620309369881779,1,True
2024-03-18,1.0585875146966304,1.0578371719001887,-0.07088150823852946,1,True
2024-03-19,1.0578371719001887,1.048816222808583,-0.8527729343639212,1,True
2024-03-20,1.048816222808583,1.048816222808583,0.0,0,False
2024-03-21,1.048816222808583,1.0383677057372307,-0.9962200091997775,2,True
2024-03-22,1.0383677057372307,1.0383677057372307,0.0,0,False
2024-03-23,1.0383677057372307,1.0396204149325547,0.12064215676224066,1,True
2024-03-24,1.0396204149325547,1.0396204149325547,0.0,0,False
2024-03-25,1.0396204149325547,1.0396204149325547,0.0,0,False
2024-03-26,1.0396204149325547,1.0431213480987869,0.33675109837654205,1,True
2024-03-27,1.0431213480987869,1.0414581997328012,-0.15943958668058755,2,True
2024-03-28,1.0414581997328012,1.0414581997328012,0.0,0,False
2024-03-29,1.0414581997328012,1.0362576047096717,-0.49935705767776284,1,True
2024-03-30,1.0362576047096717,1.0362576047096717,0.0,0,False
2024-03-31,1.0362576047096717,1.0362576047096717,0.0,0,False
2024-04-01,1.0362576047096717,1.0362576047096717,0.0,0,False
2024-04-02,1.0362576047096717,1.0362576047096717,0.0,0,False
2024-04-03,1.0362576047096717,1.0362576047096717,0.0,0,False
2024-04-04,1.0362576047096717,1.0362576047096717,0.0,0,False
2024-04-05,1.0362576047096717,1.035196124115847,-0.10243404622560792,2,True
2024-04-06,1.035196124115847,1.0334065038087763,-0.17287741572633575,0,True
2024-04-07,1.0334065038087763,1.036307853437331,0.28075589014209257,1,True
2024-04-08,1.036307853437331,1.0356263352143997,-0.06576407007538032,0,True
2024-04-09,1.0356263352143997,1.0331926237750553,-0.23499899110238642,1,True
2024-04-10,1.0331926237750553,1.0253054133367143,-0.7633823797079442,1,True
2024-04-11,1.0253054133367143,1.0253054133367143,0.0,0,False
2024-04-12,1.0253054133367143,1.0283946056284552,0.30129483874345997,1,True
2024-04-13,1.0283946056284552,1.0273184452163275,-0.10464469632938123,8,True
2024-04-14,1.0273184452163275,1.0140706191369058,-1.2895539977024417,5,True
2024-04-15,1.0140706191369058,1.0158632949693311,0.17678017670517132,1,True
2024-04-16,1.0158632949693311,1.0090023822683978,-0.6753775566957998,0,True
2024-04-17,1.0090023822683978,1.0062289072416357,-0.2748729909365366,1,True
2024-04-18,1.0062289072416357,1.0064452697106732,0.021502311003018804,0,True
2024-04-19,1.0064452697106732,1.0064452697106732,0.0,0,False
2024-04-20,1.0064452697106732,1.0064452697106732,0.0,0,False
2024-04-21,1.0064452697106732,1.0064452697106732,0.0,0,False
2024-04-22,1.0064452697106732,1.0064452697106732,0.0,0,False
2024-04-23,1.0064452697106732,1.0064452697106732,0.0,0,False
2024-04-24,1.0064452697106732,1.0064452697106732,0.0,0,False
2024-04-25,1.0064452697106732,1.013460135716232,0.696994284406105,1,True
2024-04-26,1.013460135716232,1.0014133500397948,-1.1886787898098716,0,True
2024-04-27,1.0014133500397948,0.996410139328652,-0.4996149403185046,1,True
2024-04-28,0.996410139328652,0.996410139328652,0.0,0,False
2024-04-29,0.996410139328652,1.00677480113866,1.0402003553467765,1,True
2024-04-30,1.00677480113866,1.0071354496046871,0.035822158601828136,0,True
2024-05-01,1.0071354496046871,1.0071354496046871,0.0,0,False
2024-05-02,1.0071354496046871,1.0071354496046871,0.0,0,False
2024-05-03,1.0071354496046871,1.0071354496046871,0.0,0,False
2024-05-04,1.0071354496046871,1.0071354496046871,0.0,0,False
2024-05-05,1.0071354496046871,1.0071354496046871,0.0,0,False
2024-05-06,1.0071354496046871,1.0071354496046871,0.0,0,False
2024-05-07,1.0071354496046871,1.0043243377841518,-0.2791195386518064,1,True
2024-05-08,1.0043243377841518,1.0043312196499394,0.0006852234411436342,0,True
2024-05-09,1.0043312196499394,1.0015371906088961,-0.27819796760049087,1,True
2024-05-10,1.0015371906088961,1.0015371906088961,0.0,0,False
2024-05-11,1.0015371906088961,1.0017245842565008,0.01871060299725169,1,True
2024-05-12,1.0017245842565008,0.9965350552470265,-0.5180594637523184,0,True
2024-05-13,0.9965350552470265,0.9930584178059131,-0.34887256828627367,1,True
2024-05-14,0.9930584178059131,0.9930584178059131,0.0,0,False
2024-05-15,0.9930584178059131,0.9930584178059131,0.0,0,False
2024-05-16,0.9930584178059131,0.9930584178059131,0.0,0,False
2024-05-17,0.9930584178059131,0.9930584178059131,0.0,0,False
2024-05-18,0.9930584178059131,0.9930584178059131,0.0,0,False
2024-05-19,0.9930584178059131,0.9930584178059131,0.0,0,False
2024-05-20,0.9930584178059131,0.9930584178059131,0.0,0,False
2024-05-21,0.9930584178059131,0.9930584178059131,0.0,0,False
2024-05-22,0.9930584178059131,0.9930584178059131,0.0,0,False
2024-05-23,0.9930584178059131,1.0018002821487297,0.8802970888793338,1,True
2024-05-24,1.0018002821487297,1.004544715237957,0.27395012140951636,1,True
2024-05-25,1.004544715237957,1.004544715237957,0.0,0,False
2024-05-26,1.004544715237957,1.004544715237957,0.0,0,False
2024-05-27,1.004544715237957,1.004544715237957,0.0,0,False
2024-05-28,1.004544715237957,1.004544715237957,0.0,0,False
2024-05-29,1.004544715237957,1.004544715237957,0.0,0,False
2024-05-30,1.004544715237957,1.004544715237957,0.0,0,False
2024-05-31,1.004544715237957,1.004544715237957,0.0,0,False
2024-06-01,1.004544715237957,1.004544715237957,0.0,0,False
2024-06-02,1.004544715237957,1.004544715237957,0.0,0,False
2024-06-03,1.004544715237957,0.9957123794522849,-0.8792376936232138,3,True
2024-06-04,0.9957123794522849,0.9966245286885194,0.0916077026918316,1,True
2024-06-05,0.9966245286885194,0.9966245286885194,0.0,0,False
2024-06-06,0.9966245286885194,0.9916476863657581,-0.49936984084772984,1,True
2024-06-07,0.9916476863657581,0.9916476863657581,0.0,0,False
2024-06-08,0.9916476863657581,1.0214790996160463,3.0082673171573537,5,True
2024-06-09,1.0214790996160463,1.0214790996160463,0.0,0,False
2024-06-10,1.0214790996160463,1.0214790996160463,0.0,0,False
2024-06-11,1.0214790996160463,1.0214790996160463,0.0,0,False
2024-06-12,1.0214790996160463,1.0214790996160463,0.0,0,False
2024-06-13,1.0214790996160463,1.0140500748761445,-0.727281130146884,2,True
2024-06-14,1.0140500748761445,1.0089876219882616,-0.4992310550838597,1,True
2024-06-15,1.0089876219882616,1.018278754000781,0.9208370657918241,1,True
2024-06-16,1.018278754000781,1.018278754000781,0.0,0,False
2024-06-17,1.018278754000781,1.018278754000781,0.0,0,False
2024-06-18,1.018278754000781,1.0252420912981697,0.6838340945472865,4,True
2024-06-19,1.0252420912981697,1.0252420912981697,0.0,0,False
2024-06-20,1.0252420912981697,1.0252420912981697,0.0,0,False
2024-06-21,1.0252420912981697,1.0252420912981697,0.0,0,False
2024-06-22,1.0252420912981697,1.0252420912981697,0.0,0,False
2024-06-23,1.0252420912981697,1.032152484964411,0.674025552100721,1,True
2024-06-24,1.032152484964411,1.0324430347566342,0.02814989029777948,1,True
2024-06-25,1.0324430347566342,1.0432337332582224,1.045161634911107,0,True
2024-06-26,1.0432337332582224,1.0432337332582224,0.0,0,False
2024-06-27,1.0432337332582224,1.043489386914788,0.024505884771119923,1,True
2024-06-28,1.043489386914788,1.038018531027479,-0.5242847657017768,0,True
2024-06-29,1.038018531027479,1.0276821096491164,-0.9957838968569388,2,True
2024-06-30,1.0276821096491164,1.0276821096491164,0.0,0,False
2024-07-01,1.0276821096491164,1.0276821096491164,0.0,0,False
2024-07-02,1.0276821096491164,1.0276821096491164,0.0,0,False
2024-07-03,1.0276821096491164,1.0276821096491164,0.0,0,False
2024-07-04,1.0276821096491164,1.0276821096491164,0.0,0,False
2024-07-05,1.0276821096491164,1.0467577255534954,1.85617864953318,5,True
2024-07-06,1.0467577255534954,1.0467577255534954,0.0,0,False
2024-07-07,1.0467577255534954,1.0442087332253256,-0.24351311348784765,1,True
2024-07-08,1.0442087332253256,1.0415239369257279,-0.25711299036017543,0,True
2024-07-09,1.0415239369257279,1.0415239369257279,0.0,0,False
2024-07-10,1.0415239369257279,1.0415239369257279,0.0,0,False
2024-07-11,1.0415239369257279,1.0415239369257279,0.0,0,False
2024-07-12,1.0415239369257279,1.0415239369257279,0.0,0,False
2024-07-13,1.0415239369257279,1.0415239369257279,0.0,0,False
2024-07-14,1.0415239369257279,1.0415239369257279,0.0,0,False
2024-07-15,1.0415239369257279,1.0415239369257279,0.0,0,False
2024-07-16,1.0415239369257279,1.0363190581686297,-0.49973683489804577,1,True
2024-07-17,1.0363190581686297,1.0311447582019053,-0.4992960349362252,1,True
2024-07-18,1.0311447582019053,1.0311447582019053,0.0,0,False
2024-07-19,1.0311447582019053,1.0311447582019053,0.0,0,False
2024-07-20,1.0311447582019053,1.0322940897231594,0.11146170429632285,1,True
2024-07-21,1.0322940897231594,1.0322940897231594,0.0,0,False
2024-07-22,1.0322940897231594,1.0322940897231594,0.0,0,False
2024-07-23,1.0322940897231594,1.0271341137333314,-0.4998552293573377,1,True
2024-07-24,1.0271341137333314,1.0271341137333314,0.0,0,False
2024-07-25,1.0271341137333314,1.0271341137333314,0.0,0,False
2024-07-26,1.0271341137333314,1.0271341137333314,0.0,0,False
2024-07-27,1.0271341137333314,1.0271341137333314,0.0,0,False
2024-07-28,1.0271341137333314,1.0271341137333314,0.0,0,False
2024-07-29,1.0271341137333314,1.0271341137333314,0.0,0,False
2024-07-30,1.0271341137333314,1.0271341137333314,0.0,0,False
2024-07-31,1.0271341137333314,1.0220059524580325,-0.49926890819150804,1,True
2024-08-01,1.0220059524580325,1.0220059524580325,0.0,0,False
2024-08-02,1.0220059524580325,1.0220059524580325,0.0,0,False
2024-08-03,1.0220059524580325,1.0169044000377543,-0.4991705193113982,1,True
2024-08-04,1.0169044000377543,1.0169044000377543,0.0,0,False
2024-08-05,1.0169044000377543,0.9966081878419922,-1.9958820312910963,4,True
2024-08-06,0.9966081878419922,0.9966081878419922,0.0,0,False
2024-08-07,0.9966081878419922,0.9966081878419922,0.0,0,False
2024-08-08,0.9966081878419922,0.9966081878419922,0.0,0,False
2024-08-09,0.9966081878419922,0.9966081878419922,0.0,0,False
2024-08-10,0.9966081878419922,0.9966081878419922,0.0,0,False
2024-08-11,0.9966081878419922,0.9966081878419922,0.0,0,False
2024-08-12,0.9966081878419922,0.9966081878419922,0.0,0,False
2024-08-13,0.9966081878419922,0.9966081878419922,0.0,0,False
2024-08-14,0.9966081878419922,0.9966081878419922,0.0,0,False
2024-08-15,0.9966081878419922,0.9966081878419922,0.0,0,False
2024-08-16,0.9966081878419922,0.9966081878419922,0.0,0,False
2024-08-17,0.9966081878419922,0.9966081878419922,0.0,0,False
2024-08-18,0.9966081878419922,0.9966081878419922,0.0,0,False
2024-08-19,0.9966081878419922,0.9966081878419922,0.0,0,False
2024-08-20,0.9966081878419922,0.9966081878419922,0.0,0,False
2024-08-21,0.9966081878419922,0.9966081878419922,0.0,0,False
2024-08-22,0.9966081878419922,0.9966081878419922,0.0,0,False
2024-08-23,0.9966081878419922,0.9966081878419922,0.0,0,False
2024-08-24,0.9966081878419922,0.9966081878419922,0.0,0,False
2024-08-25,0.9966081878419922,0.9966081878419922,0.0,0,False
2024-08-26,0.9966081878419922,0.9966081878419922,0.0,0,False
2024-08-27,0.9966081878419922,0.9966081878419922,0.0,0,False
2024-08-28,0.9966081878419922,0.9966081878419922,0.0,0,False
2024-08-29,0.9966081878419922,0.9916346938060334,-0.49904206052412414,1,True
2024-08-30,0.9916346938060334,0.9916346938060334,0.0,0,False
2024-08-31,0.9916346938060334,0.9916346938060334,0.0,0,False
2024-09-01,0.9916346938060334,0.9866927724486785,-0.4983610787544279,1,True
2024-09-02,0.9866927724486785,0.9866927724486785,0.0,0,False
2024-09-03,0.9866927724486785,0.9866927724486785,0.0,0,False
2024-09-04,0.9866927724486785,0.9866927724486785,0.0,0,False
2024-09-05,0.9866927724486785,0.9866927724486785,0.0,0,False
2024-09-06,0.9866927724486785,0.9866927724486785,0.0,0,False
2024-09-07,0.9866927724486785,0.9866927724486785,0.0,0,False
2024-09-08,0.9866927724486785,0.9866927724486785,0.0,0,False
2024-09-09,0.9866927724486785,0.9866927724486785,0.0,0,False
2024-09-10,0.9866927724486785,0.9866927724486785,0.0,0,False
2024-09-11,0.9866927724486785,0.9866927724486785,0.0,0,False
2024-09-12,0.9866927724486785,0.9866927724486785,0.0,0,False
2024-09-13,0.9866927724486785,0.9866927724486785,0.0,0,False
2024-09-14,0.9866927724486785,0.9866927724486785,0.0,0,False
2024-09-15,0.9866927724486785,0.9866927724486785,0.0,0,False
2024-09-16,0.9866927724486785,0.9866927724486785,0.0,0,False
2024-09-17,0.9866927724486785,0.9866927724486785,0.0,0,False
2024-09-18,0.9866927724486785,0.9866927724486785,0.0,0,False
2024-09-19,0.9866927724486785,0.986087469542817,-0.06134664434191972,1,True
2024-09-20,0.986087469542817,0.9885836996400047,0.2531448957915572,1,True
2024-09-21,0.9885836996400047,0.9800433969080633,-0.8638927321026446,1,True
2024-09-22,0.9800433969080633,0.9904433366414567,1.061171348759049,1,True
2024-09-23,0.9904433366414567,0.9902320574522349,-0.021331779558253494,0,True
2024-09-24,0.9902320574522349,0.9902320574522349,0.0,0,False
2024-09-25,0.9902320574522349,0.9902320574522349,0.0,0,False
2024-09-26,0.9902320574522349,0.9902320574522349,0.0,0,False
2024-09-27,0.9902320574522349,0.9902320574522349,0.0,0,False
2024-09-28,0.9902320574522349,0.9902320574522349,0.0,0,False
2024-09-29,0.9902320574522349,0.9902320574522349,0.0,0,False
2024-09-30,0.9902320574522349,0.9902320574522349,0.0,0,False
2024-10-01,0.9902320574522349,0.9902320574522349,0.0,0,False
2024-10-02,0.9902320574522349,0.9902320574522349,0.0,0,False
2024-10-03,0.9902320574522349,0.9960184807688477,0.5843502311468907,1,True
2024-10-04,0.9960184807688477,0.9986906392536091,0.2682840264870201,0,True
2024-10-05,0.9986906392536091,0.9986906392536091,0.0,0,False
2024-10-06,0.9986906392536091,0.9986906392536091,0.0,0,False
2024-10-07,0.9986906392536091,0.9986906392536091,0.0,0,False
2024-10-08,0.9986906392536091,0.9986906392536091,0.0,0,False
2024-10-09,0.9986906392536091,0.9986906392536091,0.0,0,False
2024-10-10,0.9986906392536091,0.9986906392536091,0.0,0,False
2024-10-11,0.9986906392536091,0.9976034036088193,-0.10886610948935838,1,True
2024-10-12,0.9976034036088193,0.9983007185065585,0.06989900948781713,0,True
2024-10-13,0.9983007185065585,0.9983007185065585,0.0,0,False
2024-10-14,0.9983007185065585,0.9983007185065585,0.0,0,False
2024-10-15,0.9983007185065585,0.9983007185065585,0.0,0,False
2024-10-16,0.9983007185065585,0.9983007185065585,0.0,0,False
2024-10-17,0.9983007185065585,0.9983007185065585,0.0,0,False
2024-10-18,0.9983007185065585,0.9986734153768734,0.037333126522476334,1,True
2024-10-19,0.9986734153768734,0.994784817533173,-0.3893763250154114,1,True
2024-10-20,0.994784817533173,0.994784817533173,0.0,0,False
2024-10-21,0.994784817533173,1.0043973666137935,0.9662943092011878,1,True
2024-10-22,1.0043973666137935,1.0043973666137935,0.0,0,False
2024-10-23,1.0043973666137935,0.9993819334920514,-0.4993474981571322,1,True
2024-10-24,0.9993819334920514,0.9943918979500211,-0.4993121623275698,1,True
2024-10-25,0.9943918979500211,0.9970203802139274,0.26433061947959136,1,True
2024-10-26,0.9970203802139274,1.0066304936433914,0.9638833488440968,2,True
2024-10-27,1.0066304936433914,1.0066304936433914,0.0,0,False
2024-10-28,1.0066304936433914,1.0066304936433914,0.0,0,False
2024-10-29,1.0066304936433914,1.0066304936433914,0.0,0,False
2024-10-30,1.0066304936433914,1.0066304936433914,0.0,0,False
2024-10-31,1.0066304936433914,1.0066304936433914,0.0,0,False
2024-11-01,1.0066304936433914,1.0066304936433914,0.0,0,False
2024-11-02,1.0066304936433914,1.0066304936433914,0.0,0,False
2024-11-03,1.0066304936433914,1.0066304936433914,0.0,0,False
2024-11-04,1.0066304936433914,1.0066304936433914,0.0,0,False
2024-11-05,1.0066304936433914,1.0066304936433914,0.0,0,False
2024-11-06,1.0066304936433914,1.0066304936433914,0.0,0,False
2024-11-07,1.0066304936433914,1.0066304936433914,0.0,0,False
2024-11-08,1.0066304936433914,1.0066304936433914,0.0,0,False
2024-11-09,1.0066304936433914,1.0049401333365842,-0.1679226208108564,1,True
2024-11-10,1.0049401333365842,1.007478135304092,0.2525525534621931,0,True
2024-11-11,1.007478135304092,1.0064058358997898,-0.1064340124839136,1,True
2024-11-12,1.0064058358997898,1.00761807326512,0.12045213989111403,0,True
2024-11-13,1.00761807326512,1.00761807326512,0.0,0,False
2024-11-14,1.00761807326512,1.00761807326512,0.0,0,False
2024-11-15,1.00761807326512,1.00761807326512,0.0,0,False
2024-11-16,1.00761807326512,1.00761807326512,0.0,0,False
2024-11-17,1.00761807326512,1.00761807326512,0.0,0,False
2024-11-18,1.00761807326512,1.00761807326512,0.0,0,False
2024-11-19,1.00761807326512,1.00761807326512,0.0,0,False
2024-11-20,1.00761807326512,1.00761807326512,0.0,0,False
2024-11-21,1.00761807326512,1.00761807326512,0.0,0,False
2024-11-22,1.00761807326512,1.00761807326512,0.0,0,False
2024-11-23,1.00761807326512,1.0110688203056786,0.34246577469343453,1,True
2024-11-24,1.0110688203056786,1.0228143873286228,1.16169807505222,4,True
2024-11-25,1.0228143873286228,1.0227713459920784,-0.00420812779695634,1,True
2024-11-26,1.0227713459920784,1.0227713459920784,0.0,0,False
2024-11-27,1.0227713459920784,1.0227713459920784,0.0,0,False
2024-11-28,1.0227713459920784,1.0227713459920784,0.0,0,False
2024-11-29,1.0227713459920784,1.0227713459920784,0.0,0,False
2024-11-30,1.0227713459920784,1.0227713459920784,0.0,0,False
2024-12-01,1.0227713459920784,1.0227713459920784,0.0,0,False
2024-12-02,1.0227713459920784,1.0227713459920784,0.0,0,False
2024-12-03,1.0227713459920784,1.0227713459920784,0.0,0,False
2024-12-04,1.0227713459920784,1.0227713459920784,0.0,0,False
2024-12-05,1.0227713459920784,1.026760754491076,0.39005868854566916,1,True
2024-12-06,1.026760754491076,1.026760754491076,0.0,0,False
2024-12-07,1.026760754491076,1.026760754491076,0.0,0,False
2024-12-08,1.026760754491076,1.026760754491076,0.0,0,False
2024-12-09,1.026760754491076,1.0216278030694144,-0.4999169864264852,1,True
2024-12-10,1.0216278030694144,1.0216278030694144,0.0,0,False
2024-12-11,1.0216278030694144,1.0216278030694144,0.0,0,False
2024-12-12,1.0216278030694144,1.0216278030694144,0.0,0,False
2024-12-13,1.0216278030694144,1.0216278030694144,0.0,0,False
2024-12-14,1.0216278030694144,1.0216278030694144,0.0,0,False
2024-12-15,1.0216278030694144,1.0151715072412686,-0.6319616408978157,2,True
2024-12-16,1.0151715072412686,1.0114504154405741,-0.36654809302189006,0,True
2024-12-17,1.0114504154405741,1.0114504154405741,0.0,0,False
2024-12-18,1.0114504154405741,1.0114504154405741,0.0,0,False
2024-12-19,1.0114504154405741,1.0114504154405741,0.0,0,False
2024-12-20,1.0114504154405741,1.0065491410835157,-0.48457880705140566,2,True
2024-12-21,1.0065491410835157,1.0065491410835157,0.0,0,False
2024-12-22,1.0065491410835157,1.0065491410835157,0.0,0,False
2024-12-23,1.0065491410835157,1.0065491410835157,0.0,0,False
2024-12-24,1.0065491410835157,1.0065491410835157,0.0,0,False
2024-12-25,1.0065491410835157,1.0133299912490403,0.6736730367903565,1,True
2024-12-26,1.0133299912490403,1.0131546450998563,-0.017303953371383685,0,True
2024-12-27,1.0131546450998563,1.0131546450998563,0.0,0,False
2024-12-28,1.0131546450998563,1.0131546450998563,0.0,0,False
2024-12-29,1.0131546450998563,1.0131546450998563,0.0,0,False
2024-12-30,1.0131546450998563,1.0131546450998563,0.0,0,False
2024-12-31,1.0131546450998563,1.0131546450998563,0.0,0,False
