day,start_equity,end_equity,return_pct,entries,active
2024-01-02,1.0099946652896052,1.0176273712354644,0.7557174516036325,0,True
2024-01-03,1.0176273712354644,1.0380575188323793,2.007625597974183,4,True
2024-01-04,1.0380575188323793,1.035528929710931,-0.24358853681755166,2,True
2024-01-05,1.035528929710931,1.035528929710931,0.0,0,False
2024-01-06,1.035528929710931,1.045108091369351,0.9250501249727483,3,True
2024-01-07,1.045108091369351,1.0537769681163738,0.8294717856087486,2,True
2024-01-08,1.0537769681163738,1.0423980988235462,-1.0798176119912073,5,True
2024-01-09,1.0423980988235462,1.0454924131609136,0.2968457387690693,1,True
2024-01-10,1.0454924131609136,1.031759855498516,-1.313501417086238,4,True
2024-01-11,1.031759855498516,1.031759855498516,0.0,0,False
2024-01-12,1.031759855498516,1.0461494837860632,1.3946683630751133,1,True
2024-01-13,1.0461494837860632,1.0461494837860632,0.0,0,False
2024-01-14,1.0461494837860632,1.0436210670929578,-0.24168789759900777,1,True
2024-01-15,1.0436210670929578,1.047540535602963,0.3755643339898418,1,True
2024-01-16,1.047540535602963,1.047540535602963,0.0,0,False
2024-01-17,1.047540535602963,1.047540535602963,0.0,0,False
2024-01-18,1.047540535602963,1.0462180689318061,-0.12624491618318245,1,True
2024-01-19,1.0462180689318061,1.0462180689318061,0.0,0,False
2024-01-20,1.0462180689318061,1.0462180689318061,0.0,0,False
2024-01-21,1.0462180689318061,1.0462180689318061,0.0,0,False
2024-01-22,1.0462180689318061,1.0462180689318061,0.0,0,False
2024-01-23,1.0462180689318061,1.0381674928015707,-0.7694931266533311,3,True
2024-01-24,1.0381674928015707,1.0381674928015707,0.0,0,False
2024-01-25,1.0381674928015707,1.0344811159221496,-0.35508498435768976,1,True
2024-01-26,1.0344811159221496,1.0344811159221496,0.0,0,False
2024-01-27,1.0344811159221496,1.0344811159221496,0.0,0,False
2024-01-28,1.0344811159221496,1.0314060388011712,-0.2972579270562381,2,True
2024-01-29,1.0314060388011712,1.0314060388011712,0.0,0,False
2024-01-30,1.0314060388011712,1.0314060388011712,0.0,0,False
2024-01-31,1.0314060388011712,1.0314060388011712,0.0,0,False
2024-02-01,1.0314060388011712,1.0314060388011712,0.0,0,False
2024-02-02,1.0314060388011712,1.0315541874992376,0.01436376097221359,1,True
2024-02-03,1.0315541874992376,1.0315541874992376,0.0,0,False
2024-02-04,1.0315541874992376,1.0315541874992376,0.0,0,False
2024-02-05,1.0315541874992376,1.0315541874992376,0.0,0,False
2024-02-06,1.0315541874992376,1.0224228609656028,-0.8852008594693039,2,True
2024-02-07,1.0224228609656028,1.0202377587608262,-0.2137180503488434,1,True
2024-02-08,1.0202377587608262,1.0202377587608262,0.0,0,False
2024-02-09,1.0202377587608262,1.0202377587608262,0.0,0,False
2024-02-10,1.0202377587608262,1.0202377587608262,0.0,0,False
2024-02-11,1.0202377587608262,1.0202377587608262,0.0,0,False
2024-02-12,1.0202377587608262,1.0202377587608262,0.0,0,False
2024-02-13,1.0202377587608262,1.0202377587608262,0.0,0,False
2024-02-14,1.0202377587608262,1.0202377587608262,0.0,0,False
2024-02-15,1.0202377587608262,1.0474339752617343,2.665674375151572,2,True
2024-02-16,1.0474339752617343,1.0362731849493023,-1.0655364038237525,1,True
2024-02-17,1.0362731849493023,1.0362731849493023,0.0,0,False
2024-02-18,1.0362731849493023,1.0362731849493023,0.0,0,False
2024-02-19,1.0362731849493023,1.0362731849493023,0.0,0,False
2024-02-20,1.0362731849493023,1.0310984967464274,-0.49935560217435615,1,True
2024-02-21,1.0310984967464274,1.0553775029551642,2.3546738052036664,5,True
2024-02-22,1.0553775029551642,1.0725904997089384,1.630980071640331,1,True
2024-02-23,1.0725904997089384,1.0650463457327821,-0.7033582693678042,2,True
2024-02-24,1.0650463457327821,1.0650463457327821,0.0,0,False
2024-02-25,1.0650463457327821,1.0650463457327821,0.0,0,False
2024-02-26,1.0650463457327821,1.06756790067212,0.23675541908956266,2,True
2024-02-27,1.06756790067212,1.063785876932729,-0.3542654042904214,2,True
2024-02-28,1.063785876932729,1.0552069883562236,-0.8064488129172598,1,True
2024-02-29,1.0552069883562236,1.0749375100130896,1.8698247713087701,6,True
2024-03-01,1.0749375100130896,1.0697793345603468,-0.47985816893485467,2,True
2024-03-02,1.0697793345603468,1.0608001874535393,-0.8393457245552072,2,True
2024-03-03,1.0608001874535393,1.083549209136339,2.144515239708711,4,True
2024-03-04,1.083549209136339,1.082242362487782,-0.12060796478258196,0,True
2024-03-05,1.082242362487782,1.082908396892847,0.061542074876275166,2,True
2024-03-06,1.082908396892847,1.1016068624002995,1.7266894929528043,9,True
2024-03-07,1.1016068624002995,1.1000893181710374,-0.13775733258918343,5,True
2024-03-08,1.1000893181710374,1.1059529018420728,0.5330097814951973,1,True
2024-03-09,1.1059529018420728,1.104109633897744,-0.16666785188217403,2,True
2024-03-10,1.104109633897744,1.1062023076952494,0.1895349640341104,1,True
2024-03-11,1.1062023076952494,1.1062997172714704,0.008805765052488645,1,True
2024-03-12,1.1062997172714704,1.1157818122437386,0.857100008635503,2,True
2024-03-13,1.1157818122437386,1.1157818122437386,0.0,0,False
2024-03-14,1.1157818122437386,1.1157818122437386,0.0,0,False
2024-03-15,1.1157818122437386,1.1133454790601411,-0.21835211480085714,1,True
2024-03-16,1.1133454790601411,1.1077883186269901,-0.49914070139686073,1,True
2024-03-17,1.1077883186269901,1.1022582680736024,-0.499197406255536,1,True
2024-03-18,1.1022582680736024,1.100067633354586,-0.19874060213174172,1,True
2024-03-19,1.100067633354586,1.0858328591419193,-1.2939908221150653,2,True
2024-03-20,1.0858328591419193,1.0852287762735395,-0.05563313573482276,1,True
2024-03-21,1.0852287762735395,1.0659619035035142,-1.7753742981442167,3,True
2024-03-22,1.0659619035035142,1.0707441357348728,0.4486306889243341,2,True
2024-03-23,1.0707441357348728,1.0661650228952697,-0.4276570551993153,1,True
2024-03-24,1.0661650228952697,1.0651198051232351,-0.09803527123748434,2,True
2024-03-25,1.0651198051232351,1.0651198051232351,0.0,0,False
2024-03-26,1.0651198051232351,1.0699884116120675,0.45709472919519545,1,True
2024-03-27,1.0699884116120675,1.064438319959011,-0.5187057722143451,3,True
2024-03-28,1.064438319959011,1.064438319959011,0.0,0,False
2024-03-29,1.064438319959011,1.0538437456385659,-0.9953206420502791,2,True
2024-03-30,1.0538437456385659,1.0538437456385659,0.0,0,False
2024-03-31,1.0538437456385659,1.0538437456385659,0.0,0,False
2024-04-01,1.0538437456385659,1.0491978016529644,-0.4408570060627226,2,True
2024-04-02,1.0491978016529644,1.0483660395764385,-0.07927600260079215,2,True
2024-04-03,1.0483660395764385,1.0482490714432426,-0.011157184492838201,1,True
2024-04-04,1.0482490714432426,1.0482490714432426,0.0,0,False
2024-04-05,1.0482490714432426,1.0471611797211202,-0.10378179688006473,2,True
2024-04-06,1.0471611797211202,1.0396258086677292,-0.7195999239962059,0,True
2024-04-07,1.0396258086677292,1.0429218455917875,0.3170406983530105,2,True
2024-04-08,1.0429218455917875,1.0421683389215235,-0.07224958163920547,0,True
2024-04-09,1.0421683389215235,1.0370042028963575,-0.4955184140894131,1,True
2024-04-10,1.0370042028963575,1.0318334568215641,-0.49862344437481276,1,True
2024-04-11,1.0318334568215641,1.0318334568215641,0.0,0,False
2024-04-12,1.0318334568215641,1.0266864882768167,-0.4988177608237221,1,True
2024-04-13,1.0266864882768167,1.0174700945984445,-0.8976833515984994,9,True
2024-04-14,1.0174700945984445,1.0219925827234537,0.44448364124098916,8,True
2024-04-15,1.0219925827234537,1.0260916874655932,0.4010894806316445,2,True
2024-04-16,1.0260916874655932,1.0245788775219817,-0.14743418761612448,0,True
2024-04-17,1.0245788775219817,1.0220216884245437,-0.2495844052165963,1,True
2024-04-18,1.0220216884245437,1.0220216884245437,0.0,0,False
2024-04-19,1.0220216884245437,1.0220216884245437,0.0,0,False
2024-04-20,1.0220216884245437,1.0220216884245437,0.0,0,False
2024-04-21,1.0220216884245437,1.0220216884245437,0.0,0,False
2024-04-22,1.0220216884245437,1.0220216884245437,0.0,0,False
2024-04-23,1.0220216884245437,1.0194695938919767,-0.24971040844554704,1,True
2024-04-24,1.0194695938919767,1.0194695938919767,0.0,0,False
2024-04-25,1.0194695938919767,1.0223886586750477,0.28633171607670427,2,True
2024-04-26,1.0223886586750477,1.0212697521119072,-0.10944043184032415,0,True
2024-04-27,1.0212697521119072,1.0187210865698095,-0.24955850663619383,1,True
2024-04-28,1.0187210865698095,1.0187210865698095,0.0,0,False
2024-04-29,1.0187210865698095,1.0218962962492608,0.3116858697941316,1,True
2024-04-30,1.0218962962492608,1.0218962962492608,0.0,0,False
2024-05-01,1.0218962962492608,1.0218962962492608,0.0,0,False
2024-05-02,1.0218962962492608,1.0218962962492608,0.0,0,False
2024-05-03,1.0218962962492608,1.0218962962492608,0.0,0,False
2024-05-04,1.0218962962492608,1.0218962962492608,0.0,0,False
2024-05-05,1.0218962962492608,1.0218962962492608,0.0,0,False
2024-05-06,1.0218962962492608,1.0218962962492608,0.0,0,False
2024-05-07,1.0218962962492608,1.0193454033662375,-0.24962345909130823,1,True
2024-05-08,1.0193454033662375,1.0193454033662375,0.0,0,False
2024-05-09,1.0193454033662375,1.0103660162919934,-0.8808973920509167,5,True
2024-05-10,1.0103660162919934,1.0093831248223093,-0.09728073330210751,1,True
2024-05-11,1.0093831248223093,1.0096452158590905,0.025965466465205367,1,True
2024-05-12,1.0096452158590905,1.009019297989386,-0.06199384297305155,0,True
2024-05-13,1.009019297989386,1.0129174701636119,0.3863327670732941,1,True
2024-05-14,1.0129174701636119,1.0129174701636119,0.0,0,False
2024-05-15,1.0129174701636119,1.0129174701636119,0.0,0,False
2024-05-16,1.0129174701636119,1.0129174701636119,0.0,0,False
2024-05-17,1.0129174701636119,1.0129174701636119,0.0,0,False
2024-05-18,1.0129174701636119,1.0129174701636119,0.0,0,False
2024-05-19,1.0129174701636119,1.0129174701636119,0.0,0,False
2024-05-20,1.0129174701636119,1.0129174701636119,0.0,0,False
2024-05-21,1.0129174701636119,1.013454037004777,0.05297241453230406,2,True
2024-05-22,1.013454037004777,1.013454037004777,0.0,0,False
2024-05-23,1.013454037004777,1.013221104673215,-0.02298400549576307,1,True
2024-05-24,1.013221104673215,1.0125309932798912,-0.06811064141289958,2,True
2024-05-25,1.0125309932798912,1.0125309932798912,0.0,0,False
2024-05-26,1.0125309932798912,1.0125309932798912,0.0,0,False
2024-05-27,1.0125309932798912,1.0125309932798912,0.0,0,False
2024-05-28,1.0125309932798912,1.0125309932798912,0.0,0,False
2024-05-29,1.0125309932798912,1.0125309932798912,0.0,0,False
2024-05-30,1.0125309932798912,1.0125309932798912,0.0,0,False
2024-05-31,1.0125309932798912,1.0074739786475277,-0.49944294702349845,2,True
2024-06-01,1.0074739786475277,1.0074739786475277,0.0,0,False
2024-06-02,1.0074739786475277,1.0049583732803764,-0.24969432664935232,1,True
2024-06-03,1.0049583732803764,1.0011246292710447,-0.38148286648108654,3,True
2024-06-04,1.0011246292710447,0.999963891638076,-0.11594336998920207,2,True
2024-06-05,0.999963891638076,0.999963891638076,0.0,0,False
2024-06-06,0.999963891638076,0.9949792749590196,-0.49847966718986614,2,True
2024-06-07,0.9949792749590196,0.9949792749590196,0.0,0,False
2024-06-08,0.9949792749590196,1.0183213834945795,2.345989421389838,5,True
2024-06-09,1.0183213834945795,1.0157793355970428,-0.2496312007917445,1,True
2024-06-10,1.0157793355970428,1.0157793355970428,0.0,0,False
2024-06-11,1.0157793355970428,1.013242890041168,-0.2497043862763615,1,True
2024-06-12,1.013242890041168,1.0107140536627501,-0.2495784972461279,1,True
2024-06-13,1.0107140536627501,1.0066973604913878,-0.39741142975168176,2,True
2024-06-14,1.0066973604913878,1.0041864595700156,-0.24941963890185992,1,True
2024-06-15,1.0041864595700156,1.011679313321933,0.7461615998213933,1,True
2024-06-16,1.011679313321933,1.011679313321933,0.0,0,False
2024-06-17,1.011679313321933,1.011679313321933,0.0,0,False
2024-06-18,1.011679313321933,1.0215955483985557,0.9801757282217993,5,True
2024-06-19,1.0215955483985557,1.0195194594750159,-0.2032202398291827,1,True
2024-06-20,1.0195194594750159,1.0195194594750159,0.0,0,False
2024-06-21,1.0195194594750159,1.0195194594750159,0.0,0,False
2024-06-22,1.0195194594750159,1.0169744424810088,-0.2496290747915353,1,True
2024-06-23,1.0169744424810088,1.021134544766979,0.4090665519402181,1,True
2024-06-24,1.021134544766979,1.021450870304417,0.030977850965774323,1,True
2024-06-25,1.021450870304417,1.0311566602414555,0.9501964528304763,1,True
2024-06-26,1.0311566602414555,1.032192212816105,0.1004263090738311,0,True
2024-06-27,1.032192212816105,1.0324988476140726,0.029707141185553176,1,True
2024-06-28,1.0324988476140726,1.031908154266582,-0.05721007329505534,0,True
2024-06-29,1.031908154266582,1.0267686553652733,-0.4980577854781676,2,True
2024-06-30,1.0267686553652733,1.0267686553652733,0.0,0,False
2024-07-01,1.0267686553652733,1.0267686553652733,0.0,0,False
2024-07-02,1.0267686553652733,1.0267686553652733,0.0,0,False
2024-07-03,1.0267686553652733,1.0267686553652733,0.0,0,False
2024-07-04,1.0267686553652733,1.0267686553652733,0.0,0,False
2024-07-05,1.0267686553652733,1.0221275773215257,-0.4520081538812226,6,True
2024-07-06,1.0221275773215257,1.022288832189084,0.015776393391209176,2,True
2024-07-07,1.022288832189084,1.022614419695891,0.03184887641880518,2,True
2024-07-08,1.022614419695891,1.022614419695891,0.0,0,False
2024-07-09,1.022614419695891,1.022614419695891,0.0,0,False
2024-07-10,1.022614419695891,1.022614419695891,0.0,0,False
2024-07-11,1.022614419695891,1.022614419695891,0.0,0,False
2024-07-12,1.022614419695891,1.022614419695891,0.0,0,False
2024-07-13,1.022614419695891,1.022614419695891,0.0,0,False
2024-07-14,1.022614419695891,1.0200618950440903,-0.2496077311876621,1,True
2024-07-15,1.0200618950440903,1.0200618950440903,0.0,0,False
2024-07-16,1.0200618950440903,1.0204380126159007,0.03687203429887376,1,True
2024-07-17,1.0204380126159007,1.0178925166026414,-0.24945131225894146,1,True
2024-07-18,1.0178925166026414,1.0178925166026414,0.0,0,False
2024-07-19,1.0178925166026414,1.0178925166026414,0.0,0,False
2024-07-20,1.0178925166026414,1.017896055467124,0.00034766583159040465,2,True
2024-07-21,1.017896055467124,1.017896055467124,0.0,0,False
2024-07-22,1.017896055467124,1.017896055467124,0.0,0,False
2024-07-23,1.017896055467124,1.0160935121949644,-0.17708520064284583,1,True
2024-07-24,1.0160935121949644,1.0160935121949644,0.0,0,False
2024-07-25,1.0160935121949644,1.0160935121949644,0.0,0,False
2024-07-26,1.0160935121949644,1.0160935121949644,0.0,0,False
2024-07-27,1.0160935121949644,1.0160935121949644,0.0,0,False
2024-07-28,1.0160935121949644,1.0135561048552866,-0.24972183260932868,1,True
2024-07-29,1.0135561048552866,1.0135561048552866,0.0,0,False
2024-07-30,1.0135561048552866,1.0135561048552866,0.0,0,False
2024-07-31,1.0135561048552866,1.0110278061557814,-0.24944832233694259,1,True
2024-08-01,1.0110278061557814,1.0110278061557814,0.0,0,False
2024-08-02,1.0110278061557814,1.0110278061557814,0.0,0,False
2024-08-03,1.0110278061557814,1.0085065858012021,-0.24937200927891423,1,True
2024-08-04,1.0085065858012021,1.0085065858012021,0.0,0,False
2024-08-05,1.0085065858012021,1.0073500913490765,-0.11467396132142094,8,True
2024-08-06,1.0073500913490765,1.0073500913490765,0.0,0,False
2024-08-07,1.0073500913490765,1.0073500913490765,0.0,0,False
2024-08-08,1.0073500913490765,1.0073500913490765,0.0,0,False
2024-08-09,1.0073500913490765,1.0073500913490765,0.0,0,False
2024-08-10,1.0073500913490765,1.0073500913490765,0.0,0,False
2024-08-11,1.0073500913490765,1.0073500913490765,0.0,0,False
2024-08-12,1.0073500913490765,1.0126446611708775,0.5255938195935839,2,True
2024-08-13,1.0126446611708775,1.0107380330298603,-0.18828205135773546,0,True
2024-08-14,1.0107380330298603,1.0107380330298603,0.0,0,False
2024-08-15,1.0107380330298603,1.0107380330298603,0.0,0,False
2024-08-16,1.0107380330298603,1.0107380330298603,0.0,0,False
2024-08-17,1.0107380330298603,1.0107380330298603,0.0,0,False
2024-08-18,1.0107380330298603,1.0098026309576864,-0.09254644048268812,1,True
2024-08-19,1.0098026309576864,1.0047539025667236,-0.4999718000511355,2,True
2024-08-20,1.0047539025667236,1.004452727834973,-0.02997497506415092,1,True
2024-08-21,1.004452727834973,1.004452727834973,0.0,0,False
2024-08-22,1.004452727834973,1.004452727834973,0.0,0,False
2024-08-23,1.004452727834973,1.004452727834973,0.0,0,False
2024-08-24,1.004452727834973,1.004452727834973,0.0,0,False
2024-08-25,1.004452727834973,1.004452727834973,0.0,0,False
2024-08-26,1.004452727834973,1.004452727834973,0.0,0,False
2024-08-27,1.004452727834973,1.004452727834973,0.0,0,False
2024-08-28,1.004452727834973,1.004452727834973,0.0,0,False
2024-08-29,1.004452727834973,1.0019488797510676,-0.24927485530377158,1,True
2024-08-30,1.0019488797510676,1.0019488797510676,0.0,0,False
2024-08-31,1.0019488797510676,1.0019488797510676,0.0,0,False
2024-09-01,1.0019488797510676,0.9994565155110179,-0.2487516369766185,1,True
2024-09-02,0.9994565155110179,0.9994565155110179,0.0,0,False
2024-09-03,0.9994565155110179,0.9994565155110179,0.0,0,False
2024-09-04,0.9994565155110179,0.9994565155110179,0.0,0,False
2024-09-05,0.9994565155110179,0.9957508899437889,-0.3707640612392482,2,True
2024-09-06,0.9957508899437889,0.9957508899437889,0.0,0,False
2024-09-07,0.9957508899437889,0.9957508899437889,0.0,0,False
2024-09-08,0.9957508899437889,0.9957508899437889,0.0,0,False
2024-09-09,0.9957508899437889,0.9957508899437889,0.0,0,False
2024-09-10,0.9957508899437889,0.9957508899437889,0.0,0,False
2024-09-11,0.9957508899437889,0.9957508899437889,0.0,0,False
2024-09-12,0.9957508899437889,0.9957508899437889,0.0,0,False
2024-09-13,0.9957508899437889,1.0004562814004814,0.4725470500918316,1,True
2024-09-14,1.0004562814004814,1.0004562814004814,0.0,0,False
2024-09-15,1.0004562814004814,1.0004562814004814,0.0,0,False
2024-09-16,1.0004562814004814,1.0004562814004814,0.0,0,False
2024-09-17,1.0004562814004814,1.0004562814004814,0.0,0,False
2024-09-18,1.0004562814004814,0.998761230826432,-0.16942775067357863,2,True
2024-09-19,0.998761230826432,0.9984047309220727,-0.03569420731962536,1,True
2024-09-20,0.9984047309220727,0.9997787643647837,0.1376228898116283,1,True
2024-09-21,0.9997787643647837,0.993926654830165,-0.5853404516285132,4,True
2024-09-22,0.993926654830165,1.0019772315225317,0.809976938765411,1,True
2024-09-23,1.0019772315225317,1.0062196479182632,0.4234044709064966,1,True
2024-09-24,1.0062196479182632,1.0062196479182632,0.0,0,False
2024-09-25,1.0062196479182632,1.0062196479182632,0.0,0,False
2024-09-26,1.0062196479182632,1.0062196479182632,0.0,0,False
2024-09-27,1.0062196479182632,1.0062196479182632,0.0,0,False
2024-09-28,1.0062196479182632,1.0062196479182632,0.0,0,False
2024-09-29,1.0062196479182632,1.0062196479182632,0.0,0,False
2024-09-30,1.0062196479182632,1.0062196479182632,0.0,0,False
2024-10-01,1.0062196479182632,1.0062196479182632,0.0,0,False
2024-10-02,1.0062196479182632,1.0062196479182632,0.0,0,False
2024-10-03,1.0062196479182632,1.010525291765299,0.4279029788320621,1,True
2024-10-04,1.010525291765299,1.010525291765299,0.0,0,False
2024-10-05,1.010525291765299,1.010525291765299,0.0,0,False
2024-10-06,1.010525291765299,1.010525291765299,0.0,0,False
2024-10-07,1.010525291765299,1.010525291765299,0.0,0,False
2024-10-08,1.010525291765299,1.010525291765299,0.0,0,False
2024-10-09,1.010525291765299,1.010525291765299,0.0,0,False
2024-10-10,1.010525291765299,1.010525291765299,0.0,0,False
2024-10-11,1.010525291765299,1.0093489176432335,-0.11641214046314019,1,True
2024-10-12,1.0093489176432335,1.0093489176432335,0.0,0,False
2024-10-13,1.0093489176432335,1.0093489176432335,0.0,0,False
2024-10-14,1.0093489176432335,1.0093489176432335,0.0,0,False
2024-10-15,1.0093489176432335,1.004314780984637,-0.4987508849121358,2,True
2024-10-16,1.004314780984637,1.004314780984637,0.0,0,False
2024-10-17,1.004314780984637,1.004314780984637,0.0,0,False
2024-10-18,1.004314780984637,1.0136916226394874,0.9336556458581002,3,True
2024-10-19,1.0136916226394874,1.0120032395922345,-0.1665578573942117,1,True
2024-10-20,1.0120032395922345,1.0120032395922345,0.0,0,False
2024-10-21,1.0120032395922345,1.0158607633584853,0.38117701755628897,1,True
2024-10-22,1.0158607633584853,1.0289680424828078,1.2902633507557937,2,True
2024-10-23,1.0289680424828078,1.0238373116224075,-0.4986287861788452,2,True
2024-10-24,1.0238373116224075,1.0212830281229293,-0.24948138444287338,1,True
2024-10-25,1.0212830281229293,1.0207662859950606,-0.050597348006298226,1,True
2024-10-26,1.0207662859950606,1.0288384663617078,0.7907961379012729,2,True
2024-10-27,1.0288384663617078,1.0288384663617078,0.0,0,False
2024-10-28,1.0288384663617078,1.0288384663617078,0.0,0,False
2024-10-29,1.0288384663617078,1.0288384663617078,0.0,0,False
2024-10-30,1.0288384663617078,1.0288384663617078,0.0,0,False
2024-10-31,1.0288384663617078,1.0288384663617078,0.0,0,False
2024-11-01,1.0288384663617078,1.0288384663617078,0.0,0,False
2024-11-02,1.0288384663617078,1.0288384663617078,0.0,0,False
2024-11-03,1.0288384663617078,1.0288384663617078,0.0,0,False
2024-11-04,1.0288384663617078,1.0288384663617078,0.0,0,False
2024-11-05,1.0288384663617078,1.0288384663617078,0.0,0,False
2024-11-06,1.0288384663617078,1.0288384663617078,0.0,0,False
2024-11-07,1.0288384663617078,1.0288384663617078,0.0,0,False
2024-11-08,1.0288384663617078,1.0288384663617078,0.0,0,False
2024-11-09,1.0288384663617078,1.0276553561172377,-0.11499475215521748,1,True
2024-11-10,1.0276553561172377,1.0227644310823332,-0.47593047667107147,3,True
2024-11-11,1.0227644310823332,1.017441703010226,-0.5204256141831509,3,True
2024-11-12,1.017441703010226,1.017441703010226,0.0,0,False
2024-11-13,1.017441703010226,1.017441703010226,0.0,0,False
2024-11-14,1.017441703010226,1.0185176578516315,0.10575100649228286,1,True
2024-11-15,1.0185176578516315,1.0185176578516315,0.0,0,False
2024-11-16,1.0185176578516315,1.0162514955173794,-0.2224961262853542,1,True
2024-11-17,1.0162514955173794,1.02636139610782,0.9948227023561351,2,True
2024-11-18,1.02636139610782,1.02636139610782,0.0,0,False
2024-11-19,1.02636139610782,1.0237990439635511,-0.24965398679118733,1,True
2024-11-20,1.0237990439635511,1.0237990439635511,0.0,0,False
2024-11-21,1.0237990439635511,1.0237990439635511,0.0,0,False
2024-11-22,1.0237990439635511,1.0237990439635511,0.0,0,False
2024-11-23,1.0237990439635511,1.022595957372347,-0.11751198619471825,1,True
2024-11-24,1.022595957372347,1.0241192702472774,0.1489652745004566,8,True
2024-11-25,1.0241192702472774,1.019649879934381,-0.43641306659695234,1,True
2024-11-26,1.019649879934381,1.015382027265199,-0.41856060135627704,2,True
2024-11-27,1.015382027265199,1.0159143779716049,0.0524286122967732,2,True
2024-11-28,1.0159143779716049,1.0159143779716049,0.0,0,False
2024-11-29,1.0159143779716049,1.0159143779716049,0.0,0,False
2024-11-30,1.0159143779716049,1.0138763195940752,-0.20061320340784006,1,True
2024-12-01,1.0138763195940752,1.0138763195940752,0.0,0,False
2024-12-02,1.0138763195940752,1.0162778592083306,0.23686711760038115,1,True
2024-12-03,1.0162778592083306,1.0160714563844107,-0.020309684211827772,1,True
2024-12-04,1.0160714563844107,1.0130203535044675,-0.3002842822492191,4,True
2024-12-05,1.0130203535044675,1.016109882624766,0.30498193936683293,1,True
2024-12-06,1.016109882624766,1.016746996127719,0.06270124066769522,1,True
2024-12-07,1.016746996127719,1.0181053996401577,0.13360290392911978,1,True
2024-12-08,1.0181053996401577,1.0181053996401577,0.0,0,False
2024-12-09,1.0181053996401577,1.0175482822719477,-0.054720991402934516,1,True
2024-12-10,1.0175482822719477,1.012619458138933,-0.4843823353531507,5,True
2024-12-11,1.012619458138933,1.012619458138933,0.0,0,False
2024-12-12,1.012619458138933,1.012619458138933,0.0,0,False
2024-12-13,1.012619458138933,1.012619458138933,0.0,0,False
2024-12-14,1.012619458138933,1.012619458138933,0.0,0,False
2024-12-15,1.012619458138933,1.0091915465544077,-0.3385192292102879,2,True
2024-12-16,1.0091915465544077,1.0078207210611754,-0.13583402456278648,0,True
2024-12-17,1.0078207210611754,1.0078207210611754,0.0,0,False
2024-12-18,1.0078207210611754,1.0053052555601818,-0.24959454081723287,1,True
2024-12-19,1.0053052555601818,1.0062613517340857,0.09510506073810987,1,True
2024-12-20,1.0062613517340857,1.0088440938758638,0.25666713099208316,2,True
2024-12-21,1.0088440938758638,1.0088440938758638,0.0,0,False
2024-12-22,1.0088440938758638,1.0088440938758638,0.0,0,False
2024-12-23,1.0088440938758638,1.0088440938758638,0.0,0,False
2024-12-24,1.0088440938758638,1.0088440938758638,0.0,0,False
2024-12-25,1.0088440938758638,1.0140783223065566,0.5188342244819566,1,True
2024-12-26,1.0140783223065566,1.0132964656785608,-0.07710022103789571,1,True
2024-12-27,1.0132964656785608,1.0142774636509018,0.09681253271558443,0,True
2024-12-28,1.0142774636509018,1.0142774636509018,0.0,0,False
2024-12-29,1.0142774636509018,1.0142774636509018,0.0,0,False
2024-12-30,1.0142774636509018,1.013824985436232,-0.04461089109099037,1,True
2024-12-31,1.013824985436232,1.013824985436232,0.0,0,False
