day,start_equity,end_equity,return_pct,entries,active
2021-09-02,1.0,1.0,0.0,0,False
2021-09-03,1.0,1.0,0.0,0,False
2021-09-04,1.0,1.0,0.0,0,False
2021-09-05,1.0,1.0,0.0,0,False
2021-09-06,1.0,1.0,0.0,0,False
2021-09-07,1.0,1.0,0.0,0,False
2021-09-08,1.0,1.0,0.0,0,False
2021-09-09,1.0,1.0,0.0,0,False
2021-09-10,1.0,1.0,0.0,0,False
2021-09-11,1.0,1.0,0.0,0,False
2021-09-12,1.0,1.0,0.0,0,False
2021-09-13,1.0,1.0,0.0,0,False
2021-09-14,1.0,1.0,0.0,0,False
2021-09-15,1.0,1.0,0.0,0,False
2021-09-16,1.0,1.0,0.0,0,False
2021-09-17,1.0,1.0,0.0,0,False
2021-09-18,1.0,1.0,0.0,0,False
2021-09-19,1.0,1.0,0.0,0,False
2021-09-20,1.0,1.0,0.0,0,False
2021-09-21,1.0,1.0,0.0,0,False
2021-09-22,1.0,1.0,0.0,0,False
2021-09-23,1.0,1.0,0.0,0,False
2021-09-24,1.0,1.0,0.0,0,False
2021-09-25,1.0,1.0,0.0,0,False
2021-09-26,1.0,1.0,0.0,0,False
2021-09-27,1.0,1.0,0.0,0,False
2021-09-28,1.0,1.0,0.0,0,False
2021-09-29,1.0,1.0,0.0,0,False
2021-09-30,1.0,1.0,0.0,0,False
2021-10-01,1.0,1.0,0.0,0,False
2021-10-02,1.0,1.0,0.0,0,False
2021-10-03,1.0,1.0,0.0,0,False
2021-10-04,1.0,1.0,0.0,0,False
2021-10-05,1.0,0.9995269898820623,-0.04730101179376556,1,True
2021-10-06,0.9995269898820623,1.001156298989327,0.1630080151669544,3,True
2021-10-07,1.001156298989327,0.9918318828166905,-0.9313646812240561,2,True
2021-10-08,0.9918318828166905,0.9913736079937506,-0.04620488924377275,1,True
2021-10-09,0.9913736079937506,0.9930088750019405,0.16494962091022636,3,True
2021-10-10,0.9930088750019405,0.9870089939684807,-0.6042122265471184,1,True
2021-10-11,0.9870089939684807,0.9870089939684807,0.0,0,False
2021-10-12,0.9870089939684807,0.9870089939684807,0.0,0,False
2021-10-13,0.9870089939684807,1.002674695219515,1.5871893110159796,4,True
2021-10-14,1.002674695219515,1.0163419229780377,1.3630769604224158,0,True
2021-10-15,1.0163419229780377,1.017387712270915,0.10289738809681204,4,True
2021-10-16,1.017387712270915,1.0314307659205295,1.3803050184544752,2,True
2021-10-17,1.0314307659205295,1.0314307659205295,0.0,0,False
2021-10-18,1.0314307659205295,1.0341485896086902,0.2635003509649181,1,True
2021-10-19,1.0341485896086902,1.0341485896086902,0.0,0,False
2021-10-20,1.0341485896086902,1.0341485896086902,0.0,0,False
2021-10-21,1.0341485896086902,1.0341485896086902,0.0,0,False
2021-10-22,1.0341485896086902,1.0341485896086902,0.0,0,False
2021-10-23,1.0341485896086902,1.0341485896086902,0.0,0,False
2021-10-24,1.0341485896086902,1.0341485896086902,0.0,0,False
2021-10-25,1.0341485896086902,1.0477155340451998,1.3118950770549587,2,True
2021-10-26,1.0477155340451998,1.0483823311433442,0.06364295235463668,0,True
2021-10-27,1.0483823311433442,1.0433282277500706,-0.48208589968906645,7,True
2021-10-28,1.0433282277500706,1.0400423835788264,-0.3149386821758027,3,True
2021-10-29,1.0400423835788264,1.0341454576447644,-0.5669890022914736,0,True
2021-10-30,1.0341454576447644,1.0346322587345493,0.0470727871196841,2,True
2021-10-31,1.0346322587345493,1.0284038336986872,-0.6019940885547248,1,True
2021-11-01,1.0284038336986872,1.0381095014677542,0.9437603644630865,2,True
2021-11-02,1.0381095014677542,1.034019183992197,-0.39401599443738,1,True
2021-11-03,1.034019183992197,1.0333991064324943,-0.05996770362699522,1,True
2021-11-04,1.0333991064324943,1.0562996284017425,2.2160384914890807,1,True
2021-11-05,1.0562996284017425,1.038844571253926,-1.6524721469633796,3,True
2021-11-06,1.038844571253926,1.031660412089264,-0.6915528427886342,2,True
2021-11-07,1.031660412089264,1.031660412089264,0.0,0,False
2021-11-08,1.031660412089264,1.031660412089264,0.0,0,False
2021-11-09,1.031660412089264,1.031660412089264,0.0,0,False
2021-11-10,1.031660412089264,1.031660412089264,0.0,0,False
2021-11-11,1.031660412089264,1.0189366738936414,-1.2333262037122483,12,True
2021-11-12,1.0189366738936414,1.0160162493400327,-0.28661492204897776,1,True
2021-11-13,1.0160162493400327,1.0153198558537664,-0.06854156975526493,1,True
2021-11-14,1.0153198558537664,1.0153198558537664,0.0,0,False
2021-11-15,1.0153198558537664,1.0153198558537664,0.0,0,False
2021-11-16,1.0153198558537664,1.035551693505297,1.9926565539800434,7,True
2021-11-17,1.035551693505297,1.0225619507716162,-1.254378976457582,0,True
2021-11-18,1.0225619507716162,1.011793643509358,-1.0530713815561477,4,True
2021-11-19,1.011793643509358,1.0279969804676232,1.6014468031311901,5,True
2021-11-20,1.0279969804676232,1.0270640681419836,-0.09075049278989278,0,True
2021-11-21,1.0270640681419836,1.0246364572010205,-0.23636411946089675,1,True
2021-11-22,1.0246364572010205,1.01235296863597,-1.1988143188468081,5,True
2021-11-23,1.01235296863597,1.009885371660921,-0.2437486777337905,0,True
2021-11-24,1.009885371660921,1.0055361516932977,-0.43066471598359746,2,True
2021-11-25,1.0055361516932977,0.9998044836261055,-0.5700111385891216,5,True
2021-11-26,0.9998044836261055,0.9645057466686585,-3.5305639788116405,11,True
2021-11-27,0.9645057466686585,0.9609859002955116,-0.36493783321709383,0,True
2021-11-28,0.9609859002955116,0.9548573156169154,-0.6377392921906089,7,True
2021-11-29,0.9548573156169154,0.946940397104992,-0.8291205798437562,1,True
2021-11-30,0.946940397104992,0.9380219699470976,-0.9418150482501275,3,True
2021-12-01,0.9380219699470976,0.9396076958121179,0.16904997066429228,3,True
2021-12-02,0.9396076958121179,0.9382873482679217,-0.1405211504845072,6,True
2021-12-03,0.9382873482679217,0.9327400742016053,-0.5912127107497112,2,True
2021-12-04,0.9327400742016053,0.8670308811354334,-7.0447485728987065,22,True
2021-12-05,0.8670308811354334,0.8703455106652118,0.3822965942617662,3,True
2021-12-06,0.8703455106652118,0.865316916973265,-0.577769820183649,15,True
2021-12-07,0.865316916973265,0.8908582700095318,2.9516761472324182,0,True
2021-12-08,0.8908582700095318,0.8938097737142338,0.33131013137144283,2,True
2021-12-09,0.8938097737142338,0.8893952664562893,-0.49389785027745825,2,True
2021-12-10,0.8893952664562893,0.8761560511943167,-1.4885637197871504,4,True
2021-12-11,0.8761560511943167,0.8698420344922875,-0.7206497853233351,2,True
2021-12-12,0.8698420344922875,0.8698420344922875,0.0,0,False
2021-12-13,0.8698420344922875,0.8643750804280315,-0.6284996410235499,2,True
2021-12-14,0.8643750804280315,0.8630802241144397,-0.149802596455062,1,True
2021-12-15,0.8630802241144397,0.8632703055763122,0.02202361455652113,1,True
2021-12-16,0.8632703055763122,0.8632703055763122,0.0,0,False
2021-12-17,0.8632703055763122,0.860175047763776,-0.3585502469553692,5,True
2021-12-18,0.860175047763776,0.8598145124337819,-0.041914181413571505,1,True
2021-12-19,0.8598145124337819,0.85525082650487,-0.5307756339206215,1,True
2021-12-20,0.85525082650487,0.85525082650487,0.0,0,False
2021-12-21,0.85525082650487,0.8522893328342628,-0.34627194488778823,1,True
2021-12-22,0.8522893328342628,0.8517856749394623,-0.0590947082636295,0,True
2021-12-23,0.8517856749394623,0.8517856749394623,0.0,0,False
2021-12-24,0.8517856749394623,0.8517856749394623,0.0,0,False
2021-12-25,0.8517856749394623,0.8555041119767124,0.4365460874314886,2,True
2021-12-26,0.8555041119767124,0.8542937814045848,-0.141475716502526,0,True
2021-12-27,0.8542937814045848,0.8542937814045848,0.0,0,False
2021-12-28,0.8542937814045848,0.8516985662950658,-0.30378485317452686,1,True
2021-12-29,0.8516985662950658,0.8516985662950658,0.0,0,False
2021-12-30,0.8516985662950658,0.8516985662950658,0.0,0,False
2021-12-31,0.8516985662950658,0.8516985662950658,0.0,0,False
2022-01-01,0.8516985662950658,0.8516985662950658,0.0,0,False
2022-01-02,0.8516985662950658,0.8516985662950658,0.0,0,False
2022-01-03,0.8516985662950658,0.8516985662950658,0.0,0,False
2022-01-04,0.8516985662950658,0.8516985662950658,0.0,0,False
2022-01-05,0.8516985662950658,0.8518687310195001,0.01997945413652058,1,True
2022-01-06,0.8518687310195001,0.8291517671070955,-2.666721184285914,8,True
2022-01-07,0.8291517671070955,0.8213698096068487,-0.9385444027211087,5,True
2022-01-08,0.8213698096068487,0.8213698096068487,0.0,0,False
2022-01-09,0.8213698096068487,0.8221115257241804,0.09030233503308782,1,True
2022-01-10,0.8221115257241804,0.821267433523358,-0.10267368531039489,0,True
2022-01-11,0.821267433523358,0.821267433523358,0.0,0,False
2022-01-12,0.821267433523358,0.821267433523358,0.0,0,False
2022-01-13,0.821267433523358,0.821267433523358,0.0,0,False
2022-01-14,0.821267433523358,0.821267433523358,0.0,0,False
2022-01-15,0.821267433523358,0.8217887388542654,0.06347570957134785,1,True
2022-01-16,0.8217887388542654,0.8209762688525059,-0.09886604224977891,0,True
2022-01-17,0.8209762688525059,0.8234609232412677,0.30264631062171254,1,True
2022-01-18,0.8234609232412677,0.8234609232412677,0.0,0,False
2022-01-19,0.8234609232412677,0.8212988833448545,-0.26255525130484125,1,True
2022-01-20,0.8212988833448545,0.8212988833448545,0.0,0,False
2022-01-21,0.8212988833448545,0.7964956757252682,-3.0199977283022372,8,True
2022-01-22,0.7964956757252682,0.7690040062123881,-3.451577999823663,17,True
2022-01-23,0.7690040062123881,0.770490353832338,0.19328216861582703,0,True
2022-01-24,0.770490353832338,0.7602709078506149,-1.3263561225513865,5,True
2022-01-25,0.7602709078506149,0.7668931467074904,0.8710367302620314,0,True
2022-01-26,0.7668931467074904,0.7677503572400122,0.11177704954099532,1,True
2022-01-27,0.7677503572400122,0.7623015525381929,-0.7097104743014726,8,True
2022-01-28,0.7623015525381929,0.7574680407547553,-0.6340682066491521,0,True
2022-01-29,0.7574680407547553,0.7574680407547553,0.0,0,False
2022-01-30,0.7574680407547553,0.7646190493032966,0.9440673617616913,1,True
2022-01-31,0.7646190493032966,0.7631469345711511,-0.1925291729897194,0,True
2022-02-01,0.7631469345711511,0.7631469345711511,0.0,0,False
2022-02-02,0.7631469345711511,0.7638995045674265,0.09861403645659017,1,True
2022-02-03,0.7638995045674265,0.7646122410917878,0.09330239384890415,4,True
2022-02-04,0.7646122410917878,0.7692621455172366,0.6081388938802723,0,True
2022-02-05,0.7692621455172366,0.7692621455172366,0.0,0,False
2022-02-06,0.7692621455172366,0.7692621455172366,0.0,0,False
2022-02-07,0.7692621455172366,0.7692621455172366,0.0,0,False
2022-02-08,0.7692621455172366,0.7651590507650201,-0.533380561636454,3,True
2022-02-09,0.7651590507650201,0.7636374428965017,-0.1988616441244595,2,True
2022-02-10,0.7636374428965017,0.7699406748371462,0.8254220637395893,5,True
2022-02-11,0.7699406748371462,0.7642491377105645,-0.739217619303667,0,True
2022-02-12,0.7642491377105645,0.7454271795599524,-2.4628039760694165,5,True
2022-02-13,0.7454271795599524,0.7454271795599524,0.0,0,False
2022-02-14,0.7454271795599524,0.7454271795599524,0.0,0,False
2022-02-15,0.7454271795599524,0.7454271795599524,0.0,0,False
2022-02-16,0.7454271795599524,0.7454271795599524,0.0,0,False
2022-02-17,0.7454271795599524,0.7454271795599524,0.0,0,False
2022-02-18,0.7454271795599524,0.7454271795599524,0.0,0,False
2022-02-19,0.7454271795599524,0.7454271795599524,0.0,0,False
2022-02-20,0.7454271795599524,0.7454271795599524,0.0,0,False
2022-02-21,0.7454271795599524,0.7454271795599524,0.0,0,False
2022-02-22,0.7454271795599524,0.7401074525411666,-0.7136481154237262,2,True
2022-02-23,0.7401074525411666,0.7401074525411666,0.0,0,False
2022-02-24,0.7401074525411666,0.7245233862747193,-2.105649147693245,9,True
2022-02-25,0.7245233862747193,0.7409705259913238,2.270063331036254,0,True
2022-02-26,0.7409705259913238,0.7409705259913238,0.0,0,False
2022-02-27,0.7409705259913238,0.7409705259913238,0.0,0,False
2022-02-28,0.7409705259913238,0.7378253503149657,-0.42446704234967436,2,True
2022-03-01,0.7378253503149657,0.7378253503149657,0.0,0,False
2022-03-02,0.7378253503149657,0.7378253503149657,0.0,0,False
2022-03-03,0.7378253503149657,0.7378253503149657,0.0,0,False
2022-03-04,0.7378253503149657,0.7431006581850617,0.7149805665858544,3,True
2022-03-05,0.7431006581850617,0.7371303698396804,-0.8034292904494311,3,True
2022-03-06,0.7371303698396804,0.7324433697984232,-0.6358441102184642,4,True
2022-03-07,0.7324433697984232,0.7303040391983746,-0.2920813660498234,0,True
2022-03-08,0.7303040391983746,0.726665844062614,-0.4981754092109436,1,True
2022-03-09,0.726665844062614,0.7358218591826051,1.2600035070868376,2,True
2022-03-10,0.7358218591826051,0.7324680376474658,-0.45579259344985523,3,True
2022-03-11,0.7324680376474658,0.7315109581321919,-0.13066502100868016,1,True
2022-03-12,0.7315109581321919,0.7315109581321919,0.0,0,False
2022-03-13,0.7315109581321919,0.7315109581321919,0.0,0,False
2022-03-14,0.7315109581321919,0.7284463986556964,-0.41893555283443185,1,True
2022-03-15,0.7284463986556964,0.7294820211617601,0.1421686630580954,1,True
2022-03-16,0.7294820211617601,0.7308947284321096,0.1936589565428415,1,True
2022-03-17,0.7308947284321096,0.7275579951931055,-0.456527200047252,1,True
2022-03-18,0.7275579951931055,0.7266043550416841,-0.1310741078679678,0,True
2022-03-19,0.7266043550416841,0.7266043550416841,0.0,0,False
2022-03-20,0.7266043550416841,0.7235183131877398,-0.4247210786077926,1,True
2022-03-21,0.7235183131877398,0.7248144078804921,0.17913778671916347,4,True
2022-03-22,0.7248144078804921,0.7241532377201989,-0.09121923531109077,0,True
2022-03-23,0.7241532377201989,0.7236668184231365,-0.0671707687993961,2,True
2022-03-24,0.7236668184231365,0.7231161786762481,-0.07609023004374604,0,True
2022-03-25,0.7231161786762481,0.7231161786762481,0.0,0,False
2022-03-26,0.7231161786762481,0.724478480974127,0.18839328147419732,1,True
2022-03-27,0.724478480974127,0.7231867399812437,-0.178299428734785,1,True
2022-03-28,0.7231867399812437,0.7222633429190213,-0.12768445702507902,1,True
2022-03-29,0.7222633429190213,0.7263320255957167,0.5633239893155784,1,True
2022-03-30,0.7263320255957167,0.725189914245367,-0.15724369986480635,6,True
2022-03-31,0.725189914245367,0.7277298554762277,0.35024497458762127,6,True
2022-04-01,0.7277298554762277,0.7385158685076485,1.482145187565842,7,True
2022-04-02,0.7385158685076485,0.7417941978188439,0.44390776840315116,2,True
2022-04-03,0.7417941978188439,0.7371665224638249,-0.6238489554954985,2,True
2022-04-04,0.7371665224638249,0.7334847050806363,-0.4994553158603532,1,True
2022-04-05,0.7334847050806363,0.7313203317201793,-0.2950809124532605,6,True
2022-04-06,0.7313203317201793,0.7111522311050718,-2.7577656110926108,15,True
2022-04-07,0.7111522311050718,0.7107454057026505,-0.05720651424928613,2,True
2022-04-08,0.7107454057026505,0.7149477832556502,0.59126341433684,0,True
2022-04-09,0.7149477832556502,0.7149477832556502,0.0,0,False
2022-04-10,0.7149477832556502,0.7149477832556502,0.0,0,False
2022-04-11,0.7149477832556502,0.7071832248262379,-1.0860315412203891,6,True
2022-04-12,0.7071832248262379,0.7045220469757789,-0.3763066991744335,0,True
2022-04-13,0.7045220469757789,0.7051735441681202,0.09247364154718607,1,True
2022-04-14,0.7051735441681202,0.7051735441681202,0.0,0,False
2022-04-15,0.7051735441681202,0.7065868721903663,0.2004227234465361,1,True
2022-04-16,0.7065868721903663,0.7065868721903663,0.0,0,False
2022-04-17,0.7065868721903663,0.7079594739149712,0.19425802808221704,1,True
2022-04-18,0.7079594739149712,0.7066509090571776,-0.18483612494896162,8,True
2022-04-19,0.7066509090571776,0.7149139489829631,1.1693241768853113,1,True
2022-04-20,0.7149139489829631,0.7149139489829631,0.0,0,False
2022-04-21,0.7149139489829631,0.7151164044353018,0.028318856084252886,3,True
2022-04-22,0.7151164044353018,0.7119312773924391,-0.4453998010824356,1,True
2022-04-23,0.7119312773924391,0.7052534116841681,-0.9379930226874889,2,True
2022-04-24,0.7052534116841681,0.7052534116841681,0.0,0,False
2022-04-25,0.7052534116841681,0.7033641849356667,-0.26787913637877914,3,True
2022-04-26,0.7033641849356667,0.6991998075051334,-0.5920656069393293,2,True
2022-04-27,0.6991998075051334,0.6964276566587276,-0.39647477253995644,0,True
2022-04-28,0.6964276566587276,0.6981187178149282,0.24281935676044863,1,True
2022-04-29,0.6981187178149282,0.6923881193660284,-0.8208630284024188,2,True
2022-04-30,0.6923881193660284,0.6888834795712013,-0.5061669455039164,2,True
2022-05-01,0.6888834795712013,0.6948260305883219,0.8626351470671922,7,True
2022-05-02,0.6948260305883219,0.695626947326004,0.1152686719298579,1,True
2022-05-03,0.695626947326004,0.6964619850961019,0.12004103252580833,3,True
2022-05-04,0.6964619850961019,0.6922197848335092,-0.6091072238504691,1,True
2022-05-05,0.6922197848335092,0.6922197848335092,0.0,0,False
2022-05-06,0.6922197848335092,0.6754331055779498,-2.425050485893998,8,True
2022-05-07,0.6754331055779498,0.6692696584282112,-0.9125177754597535,2,True
2022-05-08,0.6692696584282112,0.6629673646862299,-0.9416673328329739,3,True
2022-05-09,0.6629673646862299,0.6552826077252988,-1.1591455884963686,5,True
2022-05-10,0.6552826077252988,0.6516367284173219,-0.5563827370045571,17,True
2022-05-11,0.6516367284173219,0.6349380610371547,-2.5625730797471324,30,True
2022-05-12,0.6349380610371547,0.6213782681398687,-2.135608767119168,1,True
2022-05-13,0.6213782681398687,0.6616729407283471,6.4847251110185855,6,True
2022-05-14,0.6616729407283471,0.6323976053249691,-4.424441986573113,11,True
2022-05-15,0.6323976053249691,0.6402589681819374,1.2431044632005728,2,True
2022-05-16,0.6402589681819374,0.6433250536596572,0.4788820821090889,11,True
2022-05-17,0.6433250536596572,0.6416671471481599,-0.25770899206646325,4,True
2022-05-18,0.6416671471481599,0.6304631954701583,-1.7460690839162796,2,True
2022-05-19,0.6304631954701583,0.6293903148370185,-0.17017339645650775,7,True
2022-05-20,0.6293903148370185,0.6262478194011029,-0.4992919912867322,1,True
2022-05-21,0.6262478194011029,0.6262478194011029,0.0,0,False
2022-05-22,0.6262478194011029,0.6262478194011029,0.0,0,False
2022-05-23,0.6262478194011029,0.6275327546293301,0.2051799923959985,4,True
2022-05-24,0.6275327546293301,0.6106488014513203,-2.6905293872640623,14,True
2022-05-25,0.6106488014513203,0.6100163913080245,-0.10356364276695729,1,True
2022-05-26,0.6100163913080245,0.5999511989095132,-1.649987203938752,13,True
2022-05-27,0.5999511989095132,0.5920046886135995,-1.3245261131834662,4,True
2022-05-28,0.5920046886135995,0.5915184388041548,-0.0821361416213473,0,True
2022-05-29,0.5915184388041548,0.5951166276903666,0.6082969946779704,4,True
2022-05-30,0.5951166276903666,0.5934981556720534,-0.27195879647899934,0,True
2022-05-31,0.5934981556720534,0.5917825216421562,-0.2890715014867373,6,True
2022-06-01,0.5917825216421562,0.5886621874169865,-0.5272771856307923,2,True
2022-06-02,0.5886621874169865,0.5826788736037214,-1.0164257092033613,7,True
2022-06-03,0.5826788736037214,0.5868723147940365,0.7196830673437127,0,True
2022-06-04,0.5868723147940365,0.5868723147940365,0.0,0,False
2022-06-05,0.5868723147940365,0.5868723147940365,0.0,0,False
2022-06-06,0.5868723147940365,0.5885240629344982,0.2814493202054402,1,True
2022-06-07,0.5885240629344982,0.5843350967649495,-0.7117748335831231,5,True
2022-06-08,0.5843350967649495,0.5840549229894589,-0.04794744950999963,5,True
2022-06-09,0.5840549229894589,0.5855576462917511,0.2572914366684165,5,True
2022-06-10,0.5855576462917511,0.5872246813635943,0.2846918800224474,5,True
2022-06-11,0.5872246813635943,0.5830289801883666,-0.7144967349609455,8,True
2022-06-12,0.5830289801883666,0.5683129145663036,-2.524071036281672,15,True
2022-06-13,0.5683129145663036,0.5547825924029268,-2.38078738254649,7,True
2022-06-14,0.5547825924029268,0.5545867057701672,-0.03530872010802932,10,True
2022-06-15,0.5545867057701672,0.551185160851753,-0.6133477205679583,8,True
2022-06-16,0.551185160851753,0.5515560034697897,0.0672809510081418,7,True
2022-06-17,0.5515560034697897,0.5501036748355032,-0.2633148084963399,1,True
2022-06-18,0.5501036748355032,0.5452692882815529,-0.8788137173226351,6,True
2022-06-19,0.5452692882815529,0.5454024984471908,0.024430161115018834,3,True
2022-06-20,0.5454024984471908,0.5485550761792028,0.5780277393278688,1,True
2022-06-21,0.5485550761792028,0.5473907166108593,-0.2122593735625622,0,True
2022-06-22,0.5473907166108593,0.5481465308027444,0.13807581476075192,5,True
2022-06-23,0.5481465308027444,0.5429847803652633,-0.9416734663853288,1,True
2022-06-24,0.5429847803652633,0.5390962644828112,-0.7161371778848569,2,True
2022-06-25,0.5390962644828112,0.5395109723196494,0.07692649052875034,4,True
2022-06-26,0.5395109723196494,0.539142387250991,-0.06831836377185763,0,True
2022-06-27,0.539142387250991,0.5367399768982852,-0.44559849299834475,5,True
2022-06-28,0.5367399768982852,0.5341796961179317,-0.4770057924786797,4,True
2022-06-29,0.5341796961179317,0.5332548995780965,-0.1731246145362797,5,True
2022-06-30,0.5332548995780965,0.5273068856050788,-1.115416656785273,3,True
2022-07-01,0.5273068856050788,0.5276815066006554,0.07104420704591163,1,True
2022-07-02,0.5276815066006554,0.5296962899103655,0.38181806345449765,1,True
2022-07-03,0.5296962899103655,0.5310096405374114,0.24794408646284793,1,True
2022-07-04,0.5310096405374114,0.5313993281524723,0.07338616577026169,0,True
2022-07-05,0.5313993281524723,0.5316915798465787,0.054996624689485074,1,True
2022-07-06,0.5316915798465787,0.5335630205149005,0.3519786167879069,0,True
2022-07-07,0.5335630205149005,0.5335630205149005,0.0,0,False
2022-07-08,0.5335630205149005,0.5335630205149005,0.0,0,False
2022-07-09,0.5335630205149005,0.5335630205149005,0.0,0,False
2022-07-10,0.5335630205149005,0.5335630205149005,0.0,0,False
2022-07-11,0.5335630205149005,0.5309021621270994,-0.4986961774887,1,True
2022-07-12,0.5309021621270994,0.5323516286704972,0.27301952163660825,2,True
2022-07-13,0.5323516286704972,0.5388967162362345,1.2294669938519798,5,True
2022-07-14,0.5388967162362345,0.5483817801832558,1.760089393987574,0,True
2022-07-15,0.5483817801832558,0.5483817801832558,0.0,0,False
2022-07-16,0.5483817801832558,0.5483817801832558,0.0,0,False
2022-07-17,0.5483817801832558,0.5483817801832558,0.0,0,False
2022-07-18,0.5483817801832558,0.5492949109462274,0.1665136946501944,1,True
2022-07-19,0.5492949109462274,0.5485824599752136,-0.12970281661385252,0,True
2022-07-20,0.5485824599752136,0.5496527439975102,0.19509993490220978,2,True
2022-07-21,0.5496527439975102,0.5438592915894461,-1.0540204649811202,7,True
2022-07-22,0.5438592915894461,0.5438592915894461,0.0,0,False
2022-07-23,0.5438592915894461,0.5467426357802526,0.5301636352262884,2,True
2022-07-24,0.5467426357802526,0.5476089898468964,0.15845738194670833,3,True
2022-07-25,0.5476089898468964,0.5482182459522735,0.11125750611717944,1,True
2022-07-26,0.5482182459522735,0.5471596593750587,-0.1930958309087294,1,True
2022-07-27,0.5471596593750587,0.547614762088461,0.08317548737457603,1,True
2022-07-28,0.547614762088461,0.547614762088461,0.0,0,False
2022-07-29,0.547614762088461,0.5498552652186337,0.409138556022115,2,True
2022-07-30,0.5498552652186337,0.549888385967364,0.006023539433996916,1,True
2022-07-31,0.549888385967364,0.5491902314243835,-0.12696295480987274,1,True
2022-08-01,0.5491902314243835,0.5495304858375369,0.06195565647098,1,True
2022-08-02,0.5495304858375369,0.5461580959209483,-0.6136856832335225,5,True
2022-08-03,0.5461580959209483,0.5476845286084296,0.2794855004222496,1,True
2022-08-04,0.5476845286084296,0.5464085494508053,-0.23297703166207384,0,True
2022-08-05,0.5464085494508053,0.5494433943683238,0.5554168068140131,2,True
2022-08-06,0.5494433943683238,0.5494433943683238,0.0,0,False
2022-08-07,0.5494433943683238,0.5492742861044516,-0.030778104824902286,2,True
2022-08-08,0.5492742861044516,0.5486060654500201,-0.12165518600382175,0,True
2022-08-09,0.5486060654500201,0.5485274650195036,-0.014327298851879444,6,True
2022-08-10,0.5485274650195036,0.5503534433029635,0.33288730280718326,2,True
2022-08-11,0.5503534433029635,0.5513529738476701,0.18161611540175038,1,True
2022-08-12,0.5513529738476701,0.5501537041360726,-0.21751396446242355,4,True
2022-08-13,0.5501537041360726,0.548835898152457,-0.23953414722253097,0,True
2022-08-14,0.548835898152457,0.548835898152457,0.0,0,False
2022-08-15,0.548835898152457,0.548835898152457,0.0,0,False
2022-08-16,0.548835898152457,0.5457452032281253,-0.5631364374553471,2,True
2022-08-17,0.5457452032281253,0.5435519327100156,-0.4018854412528694,1,True
2022-08-18,0.5435519327100156,0.5412984030832975,-0.4145932506361527,1,True
2022-08-19,0.5412984030832975,0.5295790626313206,-2.165042495086289,11,True
2022-08-20,0.5295790626313206,0.5297077451462845,0.024299018606299683,1,True
2022-08-21,0.5297077451462845,0.5297077451462845,0.0,0,False
2022-08-22,0.5297077451462845,0.5297077451462845,0.0,0,False
2022-08-23,0.5297077451462845,0.5297077451462845,0.0,0,False
2022-08-24,0.5297077451462845,0.5297077451462845,0.0,0,False
2022-08-25,0.5297077451462845,0.5284605328788436,-0.2354529037698727,1,True
2022-08-26,0.5284605328788436,0.5282087010051415,-0.04765386590560583,1,True
2022-08-27,0.5282087010051415,0.5217339345846602,-1.2257970018593523,6,True
2022-08-28,0.5217339345846602,0.5213832302883665,-0.06721899287093214,0,True
2022-08-29,0.5213832302883665,0.5228465561989495,0.28066225102285625,2,True
2022-08-30,0.5228465561989495,0.5237707645974965,0.17676474820182975,1,True
2022-08-31,0.5237707645974965,0.5222752529071633,-0.2855279048425863,2,True
2022-09-01,0.5222752529071633,0.5187213337275137,-0.680468614943408,1,True
2022-09-02,0.5187213337275137,0.5187213337275137,0.0,0,False
2022-09-03,0.5187213337275137,0.5187213337275137,0.0,0,False
2022-09-04,0.5187213337275137,0.5187213337275137,0.0,0,False
2022-09-05,0.5187213337275137,0.5187213337275137,0.0,0,False
2022-09-06,0.5187213337275137,0.5168416287961632,-0.3623727826736922,1,True
2022-09-07,0.5168416287961632,0.5111268384636823,-1.1057140164564272,5,True
2022-09-08,0.5111268384636823,0.5111268384636823,0.0,0,False
2022-09-09,0.5111268384636823,0.5111268384636823,0.0,0,False
2022-09-10,0.5111268384636823,0.5121395596538171,0.1981350056238007,1,True
2022-09-11,0.5121395596538171,0.5150113714796596,0.5607479000028226,0,True
2022-09-12,0.5150113714796596,0.5150113714796596,0.0,0,False
2022-09-13,0.5150113714796596,0.5091171771123726,-1.1444784899317106,4,True
2022-09-14,0.5091171771123726,0.5119796584113295,0.5622441016805757,3,True
2022-09-15,0.5119796584113295,0.5098768011993916,-0.4107306173966152,3,True
2022-09-16,0.5098768011993916,0.5071360467345959,-0.5375326860034835,3,True
2022-09-17,0.5071360467345959,0.5066264019549056,-0.10049468638086978,1,True
2022-09-18,0.5066264019549056,0.5064963793991774,-0.02566438606960153,0,True
2022-09-19,0.5064963793991774,0.5073493911394382,0.16841418319173407,11,True
2022-09-20,0.5073493911394382,0.5064606929504076,-0.1751649266858668,0,True
2022-09-21,0.5064606929504076,0.5064606929504076,0.0,0,False
2022-09-22,0.5064606929504076,0.5077046860687876,0.24562481070999898,2,True
2022-09-23,0.5077046860687876,0.5046708591745915,-0.5975573945726786,2,True
2022-09-24,0.5046708591745915,0.5046708591745915,0.0,0,False
2022-09-25,0.5046708591745915,0.5046708591745915,0.0,0,False
2022-09-26,0.5046708591745915,0.5046708591745915,0.0,0,False
2022-09-27,0.5046708591745915,0.5046708591745915,0.0,0,False
2022-09-28,0.5046708591745915,0.5046708591745915,0.0,0,False
2022-09-29,0.5046708591745915,0.5046708591745915,0.0,0,False
2022-09-30,0.5046708591745915,0.5034739853952436,-0.2371592806657219,1,True
2022-10-01,0.5034739853952436,0.5035137049960702,0.007889106881142638,0,True
2022-10-02,0.5035137049960702,0.5035137049960702,0.0,0,False
2022-10-03,0.5035137049960702,0.5035137049960702,0.0,0,False
2022-10-04,0.5035137049960702,0.5035137049960702,0.0,0,False
2022-10-05,0.5035137049960702,0.5035137049960702,0.0,0,False
2022-10-06,0.5035137049960702,0.5035137049960702,0.0,0,False
2022-10-07,0.5035137049960702,0.5035137049960702,0.0,0,False
2022-10-08,0.5035137049960702,0.5021406756148955,-0.2726895747922842,1,True
2022-10-09,0.5021406756148955,0.5021406756148955,0.0,0,False
2022-10-10,0.5021406756148955,0.5021406756148955,0.0,0,False
2022-10-11,0.5021406756148955,0.5132908632963009,2.2205306645894485,6,True
2022-10-12,0.5132908632963009,0.5121348832562173,-0.2252095493498696,2,True
2022-10-13,0.5121348832562173,0.5099843706678462,-0.41991136684497166,1,True
2022-10-14,0.5099843706678462,0.5099843706678462,0.0,0,False
2022-10-15,0.5099843706678462,0.5099843706678462,0.0,0,False
2022-10-16,0.5099843706678462,0.5099843706678462,0.0,0,False
2022-10-17,0.5099843706678462,0.5099843706678462,0.0,0,False
2022-10-18,0.5099843706678462,0.5099843706678462,0.0,0,False
2022-10-19,0.5099843706678462,0.5099843706678462,0.0,0,False
2022-10-20,0.5099843706678462,0.5133068494357251,0.6514863903628987,2,True
2022-10-21,0.5133068494357251,0.5125539669358297,-0.14667298921163807,0,True
2022-10-22,0.5125539669358297,0.5125539669358297,0.0,0,False
2022-10-23,0.5125539669358297,0.5125539669358297,0.0,0,False
2022-10-24,0.5125539669358297,0.5125539669358297,0.0,0,False
2022-10-25,0.5125539669358297,0.5110760731129232,-0.2883391639209476,2,True
2022-10-26,0.5110760731129232,0.5102767486880629,-0.15640028303256504,0,True
2022-10-27,0.5102767486880629,0.5102767486880629,0.0,0,False
2022-10-28,0.5102767486880629,0.5082177945063908,-0.4034975504891736,1,True
2022-10-29,0.5082177945063908,0.5082177945063908,0.0,0,False
2022-10-30,0.5082177945063908,0.5057402869424852,-0.4874893383676082,2,True
2022-10-31,0.5057402869424852,0.5048758818199667,-0.17091877883496087,1,True
2022-11-01,0.5048758818199667,0.5048758818199667,0.0,0,False
2022-11-02,0.5048758818199667,0.5091553673914104,0.847631215025979,3,True
2022-11-03,0.5091553673914104,0.5077574219558884,-0.2745616613420543,3,True
2022-11-04,0.5077574219558884,0.5193663857692433,2.2863208515273126,5,True
2022-11-05,0.5193663857692433,0.5187584468847746,-0.11705395287919806,2,True
2022-11-06,0.5187584468847746,0.5172452356284825,-0.29169862493404475,2,True
2022-11-07,0.5172452356284825,0.5098914689906368,-1.4217176169656676,8,True
2022-11-08,0.5098914689906368,0.49427158714190306,-3.063373835152461,13,True
2022-11-09,0.49427158714190306,0.4613564977985396,-6.659312450811317,19,True
2022-11-10,0.4613564977985396,0.4642411478170382,0.625254013385157,12,True
2022-11-11,0.4642411478170382,0.4631791884881461,-0.22875165932310093,18,True
2022-11-12,0.4631791884881461,0.4569068272441675,-1.354197554612091,6,True
2022-11-13,0.4569068272441675,0.455646933962848,-0.27574402617673854,1,True
2022-11-14,0.455646933962848,0.46317470639840524,1.652106461045788,7,True
2022-11-15,0.46317470639840524,0.4589716336472485,-0.9074486782405189,1,True
2022-11-16,0.4589716336472485,0.4575452704605426,-0.31077371282648425,2,True
2022-11-17,0.4575452704605426,0.45864579029897784,0.2405269837731039,1,True
2022-11-18,0.45864579029897784,0.4595272616051491,0.19218999167018858,0,True
2022-11-19,0.4595272616051491,0.4599060721399645,0.08243483389693829,3,True
2022-11-20,0.4599060721399645,0.457227220064098,-0.5824780837099364,3,True
2022-11-21,0.457227220064098,0.44728680128491644,-2.1740653974599344,8,True
2022-11-22,0.44728680128491644,0.4412198956462346,-1.3563793121669332,4,True
2022-11-23,0.4412198956462346,0.44645856173616094,1.1873141128990738,1,True
2022-11-24,0.44645856173616094,0.4438844651057887,-0.5765589129620996,2,True
2022-11-25,0.4438844651057887,0.44302493551723315,-0.19363813247006423,2,True
2022-11-26,0.44302493551723315,0.44302493551723315,0.0,0,False
2022-11-27,0.44302493551723315,0.44302493551723315,0.0,0,False
2022-11-28,0.44302493551723315,0.43684251336620566,-1.3955020711891697,4,True
2022-11-29,0.43684251336620566,0.43684251336620566,0.0,0,False
2022-11-30,0.43684251336620566,0.43684251336620566,0.0,0,False
2022-12-01,0.43684251336620566,0.4370600663237559,0.04980123291431493,2,True
2022-12-02,0.4370600663237559,0.4378245898831356,0.17492413933177797,1,True
2022-12-03,0.4378245898831356,0.43771669035806887,-0.024644464372258756,0,True
2022-12-04,0.43771669035806887,0.43771669035806887,0.0,0,False
2022-12-05,0.43771669035806887,0.43771669035806887,0.0,0,False
2022-12-06,0.43771669035806887,0.4385022916741109,0.179477121468552,2,True
2022-12-07,0.4385022916741109,0.4377482043328667,-0.17196884841017557,1,True
2022-12-08,0.4377482043328667,0.4343552752063988,-0.7750869319130049,2,True
2022-12-09,0.4343552752063988,0.43515891785945915,0.18501965992665514,0,True
2022-12-10,0.43515891785945915,0.43515891785945915,0.0,0,False
2022-12-11,0.43515891785945915,0.43515891785945915,0.0,0,False
2022-12-12,0.43515891785945915,0.43444460096321336,-0.16415081179066426,1,True
2022-12-13,0.43444460096321336,0.4348024067244771,0.0823593527161881,1,True
2022-12-14,0.4348024067244771,0.4348024067244771,0.0,0,False
2022-12-15,0.4348024067244771,0.4348024067244771,0.0,0,False
2022-12-16,0.4348024067244771,0.43341868006463274,-0.318242640437183,5,True
2022-12-17,0.43341868006463274,0.4334266937507485,0.001848948022864505,5,True
2022-12-18,0.4334266937507485,0.4334266937507485,0.0,0,False
2022-12-19,0.4334266937507485,0.4312656204478221,-0.49860180143154187,1,True
2022-12-20,0.4312656204478221,0.4312656204478221,0.0,0,False
2022-12-21,0.4312656204478221,0.4312656204478221,0.0,0,False
2022-12-22,0.4312656204478221,0.4312656204478221,0.0,0,False
2022-12-23,0.4312656204478221,0.4312656204478221,0.0,0,False
2022-12-24,0.4312656204478221,0.4312656204478221,0.0,0,False
2022-12-25,0.4312656204478221,0.4312656204478221,0.0,0,False
2022-12-26,0.4312656204478221,0.4312656204478221,0.0,0,False
2022-12-27,0.4312656204478221,0.4312656204478221,0.0,0,False
2022-12-28,0.4312656204478221,0.43307180858441996,0.4188110646803578,4,True
2022-12-29,0.43307180858441996,0.4297932075616073,-0.7570571341342647,0,True
2022-12-30,0.4297932075616073,0.43495202876394207,1.2003031019505395,1,True
2022-12-31,0.43495202876394207,0.43636368896890804,0.3245553788949307,0,True
2023-01-01,0.43636368896890804,0.43636368896890804,0.0,0,False
2023-01-02,0.43636368896890804,0.43652327901988736,0.036572715607108286,1,True
2023-01-03,0.43652327901988736,0.4365622738577484,0.00893304887394919,0,True
2023-01-04,0.4365622738577484,0.4365622738577484,0.0,0,False
2023-01-05,0.4365622738577484,0.4365622738577484,0.0,0,False
2023-01-06,0.4365622738577484,0.4360854783234537,-0.10921592699282279,1,True
2023-01-07,0.4360854783234537,0.4374842935114739,0.3207662849489923,0,True
2023-01-08,0.4374842935114739,0.4374842935114739,0.0,0,False
2023-01-09,0.4374842935114739,0.4370291776893778,-0.10403020836315946,1,True
2023-01-10,0.4370291776893778,0.43607028200955283,-0.2194122792658293,2,True
2023-01-11,0.43607028200955283,0.43235157618251213,-0.8527767152358368,3,True
2023-01-12,0.43235157618251213,0.43235157618251213,0.0,0,False
2023-01-13,0.43235157618251213,0.43229301783937507,-0.0135441493365418,1,True
2023-01-14,0.43229301783937507,0.43445799178856326,0.5008116855573785,4,True
2023-01-15,0.43445799178856326,0.43665867900723704,0.5065362498256842,4,True
2023-01-16,0.43665867900723704,0.433954682317201,-0.6192472107009683,1,True
2023-01-17,0.433954682317201,0.4329912758934975,-0.22200622852118768,0,True
2023-01-18,0.4329912758934975,0.4329912758934975,0.0,0,False
2023-01-19,0.4329912758934975,0.42550677324373243,-1.728557378972695,8,True
2023-01-20,0.42550677324373243,0.42550677324373243,0.0,0,False
2023-01-21,0.42550677324373243,0.42510159364638034,-0.09522283141659704,3,True
2023-01-22,0.42510159364638034,0.42800255006794335,0.6824148544538611,1,True
2023-01-23,0.42800255006794335,0.42816607269006535,0.038205992486739504,1,True
2023-01-24,0.42816607269006535,0.44237822744540617,3.3193089461874603,4,True
2023-01-25,0.44237822744540617,0.4390970311085425,-0.7417174113227842,8,True
2023-01-26,0.4390970311085425,0.4388816254457216,-0.049056506320943605,0,True
2023-01-27,0.4388816254457216,0.43823039083341553,-0.14838502560792222,2,True
2023-01-28,0.43823039083341553,0.43752469343183975,-0.16103342359111705,0,True
2023-01-29,0.43752469343183975,0.43616594690446486,-0.3105531065497602,1,True
2023-01-30,0.43616594690446486,0.434170225067124,-0.457560213378605,5,True
2023-01-31,0.434170225067124,0.4392943898271923,1.1802202141512952,6,True
2023-02-01,0.4392943898271923,0.43575020642304224,-0.8067900447224607,2,True
2023-02-02,0.43575020642304224,0.43575020642304224,0.0,0,False
2023-02-03,0.43575020642304224,0.43991945120836506,0.9567969730977399,2,True
2023-02-04,0.43991945120836506,0.4392218122019657,-0.15858335076639474,0,True
2023-02-05,0.4392218122019657,0.44095655783743287,0.3949588994158315,5,True
2023-02-06,0.44095655783743287,0.43237836672721025,-1.94535968629026,3,True
2023-02-07,0.43237836672721025,0.43096443829822345,-0.32701183449329596,0,True
2023-02-08,0.43096443829822345,0.42789079257809826,-0.713201704591282,3,True
2023-02-09,0.42789079257809826,0.4272234931941685,-0.1559508630482931,8,True
2023-02-10,0.4272234931941685,0.42402570081548036,-0.7485057422239705,9,True
2023-02-11,0.42402570081548036,0.43464550833885074,2.504519773906755,2,True
2023-02-12,0.43464550833885074,0.43972701918535556,1.1691161530520855,1,True
2023-02-13,0.43972701918535556,0.44197284883844684,0.510732694400251,3,True
2023-02-14,0.44197284883844684,0.44184386463027125,-0.029183740248883705,1,True
2023-02-15,0.44184386463027125,0.44195265301981523,0.024621455281503835,0,True
2023-02-16,0.44195265301981523,0.44195265301981523,0.0,0,False
2023-02-17,0.44195265301981523,0.44509523874554374,0.7110684151923508,1,True
2023-02-18,0.44509523874554374,0.44568052715257145,0.13149734170989635,1,True
2023-02-19,0.44568052715257145,0.44614111355966013,0.10334452124962645,1,True
2023-02-20,0.44614111355966013,0.44877721478057386,0.5908671361580797,3,True
2023-02-21,0.44877721478057386,0.4547812635710218,1.3378684551495157,5,True
2023-02-22,0.4547812635710218,0.4552341656760135,0.0995867994726618,1,True
2023-02-23,0.4552341656760135,0.4603785288583454,1.1300476919812619,1,True
2023-02-24,0.4603785288583454,0.4603785288583454,0.0,0,False
2023-02-25,0.4603785288583454,0.4575930054168975,-0.6050506847822601,2,True
2023-02-26,0.4575930054168975,0.4575930054168975,0.0,0,False
2023-02-27,0.4575930054168975,0.4553074898303161,-0.49946471198770714,1,True
2023-02-28,0.4553074898303161,0.45438666199499234,-0.20224306779291767,1,True
2023-03-01,0.45438666199499234,0.45259064797371507,-0.39526116664424515,1,True
2023-03-02,0.45259064797371507,0.4518057160588227,-0.1734308736617951,1,True
2023-03-03,0.4518057160588227,0.44837121752235803,-0.7601715548055443,9,True
2023-03-04,0.44837121752235803,0.4481821061601466,-0.042177408990806686,0,True
2023-03-05,0.4481821061601466,0.45110798021292625,0.6528315192785072,4,True
2023-03-06,0.45110798021292625,0.4515722065056826,0.10290802050036962,0,True
2023-03-07,0.4515722065056826,0.4515722065056826,0.0,0,False
2023-03-08,0.4515722065056826,0.4515722065056826,0.0,0,False
2023-03-09,0.4515722065056826,0.4515722065056826,0.0,0,False
2023-03-10,0.4515722065056826,0.4431317445301605,-1.8691278723363736,10,True
2023-03-11,0.4431317445301605,0.44357026722163967,0.09895989102386427,7,True
2023-03-12,0.44357026722163967,0.4462687601294485,0.6083574818283477,0,True
2023-03-13,0.4462687601294485,0.4462687601294485,0.0,0,False
2023-03-14,0.4462687601294485,0.44540295611809627,-0.19400954955957062,1,True
2023-03-15,0.44540295611809627,0.44433774472843135,-0.23915678489176972,4,True
2023-03-16,0.44433774472843135,0.44147294369459883,-0.6447350169595523,5,True
2023-03-17,0.44147294369459883,0.4392740324624393,-0.4980851632168659,2,True
2023-03-18,0.4392740324624393,0.448578850188441,2.1182262183452316,2,True
2023-03-19,0.448578850188441,0.4436535842354668,-1.0979710592474823,3,True
2023-03-20,0.4436535842354668,0.44572670860540775,0.4672844858254699,4,True
2023-03-21,0.44572670860540775,0.44063873719281865,-1.1415002319489331,1,True
2023-03-22,0.44063873719281865,0.44063873719281865,0.0,0,False
2023-03-23,0.44063873719281865,0.4478831786289673,1.6440772961317185,7,True
2023-03-24,0.4478831786289673,0.44338844301430325,-1.0035508876272359,1,True
2023-03-25,0.44338844301430325,0.44120899559119153,-0.49154357932631454,1,True
2023-03-26,0.44120899559119153,0.44120899559119153,0.0,0,False
2023-03-27,0.44120899559119153,0.4390094254055448,-0.49853248859975663,1,True
2023-03-28,0.4390094254055448,0.4457680531310359,1.5395176810264921,4,True
2023-03-29,0.4457680531310359,0.4457680531310359,0.0,0,False
2023-03-30,0.4457680531310359,0.444535898940185,-0.2764115064317285,1,True
2023-03-31,0.444535898940185,0.444535898940185,0.0,0,False
2023-04-01,0.444535898940185,0.4442108756670115,-0.07311519135988487,1,True
2023-04-02,0.4442108756670115,0.4438255052135109,-0.0867539438159759,0,True
2023-04-03,0.4438255052135109,0.4438255052135109,0.0,0,False
2023-04-04,0.4438255052135109,0.4436988667047879,-0.0285334004547666,1,True
2023-04-05,0.4436988667047879,0.44265486969121226,-0.23529404556047462,1,True
2023-04-06,0.44265486969121226,0.4386791349775686,-0.8981567776306321,2,True
2023-04-07,0.4386791349775686,0.4377048447715362,-0.22209631786618278,1,True
2023-04-08,0.4377048447715362,0.4386437315697384,0.21450226320713917,1,True
2023-04-09,0.4386437315697384,0.4387448381661619,0.023049821334875098,0,True
2023-04-10,0.4387448381661619,0.4387448381661619,0.0,0,False
2023-04-11,0.4387448381661619,0.4387448381661619,0.0,0,False
2023-04-12,0.4387448381661619,0.4410086421192406,0.5159727833017547,1,True
2023-04-13,0.4410086421192406,0.44121859612253034,0.0476076845752571,0,True
2023-04-14,0.44121859612253034,0.44450463050699507,0.7447633470897941,1,True
2023-04-15,0.44450463050699507,0.4425099119670689,-0.44875090224617553,1,True
2023-04-16,0.4425099119670689,0.4425099119670689,0.0,0,False
2023-04-17,0.4425099119670689,0.4424381307002579,-0.016221391853554756,1,True
2023-04-18,0.4424381307002579,0.4424381307002579,0.0,0,False
2023-04-19,0.4424381307002579,0.43644137251757037,-1.3553890965944282,9,True
2023-04-20,0.43644137251757037,0.43257705047863,-0.8854160678327561,0,True
2023-04-21,0.43257705047863,0.43257705047863,0.0,0,False
2023-04-22,0.43257705047863,0.43134714084813786,-0.284321516624908,1,True
2023-04-23,0.43134714084813786,0.43134714084813786,0.0,0,False
2023-04-24,0.43134714084813786,0.43134714084813786,0.0,0,False
2023-04-25,0.43134714084813786,0.43134714084813786,0.0,0,False
2023-04-26,0.43134714084813786,0.43134714084813786,0.0,0,False
2023-04-27,0.43134714084813786,0.42997010967600435,-0.3192396660902652,9,True
2023-04-28,0.42997010967600435,0.42997010967600435,0.0,0,False
2023-04-29,0.42997010967600435,0.42782541179270017,-0.4988016224942382,1,True
2023-04-30,0.42782541179270017,0.42782541179270017,0.0,0,False
2023-05-01,0.42782541179270017,0.42782541179270017,0.0,0,False
2023-05-02,0.42782541179270017,0.42782541179270017,0.0,0,False
2023-05-03,0.42782541179270017,0.42782541179270017,0.0,0,False
2023-05-04,0.42782541179270017,0.42782541179270017,0.0,0,False
2023-05-05,0.42782541179270017,0.42782541179270017,0.0,0,False
2023-05-06,0.42782541179270017,0.4256938339920149,-0.4982354348128659,1,True
2023-05-07,0.4256938339920149,0.4256938339920149,0.0,0,False
2023-05-08,0.4256938339920149,0.4192833941606723,-1.505880358009326,7,True
2023-05-09,0.4192833941606723,0.4215109395868592,0.5312744213602949,6,True
2023-05-10,0.4215109395868592,0.4194007082473395,-0.5006350111786073,2,True
2023-05-11,0.4194007082473395,0.4229818156686125,0.8538629885100457,6,True
2023-05-12,0.4229818156686125,0.4210973928904234,-0.4455091704616998,0,True
2023-05-13,0.4210973928904234,0.4210973928904234,0.0,0,False
2023-05-14,0.4210973928904234,0.4210973928904234,0.0,0,False
2023-05-15,0.4210973928904234,0.4210973928904234,0.0,0,False
2023-05-16,0.4210973928904234,0.4210973928904234,0.0,0,False
2023-05-17,0.4210973928904234,0.4210973928904234,0.0,0,False
2023-05-18,0.4210973928904234,0.42014324508958445,-0.22658601476719387,1,True
2023-05-19,0.42014324508958445,0.42014324508958445,0.0,0,False
2023-05-20,0.42014324508958445,0.42014324508958445,0.0,0,False
2023-05-21,0.42014324508958445,0.42014324508958445,0.0,0,False
2023-05-22,0.42014324508958445,0.4189683239706886,-0.27964774695956596,1,True
2023-05-23,0.4189683239706886,0.4189683239706886,0.0,0,False
2023-05-24,0.4189683239706886,0.41775008135860453,-0.2907720088569987,1,True
2023-05-25,0.41775008135860453,0.4196127630627894,0.4458842229610127,0,True
2023-05-26,0.4196127630627894,0.420443531343786,0.19798451194208422,1,True
2023-05-27,0.420443531343786,0.4218861616556655,0.34312106248102214,0,True
2023-05-28,0.4218861616556655,0.4218861616556655,0.0,0,False
2023-05-29,0.4218861616556655,0.4218861616556655,0.0,0,False
2023-05-30,0.4218861616556655,0.4237071892761556,0.4316395715241228,2,True
2023-05-31,0.4237071892761556,0.4219819422278031,-0.4071790831068567,1,True
2023-06-01,0.4219819422278031,0.4219819422278031,0.0,0,False
2023-06-02,0.4219819422278031,0.4273527143474453,1.2727492772055315,1,True
2023-06-03,0.4273527143474453,0.4273527143474453,0.0,0,False
2023-06-04,0.4273527143474453,0.4243681363598446,-0.6983875116267968,3,True
2023-06-05,0.4243681363598446,0.4236052768548651,-0.17976361550685604,1,True
2023-06-06,0.4236052768548651,0.40619954518013623,-4.108950625913089,12,True
2023-06-07,0.40619954518013623,0.40646904913573195,0.06634767537128106,1,True
2023-06-08,0.40646904913573195,0.4049522865837389,-0.3731557310988731,1,True
2023-06-09,0.4049522865837389,0.4037752016103638,-0.2906725094220963,1,True
2023-06-10,0.4037752016103638,0.41204333825409417,2.0477078856638187,7,True
2023-06-11,0.41204333825409417,0.41174551978873436,-0.07227843231775166,0,True
2023-06-12,0.41174551978873436,0.41174551978873436,0.0,0,False
2023-06-13,0.41174551978873436,0.4121642782785063,0.10170322921470021,1,True
2023-06-14,0.4121642782785063,0.4121414673745484,-0.005534420414410324,0,True
2023-06-15,0.4121414673745484,0.41462384997900675,0.6023132348879745,5,True
2023-06-16,0.41462384997900675,0.41809576457254777,0.8373649016371942,0,True
2023-06-17,0.41809576457254777,0.4187901172394195,0.16607503010264146,1,True
2023-06-18,0.4187901172394195,0.41932733825304924,0.12827929588477005,0,True
2023-06-19,0.41932733825304924,0.42154692814108713,0.5293215313088906,1,True
2023-06-20,0.42154692814108713,0.4207708392675146,-0.18410497663804426,1,True
2023-06-21,0.4207708392675146,0.4207708392675146,0.0,0,False
2023-06-22,0.4207708392675146,0.42018158894094304,-0.14004067572679357,1,True
2023-06-23,0.42018158894094304,0.42018158894094304,0.0,0,False
2023-06-24,0.42018158894094304,0.42024086944339106,0.014108305553661715,1,True
2023-06-25,0.42024086944339106,0.4202952672466345,0.012944434299200225,4,True
2023-06-26,0.4202952672466345,0.41993057515519305,-0.08677044922027477,0,True
2023-06-27,0.41993057515519305,0.41993057515519305,0.0,0,False
2023-06-28,0.41993057515519305,0.41993057515519305,0.0,0,False
2023-06-29,0.41993057515519305,0.41958216191996756,-0.08296924678483641,2,True
2023-06-30,0.41958216191996756,0.4132943977903068,-1.4985775612787133,10,True
2023-07-01,0.4132943977903068,0.4151810004161129,0.45647911897497284,2,True
2023-07-02,0.4151810004161129,0.4151810004161129,0.0,0,False
2023-07-03,0.4151810004161129,0.4151810004161129,0.0,0,False
2023-07-04,0.4151810004161129,0.4146870741452118,-0.11896649182069341,1,True
2023-07-05,0.4146870741452118,0.41394054964863297,-0.18002116369737475,1,True
2023-07-06,0.41394054964863297,0.4128989133477811,-0.25163910656639255,2,True
2023-07-07,0.4128989133477811,0.4119150407093317,-0.23828414332025538,0,True
2023-07-08,0.4119150407093317,0.4119150407093317,0.0,0,False
2023-07-09,0.4119150407093317,0.4119150407093317,0.0,0,False
2023-07-10,0.4119150407093317,0.4119150407093317,0.0,0,False
2023-07-11,0.4119150407093317,0.4119150407093317,0.0,0,False
2023-07-12,0.4119150407093317,0.4112867065914424,-0.15253973654549835,1,True
2023-07-13,0.4112867065914424,0.4112867065914424,0.0,0,False
2023-07-14,0.4112867065914424,0.4112867065914424,0.0,0,False
2023-07-15,0.4112867065914424,0.41285109537020587,0.3803645373633424,6,True
2023-07-16,0.41285109537020587,0.41234731794663115,-0.12202400071700259,2,True
2023-07-17,0.41234731794663115,0.41078354079349133,-0.3792378621320869,0,True
2023-07-18,0.41078354079349133,0.41085912972475874,0.01840115870304082,2,True
2023-07-19,0.41085912972475874,0.4076736078390903,-0.77533189728618,1,True
2023-07-20,0.4076736078390903,0.40601298481502285,-0.40734131229875903,2,True
2023-07-21,0.40601298481502285,0.406117093485777,0.025641709661483603,0,True
2023-07-22,0.406117093485777,0.406117093485777,0.0,0,False
2023-07-23,0.406117093485777,0.406117093485777,0.0,0,False
2023-07-24,0.406117093485777,0.403947531553356,-0.534220786866979,4,True
2023-07-25,0.403947531553356,0.4021316212450877,-0.4495411325538545,0,True
2023-07-26,0.4021316212450877,0.4021316212450877,0.0,0,False
2023-07-27,0.4021316212450877,0.4021316212450877,0.0,0,False
2023-07-28,0.4021316212450877,0.4021316212450877,0.0,0,False
2023-07-29,0.4021316212450877,0.4021316212450877,0.0,0,False
2023-07-30,0.4021316212450877,0.4021316212450877,0.0,0,False
2023-07-31,0.4021316212450877,0.4001274069878411,-0.4983975771517657,1,True
2023-08-01,0.4001274069878411,0.3988677951523927,-0.3148026887062727,2,True
2023-08-02,0.3988677951523927,0.3988677951523927,0.0,0,False
2023-08-03,0.3988677951523927,0.3988677951523927,0.0,0,False
2023-08-04,0.3988677951523927,0.3988677951523927,0.0,0,False
2023-08-05,0.3988677951523927,0.3988677951523927,0.0,0,False
2023-08-06,0.3988677951523927,0.3988677951523927,0.0,0,False
2023-08-07,0.3988677951523927,0.39805912043988817,-0.20274254335213016,2,True
2023-08-08,0.39805912043988817,0.3937891544382308,-1.072696436885734,5,True
2023-08-09,0.3937891544382308,0.39235359052864655,-0.3645514086420665,0,True
2023-08-10,0.39235359052864655,0.3904004575072737,-0.4977991965719575,1,True
2023-08-11,0.3904004575072737,0.3904004575072737,0.0,0,False
2023-08-12,0.3904004575072737,0.3904004575072737,0.0,0,False
2023-08-13,0.3904004575072737,0.39118793876771624,0.20171115204901113,1,True
2023-08-14,0.39118793876771624,0.38923562657722305,-0.49907269550364397,1,True
2023-08-15,0.38923562657722305,0.38923562657722305,0.0,0,False
2023-08-16,0.38923562657722305,0.3921054922350903,0.7373080627546047,7,True
2023-08-17,0.3921054922350903,0.39457647346409136,0.6301827640607494,5,True
2023-08-18,0.39457647346409136,0.407874556327723,3.3702168674387245,7,True
2023-08-19,0.407874556327723,0.4078485359443929,-0.006379506376763544,0,True
2023-08-20,0.4078485359443929,0.40723650085294083,-0.15006431003482534,1,True
2023-08-21,0.40723650085294083,0.4063881004806182,-0.20833112222153893,1,True
2023-08-22,0.4063881004806182,0.4072472938560503,0.21142188327265554,1,True
2023-08-23,0.4072472938560503,0.4072472938560503,0.0,0,False
2023-08-24,0.4072472938560503,0.4072472938560503,0.0,0,False
2023-08-25,0.4072472938560503,0.39937572451293013,-1.93287210544425,6,True
2023-08-26,0.39937572451293013,0.398642929914917,-0.183485012492135,0,True
2023-08-27,0.398642929914917,0.398642929914917,0.0,0,False
2023-08-28,0.398642929914917,0.3962587789886599,-0.5980667778971882,2,True
2023-08-29,0.3962587789886599,0.39942913284471016,0.8000715754845178,1,True
2023-08-30,0.39942913284471016,0.39754931690436746,-0.4706256468963055,2,True
2023-08-31,0.39754931690436746,0.3990886962056844,0.38721719189551695,2,True
2023-09-01,0.3990886962056844,0.3974061920311654,-0.4215865271342656,1,True
2023-09-02,0.3974061920311654,0.3946077538808689,-0.7041757794445824,4,True
2023-09-03,0.3946077538808689,0.39458591670401827,-0.005533894515719062,0,True
2023-09-04,0.39458591670401827,0.39402188588552883,-0.1429424605928098,3,True
2023-09-05,0.39402188588552883,0.39151745808993216,-0.6356062658723127,0,True
2023-09-06,0.39151745808993216,0.3933601351053391,0.47065002526240907,4,True
2023-09-07,0.3933601351053391,0.39349421995264594,0.03408704526475237,3,True
2023-09-08,0.39349421995264594,0.38989311561884865,-0.9151606684923208,4,True
2023-09-09,0.38989311561884865,0.3918923525588905,0.5127653861927151,5,True
2023-09-10,0.3918923525588905,0.38829209145297094,-0.9186862367717485,5,True
2023-09-11,0.38829209145297094,0.38620122112229455,-0.5384787320422801,2,True
2023-09-12,0.38620122112229455,0.3858460637943816,-0.09196173095488147,2,True
2023-09-13,0.3858460637943816,0.3838986711532691,-0.5047071420042459,2,True
2023-09-14,0.3838986711532691,0.38570306183678,0.4700174340511065,4,True
2023-09-15,0.38570306183678,0.38721391612446415,0.3917143619470487,1,True
2023-09-16,0.38721391612446415,0.389902472498967,0.6943336131645106,5,True
2023-09-17,0.389902472498967,0.38870411689662715,-0.3073475258208336,2,True
2023-09-18,0.38870411689662715,0.3861495660328121,-0.6571967604074636,1,True
2023-09-19,0.3861495660328121,0.3861495660328121,0.0,0,False
2023-09-20,0.3861495660328121,0.38704728607528677,0.23247987863810327,3,True
2023-09-21,0.38704728607528677,0.38809565653628214,0.27086366413415774,1,True
2023-09-22,0.38809565653628214,0.3932577823891444,1.3301168837945188,1,True
2023-09-23,0.3932577823891444,0.39272291558540523,-0.13600921016482248,0,True
2023-09-24,0.39272291558540523,0.3918247029816184,-0.2287140801162324,1,True
2023-09-25,0.3918247029816184,0.39192281642409343,0.02504013701238872,1,True
2023-09-26,0.39192281642409343,0.3922978167928655,0.09568219890681018,1,True
2023-09-27,0.3922978167928655,0.3917771832946104,-0.1327138403449224,0,True
2023-09-28,0.3917771832946104,0.3917771832946104,0.0,0,False
2023-09-29,0.3917771832946104,0.3878823196663914,-0.994152746585586,2,True
2023-09-30,0.3878823196663914,0.3878823196663914,0.0,0,False
2023-10-01,0.3878823196663914,0.3876195146182804,-0.06775380954125998,1,True
2023-10-02,0.3876195146182804,0.3884115415144435,0.20433101696208933,1,True
2023-10-03,0.3884115415144435,0.389127514522637,0.18433360795662157,3,True
2023-10-04,0.389127514522637,0.3857071552810836,-0.8789815970092207,5,True
2023-10-05,0.3857071552810836,0.381855650034085,-0.9985568569999326,2,True
2023-10-06,0.381855650034085,0.381855650034085,0.0,0,False
2023-10-07,0.381855650034085,0.38009681917309285,-0.46060097862508087,1,True
2023-10-08,0.38009681917309285,0.3794221680035165,-0.17749455810864845,1,True
2023-10-09,0.3794221680035165,0.3781259741220213,-0.34162312874750356,1,True
2023-10-10,0.3781259741220213,0.3765450879567349,-0.41808452036575794,1,True
2023-10-11,0.3765450879567349,0.3765450879567349,0.0,0,False
2023-10-12,0.3765450879567349,0.3765450879567349,0.0,0,False
2023-10-13,0.3765450879567349,0.3765450879567349,0.0,0,False
2023-10-14,0.3765450879567349,0.3765450879567349,0.0,0,False
2023-10-15,0.3765450879567349,0.37656251275319247,0.004627545814539502,1,True
2023-10-16,0.37656251275319247,0.3773100671696674,0.19852066819112668,2,True
2023-10-17,0.3773100671696674,0.3781528838662394,0.22337508852976473,2,True
2023-10-18,0.3781528838662394,0.37499547331399696,-0.8349560949955093,3,True
2023-10-19,0.37499547331399696,0.3702092157166435,-1.2763507663319906,4,True
2023-10-20,0.3702092157166435,0.36988338588948433,-0.08801234905199129,0,True
2023-10-21,0.36988338588948433,0.37087237838173964,0.2673795390612188,2,True
2023-10-22,0.37087237838173964,0.3734990189733038,0.7082330053872488,1,True
2023-10-23,0.3734990189733038,0.3734990189733038,0.0,0,False
2023-10-24,0.3734990189733038,0.3720303657614164,-0.3932147441576994,4,True
2023-10-25,0.3720303657614164,0.38248409445508846,2.809912753298227,7,True
2023-10-26,0.38248409445508846,0.38993942335455684,1.9491866479022457,4,True
2023-10-27,0.38993942335455684,0.3875337341244598,-0.6169392182512556,5,True
2023-10-28,0.3875337341244598,0.3887563807357104,0.3154942405240835,1,True
2023-10-29,0.3887563807357104,0.3887563807357104,0.0,0,False
2023-10-30,0.3887563807357104,0.3877378423988062,-0.26199913040054756,2,True
2023-10-31,0.3877378423988062,0.3841507980542847,-0.9251210359890738,5,True
2023-11-01,0.3841507980542847,0.3832034353334191,-0.24661219647700294,4,True
2023-11-02,0.3832034353334191,0.3827446517881106,-0.11972323392908102,3,True
2023-11-03,0.3827446517881106,0.380998724853624,-0.45615972067276633,1,True
2023-11-04,0.380998724853624,0.3817754097360174,0.20385498211097364,1,True
2023-11-05,0.3817754097360174,0.38020284834499074,-0.41190745944429397,4,True
2023-11-06,0.38020284834499074,0.37841876038283995,-0.4692463430815641,3,True
2023-11-07,0.37841876038283995,0.37241900902950154,-1.585479363461939,5,True
2023-11-08,0.37241900902950154,0.37241900902950154,0.0,0,False
2023-11-09,0.37241900902950154,0.37530716026474387,0.7755112293458488,4,True
2023-11-10,0.37530716026474387,0.37571427296807763,0.10847453670923546,6,True
2023-11-11,0.37571427296807763,0.37421977690505903,-0.3977746310280805,3,True
2023-11-12,0.37421977690505903,0.379234996514836,1.3401802681982211,4,True
2023-11-13,0.379234996514836,0.37654795823493287,-0.7085417497322166,3,True
2023-11-14,0.37654795823493287,0.3747408028384399,-0.4799270204422279,4,True
2023-11-15,0.3747408028384399,0.3742059398441456,-0.1427287848675851,1,True
2023-11-16,0.3742059398441456,0.37180392389523814,-0.6418967988343183,4,True
2023-11-17,0.37180392389523814,0.37075518495361304,-0.2820677443739372,3,True
2023-11-18,0.37075518495361304,0.3676080547958489,-0.8488431950473996,3,True
2023-11-19,0.3676080547958489,0.36348255745010494,-1.1222543390772666,3,True
2023-11-20,0.36348255745010494,0.36411201356257533,0.17317367768239222,1,True
2023-11-21,0.36411201356257533,0.3563673047656952,-2.127012707189657,4,True
2023-11-22,0.3563673047656952,0.3549921784538341,-0.3858733092154121,5,True
2023-11-23,0.3549921784538341,0.35392064938975953,-0.30184582340421207,3,True
2023-11-24,0.35392064938975953,0.35986103044623446,1.678449976489782,1,True
2023-11-25,0.35986103044623446,0.3602513383435647,0.10846072908929916,5,True
2023-11-26,0.3602513383435647,0.36044609214209355,0.054060534354793965,1,True
2023-11-27,0.36044609214209355,0.36087213745598623,0.11819945428197531,3,True
2023-11-28,0.36087213745598623,0.36157042907916304,0.19350111873404074,3,True
2023-11-29,0.36157042907916304,0.3605683173467724,-0.27715533456172947,4,True
2023-11-30,0.3605683173467724,0.35917435287096444,-0.3866020414842297,0,True
2023-12-01,0.35917435287096444,0.35917435287096444,0.0,0,False
2023-12-02,0.35917435287096444,0.35917435287096444,0.0,0,False
2023-12-03,0.35917435287096444,0.35988554589222266,0.1980077406901426,2,True
2023-12-04,0.35988554589222266,0.3636878901516021,1.056542643287517,4,True
2023-12-05,0.3636878901516021,0.3655926691091665,0.5237400004631576,4,True
2023-12-06,0.3655926691091665,0.36069731521291204,-1.3390186154943584,5,True
2023-12-07,0.36069731521291204,0.35867943055381857,-0.5594398887894036,4,True
2023-12-08,0.35867943055381857,0.3586463557923749,-0.0092212596057073,1,True
2023-12-09,0.3586463557923749,0.3575746801862016,-0.29881123531999565,0,True
2023-12-10,0.3575746801862016,0.3564124267510194,-0.32503795698759497,3,True
2023-12-11,0.3564124267510194,0.3607848230762116,1.2267799877378138,6,True
2023-12-12,0.3607848230762116,0.3607848230762116,0.0,0,False
2023-12-13,0.3607848230762116,0.3597014059445167,-0.30029454189819393,6,True
2023-12-14,0.3597014059445167,0.36408007756863475,1.217307342077345,2,True
2023-12-15,0.36408007756863475,0.3621110349654729,-0.5408267918176946,3,True
2023-12-16,0.3621110349654729,0.3672416022303891,1.4168491897534663,4,True
2023-12-17,0.3672416022303891,0.3669879130565505,-0.06907963920695925,2,True
2023-12-18,0.3669879130565505,0.36597512204063254,-0.27597394352382176,7,True
2023-12-19,0.36597512204063254,0.3635254788220404,-0.6693469230731441,4,True
2023-12-20,0.3635254788220404,0.3609951966763324,-0.6960398357515607,2,True
2023-12-21,0.3609951966763324,0.35908967656175034,-0.5278519304761087,1,True
2023-12-22,0.35908967656175034,0.357298578233354,-0.4987885882841159,1,True
2023-12-23,0.357298578233354,0.3571899098445164,-0.03041388783994181,1,True
2023-12-24,0.3571899098445164,0.35615004955400653,-0.2911225266588602,2,True
2023-12-25,0.35615004955400653,0.35532258960745694,-0.2323346431050033,2,True
2023-12-26,0.35532258960745694,0.35363757039435983,-0.4742223721150518,1,True
2023-12-27,0.35363757039435983,0.3490874004784699,-1.286676048253521,11,True
2023-12-28,0.3490874004784699,0.3493099567029507,0.06375372590810002,1,True
2023-12-29,0.3493099567029507,0.35040218790905503,0.31268252883875913,2,True
2023-12-30,0.35040218790905503,0.34892326561176934,-0.4220642302808719,3,True
2023-12-31,0.34892326561176934,0.34766873774235396,-0.3595426252863354,2,True
