day,start_equity,end_equity,return_pct,entries,active
2024-01-02,1.0032761764537503,0.9992532273910695,-0.40098122103333633,1,True
2024-01-03,0.9992532273910695,0.9941364829807853,-0.512056831044061,11,True
2024-01-04,0.9941364829807853,1.0194922353052343,2.5505303103275256,12,True
2024-01-05,1.0194922353052343,1.0070765558412678,-1.2178297228766288,8,True
2024-01-06,1.0070765558412678,1.0040439160837895,-0.30113299131910853,8,True
2024-01-07,1.0040439160837895,1.0071110675375567,0.3054798106571388,8,True
2024-01-08,1.0071110675375567,0.9783054344518136,-2.860224062096206,12,True
2024-01-09,0.9783054344518136,0.9774114219563304,-0.09138378097471866,6,True
2024-01-10,0.9774114219563304,0.9648636713273933,-1.2837736849669934,7,True
2024-01-11,0.9648636713273933,0.9622043833420012,-0.2756128212116793,6,True
2024-01-12,0.9622043833420012,0.9656758165782396,0.36077919580672635,8,True
2024-01-13,0.9656758165782396,0.9798434669658566,1.4671228319477203,12,True
2024-01-14,0.9798434669658566,0.9774018151816001,-0.24918794343928852,1,True
2024-01-15,0.9774018151816001,0.9846482898453074,0.7414018013012225,5,True
2024-01-16,0.9846482898453074,0.9743505722089556,-1.0458269965582967,2,True
2024-01-17,0.9743505722089556,0.9743505722089556,0.0,0,False
2024-01-18,0.9743505722089556,0.9723604240001653,-0.20425381434101553,1,True
2024-01-19,0.9723604240001653,0.9686991968921618,-0.3765298358135327,1,True
2024-01-20,0.9686991968921618,0.9950808545817829,2.723410711422103,12,True
2024-01-21,0.9950808545817829,0.9842010831973559,-1.0933555132059625,3,True
2024-01-22,0.9842010831973559,0.9673307462128694,-1.7141148564559727,4,True
2024-01-23,0.9673307462128694,0.9420654881996098,-2.6118530928716854,11,True
2024-01-24,0.9420654881996098,0.9389745222340397,-0.32810521182314867,1,True
2024-01-25,0.9389745222340397,0.9351952288122322,-0.40249158335156077,3,True
2024-01-26,0.9351952288122322,0.9377481267860692,0.27298021794652794,1,True
2024-01-27,0.9377481267860692,0.9377481267860692,0.0,0,False
2024-01-28,0.9377481267860692,0.9366523208838322,-0.11685503505004524,1,True
2024-01-29,0.9366523208838322,0.9366523208838322,0.0,0,False
2024-01-30,0.9366523208838322,0.9366523208838322,0.0,0,False
2024-01-31,0.9366523208838322,0.9323474089616822,-0.45960617682426763,1,True
2024-02-01,0.9323474089616822,0.9323474089616822,0.0,0,False
2024-02-02,0.9323474089616822,0.9313152353525525,-0.11070697459000245,3,True
2024-02-03,0.9313152353525525,0.9373619669451959,0.6492679774914745,1,True
2024-02-04,0.9373619669451959,0.9372907122037676,-0.007601624979569621,1,True
2024-02-05,0.9372907122037676,0.9372907122037676,0.0,0,False
2024-02-06,0.9372907122037676,0.9289780435620393,-0.8868826430791676,2,True
2024-02-07,0.9289780435620393,0.9281968328386765,-0.0840935616053251,5,True
2024-02-08,0.9281968328386765,0.9435328685967193,1.6522396129214245,1,True
2024-02-09,0.9435328685967193,0.9435328685967193,0.0,0,False
2024-02-10,0.9435328685967193,0.9357376080460943,-0.826177954162699,3,True
2024-02-11,0.9357376080460943,0.9357376080460943,0.0,0,False
2024-02-12,0.9357376080460943,0.9384271111488793,0.287420648658232,3,True
2024-02-13,0.9384271111488793,0.9384271111488793,0.0,0,False
2024-02-14,0.9384271111488793,0.9403935149835959,0.20954252188101208,2,True
2024-02-15,0.9403935149835959,0.9653122062651819,2.6498153043963413,7,True
2024-02-16,0.9653122062651819,0.9406916328801492,-2.550529582578298,6,True
2024-02-17,0.9406916328801492,0.9256495005344928,-1.599050296599469,6,True
2024-02-18,0.9256495005344928,0.925204768217277,-0.048045433715349084,4,True
2024-02-19,0.925204768217277,0.9178130717156371,-0.7989254655358713,6,True
2024-02-20,0.9178130717156371,0.9113431578616662,-0.7049271854318806,13,True
2024-02-21,0.9113431578616662,0.9041994049325259,-0.783870802947817,10,True
2024-02-22,0.9041994049325259,0.9253634599649373,2.3406402301260787,5,True
2024-02-23,0.9253634599649373,0.9097201514993111,-1.6905042334629194,7,True
2024-02-24,0.9097201514993111,0.8948870581096057,-1.6305116870566128,10,True
2024-02-25,0.8948870581096057,0.8790232043068621,-1.7727213349419735,9,True
2024-02-26,0.8790232043068621,0.8792987972754398,0.03135218356322689,10,True
2024-02-27,0.8792987972754398,0.8745485813176789,-0.5402277328798499,8,True
2024-02-28,0.8745485813176789,0.9193973606815062,5.128220469611167,10,True
2024-02-29,0.9193973606815062,0.9009959274084509,-2.0014668368653177,19,True
2024-03-01,0.9009959274084509,0.8826392186981333,-2.0373797652024073,11,True
2024-03-02,0.8826392186981333,0.868907598138579,-1.555745571764655,16,True
2024-03-03,0.868907598138579,0.8996286038276304,3.535589486714552,15,True
2024-03-04,0.8996286038276304,0.9178165397859803,2.021716059378953,4,True
2024-03-05,0.9178165397859803,0.9348568505911379,1.8566140471963033,22,True
2024-03-06,0.9348568505911379,0.9083906686307988,-2.8310411314420802,31,True
2024-03-07,0.9083906686307988,0.8967119406093378,-1.2856503732104674,7,True
2024-03-08,0.8967119406093378,0.8949849748926226,-0.19258868299909526,9,True
2024-03-09,0.8949849748926226,0.9024339342052697,0.8322999292296185,12,True
2024-03-10,0.9024339342052697,0.9197239527112626,1.915931776348745,13,True
2024-03-11,0.9197239527112626,0.931073543412244,1.2340214330097465,13,True
2024-03-12,0.931073543412244,0.9312006046167964,0.013646742027129122,9,True
2024-03-13,0.9312006046167964,0.925482631513243,-0.6140431046977812,8,True
2024-03-14,0.925482631513243,0.9374468369145991,1.292753099190369,6,True
2024-03-15,0.9374468369145991,0.9096965137947622,-2.9602023311712244,22,True
2024-03-16,0.9096965137947622,0.9086214249475294,-0.11818104509910832,4,True
2024-03-17,0.9086214249475294,0.8924614208866035,-1.7785189317827355,9,True
2024-03-18,0.8924614208866035,0.894137116986979,0.1877611806133661,5,True
2024-03-19,0.894137116986979,0.8449591547362683,-5.500047063970259,20,True
2024-03-20,0.8449591547362683,0.8286316175434968,-1.932346327186396,8,True
2024-03-21,0.8286316175434968,0.8263142937271616,-0.2796566975328485,5,True
2024-03-22,0.8263142937271616,0.8246191759499643,-0.20514201316200742,13,True
2024-03-23,0.8246191759499643,0.8303767311464447,0.6982077744975834,8,True
2024-03-24,0.8303767311464447,0.8198873114557262,-1.2632121418234443,7,True
2024-03-25,0.8198873114557262,0.8311492787925281,1.3735994178036393,4,True
2024-03-26,0.8311492787925281,0.8519613843333537,2.5040153522193798,9,True
2024-03-27,0.8519613843333537,0.8463511099048459,-0.6585127602817042,11,True
2024-03-28,0.8463511099048459,0.8200098205137215,-3.1123358949793123,7,True
2024-03-29,0.8200098205137215,0.8136607610050852,-0.7742662770378383,9,True
2024-03-30,0.8136607610050852,0.8067447378546959,-0.8499885310735866,4,True
2024-03-31,0.8067447378546959,0.8030843049182056,-0.4537287650892119,1,True
2024-04-01,0.8030843049182056,0.801347426892941,-0.21627592702629928,7,True
2024-04-02,0.801347426892941,0.7923670980546892,-1.1206536062730255,9,True
2024-04-03,0.7923670980546892,0.8099367253315713,2.217359519346118,5,True
2024-04-04,0.8099367253315713,0.8081949012094946,-0.21505681463742654,3,True
2024-04-05,0.8081949012094946,0.7907028732290028,-2.1643328798924943,5,True
2024-04-06,0.7907028732290028,0.7792185498328922,-1.4524195857809286,3,True
2024-04-07,0.7792185498328922,0.7895820948125735,1.3299920775633245,4,True
2024-04-08,0.7895820948125735,0.7812564218831045,-1.054440441870108,2,True
2024-04-09,0.7812564218831045,0.7716816471542272,-1.2255610911714232,3,True
2024-04-10,0.7716816471542272,0.7579688239228864,-1.7770052303187733,6,True
2024-04-11,0.7579688239228864,0.7542049024852803,-0.4965799804437787,1,True
2024-04-12,0.7542049024852803,0.7529736961977437,-0.16324559592220123,10,True
2024-04-13,0.7529736961977437,0.7431674210001655,-1.302339676285702,18,True
2024-04-14,0.7431674210001655,0.7172078505332206,-3.4930985580622242,26,True
2024-04-15,0.7172078505332206,0.7195836784286066,0.33126072081053337,6,True
2024-04-16,0.7195836784286066,0.7156553162391521,-0.5459215247951454,1,True
2024-04-17,0.7156553162391521,0.7107629579335006,-0.6836193618125264,2,True
2024-04-18,0.7107629579335006,0.7101571185341059,-0.08523789719657726,1,True
2024-04-19,0.7101571185341059,0.7331123815286563,3.2324203187506173,10,True
2024-04-20,0.7331123815286563,0.7331123815286563,0.0,0,False
2024-04-21,0.7331123815286563,0.7331123815286563,0.0,0,False
2024-04-22,0.7331123815286563,0.7331123815286563,0.0,0,False
2024-04-23,0.7331123815286563,0.7249583056706346,-1.1122545551637275,4,True
2024-04-24,0.7249583056706346,0.7174172091862515,-1.040211061159857,6,True
2024-04-25,0.7174172091862515,0.7211783486614485,0.5242611171069056,4,True
2024-04-26,0.7211783486614485,0.7234743581307218,0.31836916257050873,2,True
2024-04-27,0.7234743581307218,0.72621435292897,0.37872728555683466,6,True
2024-04-28,0.72621435292897,0.7281422523887934,0.26547250850217363,3,True
2024-04-29,0.7281422523887934,0.7255182913995847,-0.36036378614211495,3,True
2024-04-30,0.7255182913995847,0.7183190832110679,-0.9922848636426451,2,True
2024-05-01,0.7183190832110679,0.7132854645150616,-0.7007496826486492,6,True
2024-05-02,0.7132854645150616,0.7078082522018794,-0.7678850314026819,5,True
2024-05-03,0.7078082522018794,0.7027204825445137,-0.718806207972067,3,True
2024-05-04,0.7027204825445137,0.7027204825445137,0.0,0,False
2024-05-05,0.7027204825445137,0.6992219696518468,-0.49785269955402445,1,True
2024-05-06,0.6992219696518468,0.6957352435561076,-0.49865797229959874,1,True
2024-05-07,0.6957352435561076,0.6980140275157167,0.3275360822547313,4,True
2024-05-08,0.6980140275157167,0.6971925313185787,-0.11769049972559786,3,True
2024-05-09,0.6971925313185787,0.6880679130888834,-1.308765917563437,11,True
2024-05-10,0.6880679130888834,0.6845250217275891,-0.5149043130625697,4,True
2024-05-11,0.6845250217275891,0.6800012309911584,-0.6608656503181876,4,True
2024-05-12,0.6800012309911584,0.6755731473150369,-0.651187597067604,1,True
2024-05-13,0.6755731473150369,0.6796659288201927,0.6058235916305943,5,True
2024-05-14,0.6796659288201927,0.6776296389335292,-0.2996015837071875,4,True
2024-05-15,0.6776296389335292,0.673047885141098,-0.6761442429882636,3,True
2024-05-16,0.673047885141098,0.6645796056313831,-1.258198665603072,4,True
2024-05-17,0.6645796056313831,0.6635387021925652,-0.15662584737745622,1,True
2024-05-18,0.6635387021925652,0.661435358171542,-0.3169888981717217,2,True
2024-05-19,0.661435358171542,0.661435358171542,0.0,0,False
2024-05-20,0.661435358171542,0.6619097876099002,0.07172725686599435,2,True
2024-05-21,0.6619097876099002,0.6581027188043989,-0.5751643013541585,2,True
2024-05-22,0.6581027188043989,0.6605119036904827,0.366080372751032,1,True
2024-05-23,0.6605119036904827,0.65203057860125,-1.2840533292201028,7,True
2024-05-24,0.65203057860125,0.6528661225957401,0.12814490944312862,6,True
2024-05-25,0.6528661225957401,0.6495436208512807,-0.5089101164032495,3,True
2024-05-26,0.6495436208512807,0.6540673725071637,0.6964507864697822,3,True
2024-05-27,0.6540673725071637,0.6511136854553982,-0.45158758499809215,5,True
2024-05-28,0.6511136854553982,0.647705688813591,-0.5234103840750182,2,True
2024-05-29,0.647705688813591,0.643023599736378,-0.7228729279480706,4,True
2024-05-30,0.643023599736378,0.630284609303675,-1.9811077599524496,6,True
2024-05-31,0.630284609303675,0.6230073873624212,-1.1545929939957622,4,True
2024-06-01,0.6230073873624212,0.6161798863753858,-1.095894065709313,3,True
2024-06-02,0.6161798863753858,0.6135848288154304,-0.42115259152980533,4,True
2024-06-03,0.6135848288154304,0.5983897094305346,-2.476449656395696,13,True
2024-06-04,0.5983897094305346,0.5948257832251311,-0.5955861454895572,10,True
2024-06-05,0.5948257832251311,0.594837295505028,0.0019354036461471935,0,True
2024-06-06,0.594837295505028,0.5900823360586969,-0.7993714385870931,3,True
2024-06-07,0.5900823360586969,0.5886936215621363,-0.23534249573307076,0,True
2024-06-08,0.5886936215621363,0.6034416339252392,2.505210150564907,10,True
2024-06-09,0.6034416339252392,0.603856486603857,0.06874777199565862,3,True
2024-06-10,0.603856486603857,0.6011666276440001,-0.44544672774569083,0,True
2024-06-11,0.6011666276440001,0.5896945959911751,-1.9082948263086985,4,True
2024-06-12,0.5896945959911751,0.5825202124777299,-1.216626973049728,4,True
2024-06-13,0.5825202124777299,0.5817118139710942,-0.13877604404441968,3,True
2024-06-14,0.5817118139710942,0.575218376615085,-1.1162636205858112,6,True
2024-06-15,0.575218376615085,0.5868400521454115,2.0203936457515503,5,True
2024-06-16,0.5868400521454115,0.5868400521454115,0.0,0,False
2024-06-17,0.5868400521454115,0.5812370598690676,-0.9547733246665802,4,True
2024-06-18,0.5812370598690676,0.5917058974499634,1.8011304343281243,6,True
2024-06-19,0.5917058974499634,0.5865670504704893,-0.8684799326186599,3,True
2024-06-20,0.5865670504704893,0.5876328283309208,0.18169753305723457,1,True
2024-06-21,0.5876328283309208,0.5852534948116168,-0.4049013949853797,1,True
2024-06-22,0.5852534948116168,0.5794300519446778,-0.9950291486620633,3,True
2024-06-23,0.5794300519446778,0.580627432194919,0.20664793726568043,2,True
2024-06-24,0.580627432194919,0.5858341483728349,0.8967396111880577,2,True
2024-06-25,0.5858341483728349,0.5933127732294262,1.2765771468534748,1,True
2024-06-26,0.5933127732294262,0.5945453869182785,0.2077510791050674,0,True
2024-06-27,0.5945453869182785,0.5915912257323356,-0.49687732020852193,1,True
2024-06-28,0.5915912257323356,0.5894709375789289,-0.3584042597626347,2,True
2024-06-29,0.5894709375789289,0.5755973481966365,-2.3535663079971125,7,True
2024-06-30,0.5755973481966365,0.574155097113469,-0.25056597075823195,1,True
2024-07-01,0.574155097113469,0.5694356701596158,-0.8219777160526576,2,True
2024-07-02,0.5694356701596158,0.5694356701596158,0.0,0,False
2024-07-03,0.5694356701596158,0.5666049545372551,-0.4971089397275086,1,True
2024-07-04,0.5666049545372551,0.5653242469105597,-0.2260318439575526,5,True
2024-07-05,0.5653242469105597,0.5299596184251498,-6.255636243920904,22,True
2024-07-06,0.5299596184251498,0.5295642687758375,-0.0745999573490419,5,True
2024-07-07,0.5295642687758375,0.5317975221179315,0.4217152617295161,3,True
2024-07-08,0.5317975221179315,0.5345885022120481,0.5248200636590594,2,True
2024-07-09,0.5345885022120481,0.5360808992621602,0.27916744260991777,2,True
2024-07-10,0.5360808992621602,0.5381618994709302,0.3881877178676163,1,True
2024-07-11,0.5381618994709302,0.5308624280501684,-1.3563709039859484,3,True
2024-07-12,0.5308624280501684,0.5309005238549288,0.007176210397941141,0,True
2024-07-13,0.5309005238549288,0.5275204924480336,-0.6366600248107646,2,True
2024-07-14,0.5275204924480336,0.5266338201817943,-0.16808299941573068,2,True
2024-07-15,0.5266338201817943,0.5266338201817943,0.0,0,False
2024-07-16,0.5266338201817943,0.5271499102185131,0.0979978909331436,2,True
2024-07-17,0.5271499102185131,0.528439946652328,0.24471908442138535,1,True
2024-07-18,0.528439946652328,0.528439946652328,0.0,0,False
2024-07-19,0.528439946652328,0.5251375044492339,-0.6249418167598941,2,True
2024-07-20,0.5251375044492339,0.5231891377667716,-0.3710202882016178,2,True
2024-07-21,0.5231891377667716,0.5216107393668836,-0.3016879147425211,1,True
2024-07-22,0.5216107393668836,0.5227796667255677,0.22409955747899613,1,True
2024-07-23,0.5227796667255677,0.5227137555183086,-0.012607836810485384,3,True
2024-07-24,0.5227137555183086,0.5243603887567347,0.3150162437935977,1,True
2024-07-25,0.5243603887567347,0.5218563357445379,-0.4775442741077218,3,True
2024-07-26,0.5218563357445379,0.5176428362604907,-0.8074060225858548,1,True
2024-07-27,0.5176428362604907,0.5229943306177267,1.033819843020689,3,True
2024-07-28,0.5229943306177267,0.5188966366189336,-0.7835063898213201,2,True
2024-07-29,0.5188966366189336,0.5188966366189336,0.0,0,False
2024-07-30,0.5188966366189336,0.516543112376614,-0.4535632101327347,2,True
2024-07-31,0.516543112376614,0.5069051305900102,-1.865862026938947,7,True
2024-08-01,0.5069051305900102,0.5036827164800024,-0.6357035893988838,1,True
2024-08-02,0.5036827164800024,0.4947873692919582,-1.7660616290766318,4,True
2024-08-03,0.4947873692919582,0.4917388172358508,-0.616133766807736,9,True
2024-08-04,0.4917388172358508,0.47530654680358037,-3.3416663188476914,7,True
2024-08-05,0.47530654680358037,0.46839906465859954,-1.4532688832992968,27,True
2024-08-06,0.46839906465859954,0.4684327223567091,0.0071856885824672645,0,True
2024-08-07,0.4684327223567091,0.4681107623696551,-0.06873131864788551,1,True
2024-08-08,0.4681107623696551,0.46609916004003843,-0.429727853175943,0,True
2024-08-09,0.46609916004003843,0.46609916004003843,0.0,0,False
2024-08-10,0.46609916004003843,0.46609916004003843,0.0,0,False
2024-08-11,0.46609916004003843,0.4661818637392012,0.01774379922838687,1,True
2024-08-12,0.4661818637392012,0.47164443039192894,1.171767303196436,3,True
2024-08-13,0.47164443039192894,0.46830282163346304,-0.7085016896497764,0,True
2024-08-14,0.46830282163346304,0.46830282163346304,0.0,0,False
2024-08-15,0.46830282163346304,0.46830282163346304,0.0,0,False
2024-08-16,0.46830282163346304,0.46830282163346304,0.0,0,False
2024-08-17,0.46830282163346304,0.4741423482958755,1.2469552590018251,1,True
2024-08-18,0.4741423482958755,0.48826755622721146,2.97910700913,4,True
2024-08-19,0.48826755622721146,0.4854700750344273,-0.5729402163027197,7,True
2024-08-20,0.4854700750344273,0.48343182282882635,-0.4198512556013667,3,True
2024-08-21,0.48343182282882635,0.48102229349283654,-0.4984217468122609,1,True
2024-08-22,0.48102229349283654,0.48216425781306893,0.23740361635637974,2,True
2024-08-23,0.48216425781306893,0.48216425781306893,0.0,0,False
2024-08-24,0.48216425781306893,0.48144597146495016,-0.1489712969137691,3,True
2024-08-25,0.48144597146495016,0.48015193187673466,-0.26878189140890907,2,True
2024-08-26,0.48015193187673466,0.47560849455235255,-0.9462499310631811,2,True
2024-08-27,0.47560849455235255,0.4754439574296047,-0.03459507654561822,1,True
2024-08-28,0.4754439574296047,0.47665319756705876,0.25433915365999926,4,True
2024-08-29,0.47665319756705876,0.4738369289374921,-0.5908422819654868,3,True
2024-08-30,0.4738369289374921,0.4738369289374921,0.0,0,False
2024-08-31,0.4738369289374921,0.4738369289374921,0.0,0,False
2024-09-01,0.4738369289374921,0.4714892131431023,-0.49546914793116015,1,True
2024-09-02,0.4714892131431023,0.4724038790922539,0.19399509546658145,1,True
2024-09-03,0.4724038790922539,0.4741617274168645,0.372107089380469,1,True
2024-09-04,0.4741617274168645,0.4733626791359248,-0.16851808881598318,0,True
2024-09-05,0.4733626791359248,0.46983810546054666,-0.74458207854744,3,True
2024-09-06,0.46983810546054666,0.4692352948854935,-0.1283017635324124,1,True
2024-09-07,0.4692352948854935,0.46941311840985467,0.03789645116201168,0,True
2024-09-08,0.46941311840985467,0.46941311840985467,0.0,0,False
2024-09-09,0.46941311840985467,0.46941311840985467,0.0,0,False
2024-09-10,0.46941311840985467,0.46941311840985467,0.0,0,False
2024-09-11,0.46941311840985467,0.4647494384631671,-0.9935129129935438,2,True
2024-09-12,0.4647494384631671,0.4647494384631671,0.0,0,False
2024-09-13,0.4647494384631671,0.46384509308852184,-0.1945877283113462,1,True
2024-09-14,0.46384509308852184,0.46384509308852184,0.0,0,False
2024-09-15,0.46384509308852184,0.4658860312979273,0.44000426862680353,3,True
2024-09-16,0.4658860312979273,0.46547329393034875,-0.08859191730404836,3,True
2024-09-17,0.46547329393034875,0.4631545184910159,-0.49815434517276325,1,True
2024-09-18,0.4631545184910159,0.46142315656343746,-0.37381950482083814,3,True
2024-09-19,0.46142315656343746,0.46268052065203547,0.2724969630832019,2,True
2024-09-20,0.46268052065203547,0.4648625860623261,0.4716138486261734,4,True
2024-09-21,0.4648625860623261,0.45803086649799907,-1.4696212965203181,7,True
2024-09-22,0.45803086649799907,0.46506064040949485,1.5347816982824503,3,True
2024-09-23,0.46506064040949485,0.4616196105232948,-0.7399099358677552,0,True
2024-09-24,0.4616196105232948,0.4616196105232948,0.0,0,False
2024-09-25,0.4616196105232948,0.4616196105232948,0.0,0,False
2024-09-26,0.4616196105232948,0.4616196105232948,0.0,0,False
2024-09-27,0.4616196105232948,0.459399893187255,-0.4808542110079639,1,True
2024-09-28,0.459399893187255,0.459399893187255,0.0,0,False
2024-09-29,0.459399893187255,0.459399893187255,0.0,0,False
2024-09-30,0.459399893187255,0.4559657568107339,-0.7475265944655529,2,True
2024-10-01,0.4559657568107339,0.4574041196694436,0.31545414040965447,0,True
2024-10-02,0.4574041196694436,0.4414737298920808,-3.4827823126900137,14,True
2024-10-03,0.4414737298920808,0.44172147236558656,0.05611714961304415,3,True
2024-10-04,0.44172147236558656,0.43971857850396745,-0.4534291373459509,3,True
2024-10-05,0.43971857850396745,0.4386051106638006,-0.2532228326479036,0,True
2024-10-06,0.4386051106638006,0.4386051106638006,0.0,0,False
2024-10-07,0.4386051106638006,0.4386051106638006,0.0,0,False
2024-10-08,0.4386051106638006,0.43484885068113405,-0.856410445601441,2,True
2024-10-09,0.43484885068113405,0.43484885068113405,0.0,0,False
2024-10-10,0.43484885068113405,0.43484885068113405,0.0,0,False
2024-10-11,0.43484885068113405,0.43344927668986183,-0.3218529815773863,1,True
2024-10-12,0.43344927668986183,0.4341336768734489,0.15789625693083398,1,True
2024-10-13,0.4341336768734489,0.4341336768734489,0.0,0,False
2024-10-14,0.4341336768734489,0.4341336768734489,0.0,0,False
2024-10-15,0.4341336768734489,0.429883901952809,-0.9789092961518198,3,True
2024-10-16,0.429883901952809,0.4271658318493664,-0.6322800391211136,5,True
2024-10-17,0.4271658318493664,0.4269539910937278,-0.04959215832442965,2,True
2024-10-18,0.4269539910937278,0.43870552303499416,2.7524117788810143,3,True
2024-10-19,0.43870552303499416,0.43655662296429393,-0.4898274486799248,2,True
2024-10-20,0.43655662296429393,0.440016951228606,0.7926413395852094,3,True
2024-10-21,0.440016951228606,0.4398872976360992,-0.029465590392552254,7,True
2024-10-22,0.4398872976360992,0.43803202334735397,-0.4217612781081015,3,True
2024-10-23,0.43803202334735397,0.4324277591721438,-1.2794188270490947,5,True
2024-10-24,0.4324277591721438,0.4292955690812308,-0.7243267862612313,3,True
2024-10-25,0.4292955690812308,0.4259043831503911,-0.789941982885467,3,True
2024-10-26,0.4259043831503911,0.4254804025581521,-0.09954830450507046,10,True
2024-10-27,0.4254804025581521,0.42178795474468056,-0.8678302904836843,2,True
2024-10-28,0.42178795474468056,0.4196856698671476,-0.49842221758217287,1,True
2024-10-29,0.4196856698671476,0.42516773241498657,1.3062305771779803,2,True
2024-10-30,0.42516773241498657,0.42516773241498657,0.0,0,False
2024-10-31,0.42516773241498657,0.424828929099261,-0.07968697760790677,1,True
2024-11-01,0.424828929099261,0.4213933798684733,-0.8086900386166995,3,True
2024-11-02,0.4213933798684733,0.4220921850365622,0.16583202334763403,1,True
2024-11-03,0.4220921850365622,0.42017888556041855,-0.45328948129611524,3,True
2024-11-04,0.42017888556041855,0.4230798165196761,0.6904037920392847,4,True
2024-11-05,0.4230798165196761,0.4209760537611075,-0.497249614948414,1,True
2024-11-06,0.4209760537611075,0.4220052783970041,0.24448531613643354,3,True
2024-11-07,0.4220052783970041,0.42206949818426487,0.015217768721931257,4,True
2024-11-08,0.42206949818426487,0.4199723538686972,-0.49687180063698877,2,True
2024-11-09,0.4199723538686972,0.4199383549464079,-0.008095514377570723,2,True
2024-11-10,0.4199383549464079,0.42164006380618607,0.4052282530838003,7,True
2024-11-11,0.42164006380618607,0.41646757814820956,-1.226753836265937,11,True
2024-11-12,0.41646757814820956,0.3990984901278764,-4.170573876978234,10,True
2024-11-13,0.3990984901278764,0.40816283909976636,2.271206029615813,8,True
2024-11-14,0.40816283909976636,0.41121421718924944,0.7475884125593302,8,True
2024-11-15,0.41121421718924944,0.4151269200088165,0.9514998888684678,9,True
2024-11-16,0.4151269200088165,0.41712451578330684,0.48120121298034224,8,True
2024-11-17,0.41712451578330684,0.41846304858216954,0.3208952598600323,14,True
2024-11-18,0.41846304858216954,0.4211550145868418,0.6432983781466728,7,True
2024-11-19,0.4211550145868418,0.4119619766533624,-2.1828157365044953,10,True
2024-11-20,0.4119619766533624,0.4077383866527867,-1.025237822890035,4,True
2024-11-21,0.4077383866527867,0.4137500544096764,1.4743933742026982,6,True
2024-11-22,0.4137500544096764,0.41424338450266135,0.11923384365202239,8,True
2024-11-23,0.41424338450266135,0.41234976932296524,-0.45712623316110923,1,True
2024-11-24,0.41234976932296524,0.40790989871696287,-1.0767244063922154,24,True
2024-11-25,0.40790989871696287,0.4077320827656591,-0.043591967702449885,9,True
2024-11-26,0.4077320827656591,0.4001181421383168,-1.86738815736468,12,True
2024-11-27,0.4001181421383168,0.4032613222011841,0.7855629954866439,7,True
2024-11-28,0.4032613222011841,0.40490808460500494,0.40836110808546433,5,True
2024-11-29,0.40490808460500494,0.40704127450217076,0.5268331204714816,6,True
2024-11-30,0.40704127450217076,0.4073343571489128,0.07200317636104625,4,True
2024-12-01,0.4073343571489128,0.4034488611512074,-0.9538836902689529,6,True
2024-12-02,0.4034488611512074,0.41222606788814137,2.1755438128859605,11,True
2024-12-03,0.41222606788814137,0.41523915265425515,0.7309301863295481,19,True
2024-12-04,0.41523915265425515,0.4194564091640407,1.0156211144417338,9,True
2024-12-05,0.4194564091640407,0.42256060531763556,0.7400521450563691,11,True
2024-12-06,0.42256060531763556,0.4195301843399402,-0.7171565308170202,10,True
2024-12-07,0.4195301843399402,0.420017478332628,0.11615230819552735,5,True
2024-12-08,0.420017478332628,0.41930731384926107,-0.16907974548728832,0,True
2024-12-09,0.41930731384926107,0.4190494200067519,-0.061504732684414254,2,True
2024-12-10,0.4190494200067519,0.3986756850757202,-4.861893122463556,26,True
2024-12-11,0.3986756850757202,0.407802589245273,2.2893054458084983,11,True
2024-12-12,0.407802589245273,0.4065309386229814,-0.31182995297922567,2,True
2024-12-13,0.4065309386229814,0.40650783602073554,-0.005682864463918413,1,True
2024-12-14,0.40650783602073554,0.40650783602073554,0.0,0,False
2024-12-15,0.40650783602073554,0.40022008066471915,-1.5467734687642398,4,True
2024-12-16,0.40022008066471915,0.3991813898539404,-0.2595299089075187,0,True
2024-12-17,0.3991813898539404,0.3991813898539404,0.0,0,False
2024-12-18,0.3991813898539404,0.3933822094758269,-1.4527682215434434,4,True
2024-12-19,0.3933822094758269,0.3906057314591049,-0.7057965382882059,13,True
2024-12-20,0.3906057314591049,0.37301300059002573,-4.5039612714748545,25,True
2024-12-21,0.37301300059002573,0.3806387442356451,2.044364039204294,3,True
2024-12-22,0.3806387442356451,0.38222347625697856,0.4163349226353086,2,True
2024-12-23,0.38222347625697856,0.3806800765383044,-0.4037951132118578,5,True
2024-12-24,0.3806800765383044,0.3806800765383044,0.0,0,False
2024-12-25,0.3806800765383044,0.38351758434176886,0.7453785943480895,4,True
2024-12-26,0.38351758434176886,0.38071180134370164,-0.7315917477115907,3,True
2024-12-27,0.38071180134370164,0.3814278501214561,0.1880815817180359,0,True
2024-12-28,0.3814278501214561,0.37621638693907833,-1.3663037926355592,4,True
2024-12-29,0.37621638693907833,0.3771731502936617,0.25431198315619685,6,True
2024-12-30,0.3771731502936617,0.37353450278197114,-0.9647154122337631,6,True
2024-12-31,0.37353450278197114,0.3722585767425645,-0.34158184315074,3,True
