day,start_equity,end_equity,return_pct,entries,active
2024-01-02,1.0,0.9989153035442373,-0.10846964557627015,1,True
2024-01-03,0.9989153035442373,0.9911614874099226,-0.7762235803980055,9,True
2024-01-04,0.9911614874099226,0.9977057891450402,0.6602659423560642,0,True
2024-01-05,0.9977057891450402,0.982970938753975,-1.4768732978578614,4,True
2024-01-06,0.982970938753975,0.9724781167021812,-1.067460047709512,7,True
2024-01-07,0.9724781167021812,0.970736956025961,-0.17904368708313578,3,True
2024-01-08,0.970736956025961,0.9506758169481111,-2.066588580286155,4,True
2024-01-09,0.9506758169481111,0.9506758169481111,0.0,0,False
2024-01-10,0.9506758169481111,0.9415257724040981,-0.9624778900326647,4,True
2024-01-11,0.9415257724040981,0.9580768266905857,1.7578971039981184,3,True
2024-01-12,0.9580768266905857,0.9376914321995466,-2.1277411083466924,3,True
2024-01-13,0.9376914321995466,0.9331611564982581,-0.4831307555686837,6,True
2024-01-14,0.9331611564982581,0.9380464601051199,0.5235219632581112,0,True
2024-01-15,0.9380464601051199,0.9327325397966328,-0.5664879656271604,2,True
2024-01-16,0.9327325397966328,0.933688538749875,0.10249443569865235,1,True
2024-01-17,0.933688538749875,0.938761323432699,0.5433058747423392,0,True
2024-01-18,0.938761323432699,0.9379125598808299,-0.09041313597853984,1,True
2024-01-19,0.9379125598808299,0.9294086980165753,-0.9066796019167378,1,True
2024-01-20,0.9294086980165753,0.9497249867937226,2.1859370178591853,7,True
2024-01-21,0.9497249867937226,0.9620069548700961,1.293213114023417,1,True
2024-01-22,0.9620069548700961,0.9422836038368004,-2.050229567826667,4,True
2024-01-23,0.9422836038368004,0.9228596435131288,-2.0613709338230035,8,True
2024-01-24,0.9228596435131288,0.9221452506886264,-0.07741077741603153,1,True
2024-01-25,0.9221452506886264,0.9127385231641697,-1.0200917390651987,2,True
2024-01-26,0.9127385231641697,0.9127385231641697,0.0,0,False
2024-01-27,0.9127385231641697,0.9127385231641697,0.0,0,False
2024-01-28,0.9127385231641697,0.9108429127089055,-0.20768384451361754,1,True
2024-01-29,0.9108429127089055,0.9081771626566594,-0.29266847389941564,0,True
2024-01-30,0.9081771626566594,0.9081771626566594,0.0,0,False
2024-01-31,0.9081771626566594,0.9036466690598993,-0.49885570602845597,1,True
2024-02-01,0.9036466690598993,0.9036466690598993,0.0,0,False
2024-02-02,0.9036466690598993,0.9019032438167844,-0.19293218276659196,2,True
2024-02-03,0.9019032438167844,0.9091552166796104,0.8040743741131395,1,True
2024-02-04,0.9091552166796104,0.9084728116913576,-0.07505923914126189,1,True
2024-02-05,0.9084728116913576,0.9084728116913576,0.0,0,False
2024-02-06,0.9084728116913576,0.9053936210505068,-0.3389414191843687,2,True
2024-02-07,0.9053936210505068,0.9029299463338071,-0.27211089844449976,4,True
2024-02-08,0.9029299463338071,0.9148387466179543,1.318906337363246,1,True
2024-02-09,0.9148387466179543,0.9148387466179543,0.0,0,False
2024-02-10,0.9148387466179543,0.9120873951674596,-0.3007471492288749,2,True
2024-02-11,0.9120873951674596,0.9112161826899275,-0.09551853058687998,0,True
2024-02-12,0.9112161826899275,0.9121358009532265,0.1009220732432814,1,True
2024-02-13,0.9121358009532265,0.9121692924367716,0.003671765049673148,0,True
2024-02-14,0.9121692924367716,0.9128370187509116,0.07320201630074408,2,True
2024-02-15,0.9128370187509116,0.9145112848435429,0.18341347450197,1,True
2024-02-16,0.9145112848435429,0.9158278885634679,0.14396801239584534,3,True
2024-02-17,0.9158278885634679,0.9173786372542609,0.16932752432616827,5,True
2024-02-18,0.9173786372542609,0.9190283455962616,0.1798285108249642,1,True
2024-02-19,0.9190283455962616,0.9195747849224818,0.05945837566803114,2,True
2024-02-20,0.9195747849224818,0.9185967485148908,-0.10635746256063561,8,True
2024-02-21,0.9185967485148908,0.9158154941731383,-0.30277206470075146,7,True
2024-02-22,0.9158154941731383,0.9385746559284724,2.485125213554351,4,True
2024-02-23,0.9385746559284724,0.9369111082850333,-0.17724190962662423,3,True
2024-02-24,0.9369111082850333,0.9350750827232024,-0.19596582275469565,5,True
2024-02-25,0.9350750827232024,0.9310130121945669,-0.4344111615941726,4,True
2024-02-26,0.9310130121945669,0.9299191521435916,-0.1174913816077483,4,True
2024-02-27,0.9299191521435916,0.9308953036520644,0.1049716533122913,2,True
2024-02-28,0.9308953036520644,0.9356354656626565,0.5092046325720689,5,True
2024-02-29,0.9356354656626565,0.9362606221700874,0.06681624739268699,8,True
2024-03-01,0.9362606221700874,0.9357086242698742,-0.05895771830430885,5,True
2024-03-02,0.9357086242698742,0.9381998806782508,0.2662427537547307,4,True
2024-03-03,0.9381998806782508,0.9391312071144289,0.09926737951670983,9,True
2024-03-04,0.9391312071144289,0.9453386125917203,0.6609731878002734,1,True
2024-03-05,0.9453386125917203,0.9447866274629367,-0.058390202349845044,10,True
2024-03-06,0.9447866274629367,0.9402959397054481,-0.47531237498011913,16,True
2024-03-07,0.9402959397054481,0.9418461796232616,0.16486723512803003,3,True
2024-03-08,0.9418461796232616,0.9438337789509927,0.21103226521832497,5,True
2024-03-09,0.9438337789509927,0.9378214878983822,-0.637007403919454,5,True
2024-03-10,0.9378214878983822,0.9367622142134289,-0.11295046004192733,8,True
2024-03-11,0.9367622142134289,0.9374725353385037,0.07582726056807321,3,True
2024-03-12,0.9374725353385037,0.9350743858835242,-0.2558101026515547,3,True
2024-03-13,0.9350743858835242,0.9387619960926182,0.3943654392382534,5,True
2024-03-14,0.9387619960926182,0.9398571636067501,0.11666082763153174,5,True
2024-03-15,0.9398571636067501,0.9184488279505044,-2.277828640906465,10,True
2024-03-16,0.9184488279505044,0.9191399517936466,0.07524903098676816,3,True
2024-03-17,0.9191399517936466,0.915211574174926,-0.4273971130353549,6,True
2024-03-18,0.915211574174926,0.9179294298740529,0.2969647429969413,4,True
2024-03-19,0.9179294298740529,0.9107976730412558,-0.7769395555577319,14,True
2024-03-20,0.9107976730412558,0.9046571940339704,-0.6741869450304638,4,True
2024-03-21,0.9046571940339704,0.9042085184406119,-0.049596200231138976,4,True
2024-03-22,0.9042085184406119,0.9094441464429631,0.5790288296974477,8,True
2024-03-23,0.9094441464429631,0.9175535040397533,0.8916828623844353,5,True
2024-03-24,0.9175535040397533,0.9205689427817711,0.3286390089233704,4,True
2024-03-25,0.9205689427817711,0.926266493253665,0.6189162166037265,4,True
2024-03-26,0.926266493253665,0.9311262638767774,0.5246622498501274,4,True
2024-03-27,0.9311262638767774,0.929142452094077,-0.21305507745434937,6,True
2024-03-28,0.929142452094077,0.9239444440990726,-0.5594414487562371,2,True
2024-03-29,0.9239444440990726,0.9215122443411743,-0.26324090949753076,6,True
2024-03-30,0.9215122443411743,0.9170356206899241,-0.4857910113230002,2,True
2024-03-31,0.9170356206899241,0.9169952360170961,-0.004403828152022005,0,True
2024-04-01,0.9169952360170961,0.9159888908023501,-0.1097437778539545,5,True
2024-04-02,0.9159888908023501,0.9024213861890191,-1.4811865896590448,5,True
2024-04-03,0.9024213861890191,0.8920721909975169,-1.1468251251455341,3,True
2024-04-04,0.8920721909975169,0.8917329075661201,-0.0380331810385659,1,True
2024-04-05,0.8917329075661201,0.8885782909692989,-0.35376249660129533,5,True
2024-04-06,0.8885782909692989,0.8862673417578589,-0.2600726615680671,1,True
2024-04-07,0.8862673417578589,0.8927211022874141,0.728195683793853,3,True
2024-04-08,0.8927211022874141,0.8907396351823521,-0.2219581345153432,1,True
2024-04-09,0.8907396351823521,0.8860413162807773,-0.5274626519356507,3,True
2024-04-10,0.8860413162807773,0.8859188824065005,-0.013818077331961831,4,True
2024-04-11,0.8859188824065005,0.88920204047099,0.37059353059178957,1,True
2024-04-12,0.88920204047099,0.8875118734682457,-0.1900768245931106,9,True
2024-04-13,0.8875118734682457,0.8733964780063234,-1.5904458164330504,11,True
2024-04-14,0.8733964780063234,0.8541664669699618,-2.2017504673544575,7,True
2024-04-15,0.8541664669699618,0.852903969786558,-0.1478045828563479,4,True
2024-04-16,0.852903969786558,0.852903969786558,0.0,0,False
2024-04-17,0.852903969786558,0.852903969786558,0.0,0,False
2024-04-18,0.852903969786558,0.852903969786558,0.0,0,False
2024-04-19,0.852903969786558,0.852903969786558,0.0,0,False
2024-04-20,0.852903969786558,0.852903969786558,0.0,0,False
2024-04-21,0.852903969786558,0.852903969786558,0.0,0,False
2024-04-22,0.852903969786558,0.852903969786558,0.0,0,False
2024-04-23,0.852903969786558,0.852903969786558,0.0,0,False
2024-04-24,0.852903969786558,0.852903969786558,0.0,0,False
2024-04-25,0.852903969786558,0.852903969786558,0.0,0,False
2024-04-26,0.852903969786558,0.852903969786558,0.0,0,False
2024-04-27,0.852903969786558,0.852903969786558,0.0,0,False
2024-04-28,0.852903969786558,0.852903969786558,0.0,0,False
2024-04-29,0.852903969786558,0.852903969786558,0.0,0,False
2024-04-30,0.852903969786558,0.852903969786558,0.0,0,False
2024-05-01,0.852903969786558,0.852903969786558,0.0,0,False
2024-05-02,0.852903969786558,0.852903969786558,0.0,0,False
2024-05-03,0.852903969786558,0.852903969786558,0.0,0,False
2024-05-04,0.852903969786558,0.852903969786558,0.0,0,False
2024-05-05,0.852903969786558,0.852903969786558,0.0,0,False
2024-05-06,0.852903969786558,0.852903969786558,0.0,0,False
2024-05-07,0.852903969786558,0.852903969786558,0.0,0,False
2024-05-08,0.852903969786558,0.852903969786558,0.0,0,False
2024-05-09,0.852903969786558,0.852903969786558,0.0,0,False
2024-05-10,0.852903969786558,0.852903969786558,0.0,0,False
2024-05-11,0.852903969786558,0.852903969786558,0.0,0,False
2024-05-12,0.852903969786558,0.852903969786558,0.0,0,False
2024-05-13,0.852903969786558,0.852903969786558,0.0,0,False
2024-05-14,0.852903969786558,0.852903969786558,0.0,0,False
2024-05-15,0.852903969786558,0.852903969786558,0.0,0,False
2024-05-16,0.852903969786558,0.852903969786558,0.0,0,False
2024-05-17,0.852903969786558,0.852903969786558,0.0,0,False
2024-05-18,0.852903969786558,0.852903969786558,0.0,0,False
2024-05-19,0.852903969786558,0.852903969786558,0.0,0,False
2024-05-20,0.852903969786558,0.852903969786558,0.0,0,False
2024-05-21,0.852903969786558,0.852903969786558,0.0,0,False
2024-05-22,0.852903969786558,0.852903969786558,0.0,0,False
2024-05-23,0.852903969786558,0.852903969786558,0.0,0,False
2024-05-24,0.852903969786558,0.852903969786558,0.0,0,False
2024-05-25,0.852903969786558,0.852903969786558,0.0,0,False
2024-05-26,0.852903969786558,0.852903969786558,0.0,0,False
2024-05-27,0.852903969786558,0.852903969786558,0.0,0,False
2024-05-28,0.852903969786558,0.852903969786558,0.0,0,False
2024-05-29,0.852903969786558,0.852903969786558,0.0,0,False
2024-05-30,0.852903969786558,0.852903969786558,0.0,0,False
2024-05-31,0.852903969786558,0.852903969786558,0.0,0,False
2024-06-01,0.852903969786558,0.852903969786558,0.0,0,False
2024-06-02,0.852903969786558,0.852903969786558,0.0,0,False
2024-06-03,0.852903969786558,0.852903969786558,0.0,0,False
2024-06-04,0.852903969786558,0.852903969786558,0.0,0,False
2024-06-05,0.852903969786558,0.852903969786558,0.0,0,False
2024-06-06,0.852903969786558,0.852903969786558,0.0,0,False
2024-06-07,0.852903969786558,0.852903969786558,0.0,0,False
2024-06-08,0.852903969786558,0.852903969786558,0.0,0,False
2024-06-09,0.852903969786558,0.852903969786558,0.0,0,False
2024-06-10,0.852903969786558,0.852903969786558,0.0,0,False
2024-06-11,0.852903969786558,0.852903969786558,0.0,0,False
2024-06-12,0.852903969786558,0.852903969786558,0.0,0,False
2024-06-13,0.852903969786558,0.852903969786558,0.0,0,False
2024-06-14,0.852903969786558,0.852903969786558,0.0,0,False
2024-06-15,0.852903969786558,0.852903969786558,0.0,0,False
2024-06-16,0.852903969786558,0.852903969786558,0.0,0,False
2024-06-17,0.852903969786558,0.852903969786558,0.0,0,False
2024-06-18,0.852903969786558,0.852903969786558,0.0,0,False
2024-06-19,0.852903969786558,0.852903969786558,0.0,0,False
2024-06-20,0.852903969786558,0.852903969786558,0.0,0,False
2024-06-21,0.852903969786558,0.852903969786558,0.0,0,False
2024-06-22,0.852903969786558,0.852903969786558,0.0,0,False
2024-06-23,0.852903969786558,0.852903969786558,0.0,0,False
2024-06-24,0.852903969786558,0.852903969786558,0.0,0,False
2024-06-25,0.852903969786558,0.852903969786558,0.0,0,False
2024-06-26,0.852903969786558,0.852903969786558,0.0,0,False
2024-06-27,0.852903969786558,0.852903969786558,0.0,0,False
2024-06-28,0.852903969786558,0.852903969786558,0.0,0,False
2024-06-29,0.852903969786558,0.852903969786558,0.0,0,False
2024-06-30,0.852903969786558,0.852903969786558,0.0,0,False
2024-07-01,0.852903969786558,0.852903969786558,0.0,0,False
2024-07-02,0.852903969786558,0.852903969786558,0.0,0,False
2024-07-03,0.852903969786558,0.852903969786558,0.0,0,False
2024-07-04,0.852903969786558,0.852903969786558,0.0,0,False
2024-07-05,0.852903969786558,0.852903969786558,0.0,0,False
2024-07-06,0.852903969786558,0.852903969786558,0.0,0,False
2024-07-07,0.852903969786558,0.852903969786558,0.0,0,False
2024-07-08,0.852903969786558,0.852903969786558,0.0,0,False
2024-07-09,0.852903969786558,0.852903969786558,0.0,0,False
2024-07-10,0.852903969786558,0.852903969786558,0.0,0,False
2024-07-11,0.852903969786558,0.852903969786558,0.0,0,False
2024-07-12,0.852903969786558,0.852903969786558,0.0,0,False
2024-07-13,0.852903969786558,0.852903969786558,0.0,0,False
2024-07-14,0.852903969786558,0.852903969786558,0.0,0,False
2024-07-15,0.852903969786558,0.852903969786558,0.0,0,False
2024-07-16,0.852903969786558,0.852903969786558,0.0,0,False
2024-07-17,0.852903969786558,0.852903969786558,0.0,0,False
2024-07-18,0.852903969786558,0.852903969786558,0.0,0,False
2024-07-19,0.852903969786558,0.852903969786558,0.0,0,False
2024-07-20,0.852903969786558,0.852903969786558,0.0,0,False
2024-07-21,0.852903969786558,0.852903969786558,0.0,0,False
2024-07-22,0.852903969786558,0.852903969786558,0.0,0,False
2024-07-23,0.852903969786558,0.852903969786558,0.0,0,False
2024-07-24,0.852903969786558,0.852903969786558,0.0,0,False
2024-07-25,0.852903969786558,0.852903969786558,0.0,0,False
2024-07-26,0.852903969786558,0.852903969786558,0.0,0,False
2024-07-27,0.852903969786558,0.852903969786558,0.0,0,False
2024-07-28,0.852903969786558,0.852903969786558,0.0,0,False
2024-07-29,0.852903969786558,0.852903969786558,0.0,0,False
2024-07-30,0.852903969786558,0.852903969786558,0.0,0,False
2024-07-31,0.852903969786558,0.852903969786558,0.0,0,False
2024-08-01,0.852903969786558,0.852903969786558,0.0,0,False
2024-08-02,0.852903969786558,0.852903969786558,0.0,0,False
2024-08-03,0.852903969786558,0.852903969786558,0.0,0,False
2024-08-04,0.852903969786558,0.852903969786558,0.0,0,False
2024-08-05,0.852903969786558,0.852903969786558,0.0,0,False
2024-08-06,0.852903969786558,0.852903969786558,0.0,0,False
2024-08-07,0.852903969786558,0.852903969786558,0.0,0,False
2024-08-08,0.852903969786558,0.852903969786558,0.0,0,False
2024-08-09,0.852903969786558,0.852903969786558,0.0,0,False
2024-08-10,0.852903969786558,0.852903969786558,0.0,0,False
2024-08-11,0.852903969786558,0.852903969786558,0.0,0,False
2024-08-12,0.852903969786558,0.852903969786558,0.0,0,False
2024-08-13,0.852903969786558,0.852903969786558,0.0,0,False
2024-08-14,0.852903969786558,0.852903969786558,0.0,0,False
2024-08-15,0.852903969786558,0.852903969786558,0.0,0,False
2024-08-16,0.852903969786558,0.852903969786558,0.0,0,False
2024-08-17,0.852903969786558,0.852903969786558,0.0,0,False
2024-08-18,0.852903969786558,0.852903969786558,0.0,0,False
2024-08-19,0.852903969786558,0.852903969786558,0.0,0,False
2024-08-20,0.852903969786558,0.852903969786558,0.0,0,False
2024-08-21,0.852903969786558,0.852903969786558,0.0,0,False
2024-08-22,0.852903969786558,0.852903969786558,0.0,0,False
2024-08-23,0.852903969786558,0.852903969786558,0.0,0,False
2024-08-24,0.852903969786558,0.852903969786558,0.0,0,False
2024-08-25,0.852903969786558,0.852903969786558,0.0,0,False
2024-08-26,0.852903969786558,0.852903969786558,0.0,0,False
2024-08-27,0.852903969786558,0.852903969786558,0.0,0,False
2024-08-28,0.852903969786558,0.852903969786558,0.0,0,False
2024-08-29,0.852903969786558,0.852903969786558,0.0,0,False
2024-08-30,0.852903969786558,0.852903969786558,0.0,0,False
2024-08-31,0.852903969786558,0.852903969786558,0.0,0,False
2024-09-01,0.852903969786558,0.852903969786558,0.0,0,False
2024-09-02,0.852903969786558,0.852903969786558,0.0,0,False
2024-09-03,0.852903969786558,0.852903969786558,0.0,0,False
2024-09-04,0.852903969786558,0.852903969786558,0.0,0,False
2024-09-05,0.852903969786558,0.852903969786558,0.0,0,False
2024-09-06,0.852903969786558,0.852903969786558,0.0,0,False
2024-09-07,0.852903969786558,0.852903969786558,0.0,0,False
2024-09-08,0.852903969786558,0.852903969786558,0.0,0,False
2024-09-09,0.852903969786558,0.852903969786558,0.0,0,False
2024-09-10,0.852903969786558,0.852903969786558,0.0,0,False
2024-09-11,0.852903969786558,0.852903969786558,0.0,0,False
2024-09-12,0.852903969786558,0.852903969786558,0.0,0,False
2024-09-13,0.852903969786558,0.852903969786558,0.0,0,False
2024-09-14,0.852903969786558,0.852903969786558,0.0,0,False
2024-09-15,0.852903969786558,0.852903969786558,0.0,0,False
2024-09-16,0.852903969786558,0.852903969786558,0.0,0,False
2024-09-17,0.852903969786558,0.852903969786558,0.0,0,False
2024-09-18,0.852903969786558,0.852903969786558,0.0,0,False
2024-09-19,0.852903969786558,0.852903969786558,0.0,0,False
2024-09-20,0.852903969786558,0.852903969786558,0.0,0,False
2024-09-21,0.852903969786558,0.852903969786558,0.0,0,False
2024-09-22,0.852903969786558,0.852903969786558,0.0,0,False
2024-09-23,0.852903969786558,0.852903969786558,0.0,0,False
2024-09-24,0.852903969786558,0.852903969786558,0.0,0,False
2024-09-25,0.852903969786558,0.852903969786558,0.0,0,False
2024-09-26,0.852903969786558,0.852903969786558,0.0,0,False
2024-09-27,0.852903969786558,0.852903969786558,0.0,0,False
2024-09-28,0.852903969786558,0.852903969786558,0.0,0,False
2024-09-29,0.852903969786558,0.852903969786558,0.0,0,False
2024-09-30,0.852903969786558,0.852903969786558,0.0,0,False
2024-10-01,0.852903969786558,0.852903969786558,0.0,0,False
2024-10-02,0.852903969786558,0.852903969786558,0.0,0,False
2024-10-03,0.852903969786558,0.852903969786558,0.0,0,False
2024-10-04,0.852903969786558,0.852903969786558,0.0,0,False
2024-10-05,0.852903969786558,0.852903969786558,0.0,0,False
2024-10-06,0.852903969786558,0.852903969786558,0.0,0,False
2024-10-07,0.852903969786558,0.852903969786558,0.0,0,False
2024-10-08,0.852903969786558,0.852903969786558,0.0,0,False
2024-10-09,0.852903969786558,0.852903969786558,0.0,0,False
2024-10-10,0.852903969786558,0.852903969786558,0.0,0,False
2024-10-11,0.852903969786558,0.852903969786558,0.0,0,False
2024-10-12,0.852903969786558,0.852903969786558,0.0,0,False
2024-10-13,0.852903969786558,0.852903969786558,0.0,0,False
2024-10-14,0.852903969786558,0.852903969786558,0.0,0,False
2024-10-15,0.852903969786558,0.852903969786558,0.0,0,False
2024-10-16,0.852903969786558,0.852903969786558,0.0,0,False
2024-10-17,0.852903969786558,0.852903969786558,0.0,0,False
2024-10-18,0.852903969786558,0.852903969786558,0.0,0,False
2024-10-19,0.852903969786558,0.852903969786558,0.0,0,False
2024-10-20,0.852903969786558,0.852903969786558,0.0,0,False
2024-10-21,0.852903969786558,0.852903969786558,0.0,0,False
2024-10-22,0.852903969786558,0.852903969786558,0.0,0,False
2024-10-23,0.852903969786558,0.852903969786558,0.0,0,False
2024-10-24,0.852903969786558,0.852903969786558,0.0,0,False
2024-10-25,0.852903969786558,0.852903969786558,0.0,0,False
2024-10-26,0.852903969786558,0.852903969786558,0.0,0,False
2024-10-27,0.852903969786558,0.852903969786558,0.0,0,False
2024-10-28,0.852903969786558,0.852903969786558,0.0,0,False
2024-10-29,0.852903969786558,0.852903969786558,0.0,0,False
2024-10-30,0.852903969786558,0.852903969786558,0.0,0,False
2024-10-31,0.852903969786558,0.852903969786558,0.0,0,False
2024-11-01,0.852903969786558,0.852903969786558,0.0,0,False
2024-11-02,0.852903969786558,0.852903969786558,0.0,0,False
2024-11-03,0.852903969786558,0.852903969786558,0.0,0,False
2024-11-04,0.852903969786558,0.852903969786558,0.0,0,False
2024-11-05,0.852903969786558,0.852903969786558,0.0,0,False
2024-11-06,0.852903969786558,0.852903969786558,0.0,0,False
2024-11-07,0.852903969786558,0.852903969786558,0.0,0,False
2024-11-08,0.852903969786558,0.852903969786558,0.0,0,False
2024-11-09,0.852903969786558,0.852903969786558,0.0,0,False
2024-11-10,0.852903969786558,0.852903969786558,0.0,0,False
2024-11-11,0.852903969786558,0.852903969786558,0.0,0,False
2024-11-12,0.852903969786558,0.852903969786558,0.0,0,False
2024-11-13,0.852903969786558,0.852903969786558,0.0,0,False
2024-11-14,0.852903969786558,0.852903969786558,0.0,0,False
2024-11-15,0.852903969786558,0.852903969786558,0.0,0,False
2024-11-16,0.852903969786558,0.852903969786558,0.0,0,False
2024-11-17,0.852903969786558,0.852903969786558,0.0,0,False
2024-11-18,0.852903969786558,0.852903969786558,0.0,0,False
2024-11-19,0.852903969786558,0.852903969786558,0.0,0,False
2024-11-20,0.852903969786558,0.852903969786558,0.0,0,False
2024-11-21,0.852903969786558,0.852903969786558,0.0,0,False
2024-11-22,0.852903969786558,0.852903969786558,0.0,0,False
2024-11-23,0.852903969786558,0.852903969786558,0.0,0,False
2024-11-24,0.852903969786558,0.852903969786558,0.0,0,False
2024-11-25,0.852903969786558,0.852903969786558,0.0,0,False
2024-11-26,0.852903969786558,0.852903969786558,0.0,0,False
2024-11-27,0.852903969786558,0.852903969786558,0.0,0,False
2024-11-28,0.852903969786558,0.852903969786558,0.0,0,False
2024-11-29,0.852903969786558,0.852903969786558,0.0,0,False
2024-11-30,0.852903969786558,0.852903969786558,0.0,0,False
2024-12-01,0.852903969786558,0.852903969786558,0.0,0,False
2024-12-02,0.852903969786558,0.852903969786558,0.0,0,False
2024-12-03,0.852903969786558,0.852903969786558,0.0,0,False
2024-12-04,0.852903969786558,0.852903969786558,0.0,0,False
2024-12-05,0.852903969786558,0.852903969786558,0.0,0,False
2024-12-06,0.852903969786558,0.852903969786558,0.0,0,False
2024-12-07,0.852903969786558,0.852903969786558,0.0,0,False
2024-12-08,0.852903969786558,0.852903969786558,0.0,0,False
2024-12-09,0.852903969786558,0.852903969786558,0.0,0,False
2024-12-10,0.852903969786558,0.852903969786558,0.0,0,False
2024-12-11,0.852903969786558,0.852903969786558,0.0,0,False
2024-12-12,0.852903969786558,0.852903969786558,0.0,0,False
2024-12-13,0.852903969786558,0.852903969786558,0.0,0,False
2024-12-14,0.852903969786558,0.852903969786558,0.0,0,False
2024-12-15,0.852903969786558,0.852903969786558,0.0,0,False
2024-12-16,0.852903969786558,0.852903969786558,0.0,0,False
2024-12-17,0.852903969786558,0.852903969786558,0.0,0,False
2024-12-18,0.852903969786558,0.852903969786558,0.0,0,False
2024-12-19,0.852903969786558,0.852903969786558,0.0,0,False
2024-12-20,0.852903969786558,0.852903969786558,0.0,0,False
2024-12-21,0.852903969786558,0.852903969786558,0.0,0,False
2024-12-22,0.852903969786558,0.852903969786558,0.0,0,False
2024-12-23,0.852903969786558,0.852903969786558,0.0,0,False
2024-12-24,0.852903969786558,0.852903969786558,0.0,0,False
2024-12-25,0.852903969786558,0.852903969786558,0.0,0,False
2024-12-26,0.852903969786558,0.852903969786558,0.0,0,False
2024-12-27,0.852903969786558,0.852903969786558,0.0,0,False
2024-12-28,0.852903969786558,0.852903969786558,0.0,0,False
2024-12-29,0.852903969786558,0.852903969786558,0.0,0,False
2024-12-30,0.852903969786558,0.852903969786558,0.0,0,False
2024-12-31,0.852903969786558,0.852903969786558,0.0,0,False
