day,start_equity,end_equity,return_pct,entries,active
2024-01-02,1.0,1.0,0.0,0,False
2024-01-03,1.0,0.9927789230118099,-0.7221076988190078,6,True
2024-01-04,0.9927789230118099,0.9988114880796243,0.6076443534390519,1,True
2024-01-05,0.9988114880796243,0.9975907178106028,-0.1222222895502112,1,True
2024-01-06,0.9975907178106028,0.9972550799659069,-0.0336448443939541,2,True
2024-01-07,0.9972550799659069,0.9953582447487916,-0.19020562093101656,1,True
2024-01-08,0.9953582447487916,0.9997065387477706,0.436857184025885,3,True
2024-01-09,0.9997065387477706,1.0148217148674945,1.511961314032928,0,True
2024-01-10,1.0148217148674945,1.0148217148674945,0.0,0,False
2024-01-11,1.0148217148674945,1.0154963795109546,0.06648110043134814,1,True
2024-01-12,1.0154963795109546,1.0134595148711432,-0.20057822764394384,2,True
2024-01-13,1.0134595148711432,1.017097148011307,0.35893225992615907,4,True
2024-01-14,1.017097148011307,1.0219315333099765,0.47531204940669536,0,True
2024-01-15,1.0219315333099765,1.0219315333099765,0.0,0,False
2024-01-16,1.0219315333099765,1.0214781053458046,-0.04436970084514824,1,True
2024-01-17,1.0214781053458046,1.0257371573215843,0.41694990362401985,0,True
2024-01-18,1.0257371573215843,1.0257371573215843,0.0,0,False
2024-01-19,1.0257371573215843,1.0257371573215843,0.0,0,False
2024-01-20,1.0257371573215843,1.0391386157480338,1.3065197385891292,6,True
2024-01-21,1.0391386157480338,1.041300068009874,0.2080042286066286,0,True
2024-01-22,1.041300068009874,1.041300068009874,0.0,0,False
2024-01-23,1.041300068009874,1.0216540696468983,-1.8866798309658317,8,True
2024-01-24,1.0216540696468983,1.0350699882909353,1.3131566782358828,0,True
2024-01-25,1.0350699882909353,1.0299039347893348,-0.499101853984818,1,True
2024-01-26,1.0299039347893348,1.0299039347893348,0.0,0,False
2024-01-27,1.0299039347893348,1.0299039347893348,0.0,0,False
2024-01-28,1.0299039347893348,1.0299039347893348,0.0,0,False
2024-01-29,1.0299039347893348,1.0299039347893348,0.0,0,False
2024-01-30,1.0299039347893348,1.0299039347893348,0.0,0,False
2024-01-31,1.0299039347893348,1.0247591329432348,-0.49954191573725604,1,True
2024-02-01,1.0247591329432348,1.0247591329432348,0.0,0,False
2024-02-02,1.0247591329432348,1.0242727114165606,-0.04746691305664852,2,True
2024-02-03,1.0242727114165606,1.032301583899111,0.7838608207619391,1,True
2024-02-04,1.032301583899111,1.0305479838930893,-0.1698728388459969,1,True
2024-02-05,1.0305479838930893,1.0305479838930893,0.0,0,False
2024-02-06,1.0305479838930893,1.0254122113827382,-0.4983535546738693,1,True
2024-02-07,1.0254122113827382,1.0245076829720243,-0.08821119942526989,3,True
2024-02-08,1.0245076829720243,1.0360852522013209,1.1300617283523717,0,True
2024-02-09,1.0360852522013209,1.0360852522013209,0.0,0,False
2024-02-10,1.0360852522013209,1.0360852522013209,0.0,0,False
2024-02-11,1.0360852522013209,1.0360852522013209,0.0,0,False
2024-02-12,1.0360852522013209,1.0360852522013209,0.0,0,False
2024-02-13,1.0360852522013209,1.0360852522013209,0.0,0,False
2024-02-14,1.0360852522013209,1.0372543626625188,0.11283921460265578,1,True
2024-02-15,1.0372543626625188,1.034737843018109,-0.24261355121710793,0,True
2024-02-16,1.034737843018109,1.0397677405035624,0.4861035594080798,1,True
2024-02-17,1.0397677405035624,1.0356205280252728,-0.39885950647795543,2,True
2024-02-18,1.0356205280252728,1.0359932611845397,0.03599128726983203,0,True
2024-02-19,1.0359932611845397,1.0359932611845397,0.0,0,False
2024-02-20,1.0359932611845397,1.0371353331672708,0.11023932543974269,6,True
2024-02-21,1.0371353331672708,1.0229048246779324,-1.3720975493024978,5,True
2024-02-22,1.0229048246779324,1.0461612399494877,2.273565898848684,2,True
2024-02-23,1.0461612399494877,1.0524802748888344,0.604021129635024,1,True
2024-02-24,1.0524802748888344,1.0592942947274144,0.6474249447857572,2,True
2024-02-25,1.0592942947274144,1.0570230856617182,-0.21440775023532366,1,True
2024-02-26,1.0570230856617182,1.0622820394441823,0.49752496930299817,0,True
2024-02-27,1.0622820394441823,1.0620566562865479,-0.02121688490114293,1,True
2024-02-28,1.0620566562865479,1.0617938123459303,-0.024748579942679427,1,True
2024-02-29,1.0617938123459303,1.0817145584702432,1.8761407245630801,5,True
2024-03-01,1.0817145584702432,1.0773910781086167,-0.3996877297963719,1,True
2024-03-02,1.0773910781086167,1.0768397634186038,-0.05117126930183069,1,True
2024-03-03,1.0768397634186038,1.078519516004126,0.15598909351097756,6,True
2024-03-04,1.078519516004126,1.0995386464298393,1.948887351022477,0,True
2024-03-05,1.0995386464298393,1.0930368387576463,-0.5913214322483484,5,True
2024-03-06,1.0930368387576463,1.0684587079244834,-2.2486095584023147,4,True
2024-03-07,1.0684587079244834,1.0697495034972766,0.12080912095335794,0,True
2024-03-08,1.0697495034972766,1.070348035433533,0.055950662683157404,2,True
2024-03-09,1.070348035433533,1.0674706532826876,-0.2688267792895993,3,True
2024-03-10,1.0674706532826876,1.0796777041036711,1.143549078697803,2,True
2024-03-11,1.0796777041036711,1.072323520415909,-0.6811462031502735,0,True
2024-03-12,1.072323520415909,1.0683264755604878,-0.3727461702855206,1,True
2024-03-13,1.0683264755604878,1.0723680282177508,0.37830688930016176,2,True
2024-03-14,1.0723680282177508,1.0813205781747603,0.8348393202181281,1,True
2024-03-15,1.0813205781747603,1.065637937315056,-1.4503229824938901,10,True
2024-03-16,1.065637937315056,1.0757733235315023,0.9511097401414981,1,True
2024-03-17,1.0757733235315023,1.0599897432030698,-1.4671845809132833,4,True
2024-03-18,1.0599897432030698,1.0612728845942512,0.12105224596834496,0,True
2024-03-19,1.0612728845942512,1.0449572116525194,-1.537368303531994,8,True
2024-03-20,1.0449572116525194,1.0424623287172115,-0.23875455449151595,0,True
2024-03-21,1.0424623287172115,1.0452568757264595,0.26807175015013396,2,True
2024-03-22,1.0452568757264595,1.0460747946822668,0.07825052145566946,0,True
2024-03-23,1.0460747946822668,1.0476746728181845,0.1529410845238388,1,True
2024-03-24,1.0476746728181845,1.045049686971629,-0.25055352722180846,2,True
2024-03-25,1.045049686971629,1.0531230797760591,0.7725367420400309,2,True
2024-03-26,1.0531230797760591,1.0669594449762434,1.3138412276679556,2,True
2024-03-27,1.0669594449762434,1.0660039855911436,-0.08954973777105524,2,True
2024-03-28,1.0660039855911436,1.0616842017710963,-0.4052314886657582,0,True
2024-03-29,1.0616842017710963,1.0500644107751924,-1.0944677312255235,4,True
2024-03-30,1.0500644107751924,1.049978197850943,-0.008210251044094008,0,True
2024-03-31,1.049978197850943,1.049978197850943,0.0,0,False
2024-04-01,1.049978197850943,1.0482025637632915,-0.169111519771159,4,True
2024-04-02,1.0482025637632915,1.0205639023774236,-2.636767199522838,5,True
2024-04-03,1.0205639023774236,1.0034455139811773,-1.6773460590139067,1,True
2024-04-04,1.0034455139811773,1.0028612529415675,-0.05822548723066756,1,True
2024-04-05,1.0028612529415675,0.9882566641152577,-1.4562920626828402,3,True
2024-04-06,0.9882566641152577,0.9868453584694998,-0.14280760221550004,1,True
2024-04-07,0.9868453584694998,1.0016393760337794,1.4991221712005176,1,True
2024-04-08,1.0016393760337794,0.9938508495597816,-0.7775779048182163,0,True
2024-04-09,0.9938508495597816,0.9888930391072863,-0.49884853996868816,1,True
2024-04-10,0.9888930391072863,0.9826514113172626,-0.6311731949957156,4,True
2024-04-11,0.9826514113172626,0.9915518382059259,0.9057562820504295,1,True
2024-04-12,0.9915518382059259,0.9856432350507588,-0.5958945289091355,2,True
2024-04-13,0.9856432350507588,0.9590104846030725,-2.7020679999203545,7,True
2024-04-14,0.9590104846030725,0.9132884883182987,-4.767622150001605,13,True
2024-04-15,0.9132884883182987,0.922050343521097,0.9593743176301572,0,True
2024-04-16,0.922050343521097,0.922050343521097,0.0,0,False
2024-04-17,0.922050343521097,0.922050343521097,0.0,0,False
2024-04-18,0.922050343521097,0.922050343521097,0.0,0,False
2024-04-19,0.922050343521097,0.9265675219921431,0.48990583895842654,4,True
2024-04-20,0.9265675219921431,0.9237596684982379,-0.3030381949788441,0,True
2024-04-21,0.9237596684982379,0.9237596684982379,0.0,0,False
2024-04-22,0.9237596684982379,0.9237596684982379,0.0,0,False
2024-04-23,0.9237596684982379,0.925467625044302,0.18489187223780235,1,True
2024-04-24,0.925467625044302,0.9226136981170462,-0.30837674382387936,1,True
2024-04-25,0.9226136981170462,0.9199520906947037,-0.28848557394871577,0,True
2024-04-26,0.9199520906947037,0.9199520906947037,0.0,0,False
2024-04-27,0.9199520906947037,0.9270054902815195,0.7667137950074565,3,True
2024-04-28,0.9270054902815195,0.9293552368452992,0.2534770924675023,1,True
2024-04-29,0.9293552368452992,0.9318852537721339,0.2722335686645483,2,True
2024-04-30,0.9318852537721339,0.9275754027895903,-0.4624873035706911,2,True
2024-05-01,0.9275754027895903,0.9222999479334519,-0.5687359583137819,3,True
2024-05-02,0.9222999479334519,0.9253990129327524,0.336014873062096,1,True
2024-05-03,0.9253990129327524,0.9232519504608573,-0.23201477869428944,1,True
2024-05-04,0.9232519504608573,0.9239514122644339,0.07576066351415722,0,True
2024-05-05,0.9239514122644339,0.9209976661960104,-0.3196862983502968,1,True
2024-05-06,0.9209976661960104,0.9222967432111978,0.14105106482549257,0,True
2024-05-07,0.9222967432111978,0.9269779951852897,0.5075646215330742,2,True
2024-05-08,0.9269779951852897,0.9291192254925531,0.23099041383776164,2,True
2024-05-09,0.9291192254925531,0.9265708665310479,-0.2742768518382843,1,True
2024-05-10,0.9265708665310479,0.9293550109344506,0.30047830165718104,0,True
2024-05-11,0.9293550109344506,0.9223182124807895,-0.7571701202305658,3,True
2024-05-12,0.9223182124807895,0.9219521795874961,-0.039686182961617966,0,True
2024-05-13,0.9219521795874961,0.9228238519595271,0.09454637575898595,3,True
2024-05-14,0.9228238519595271,0.9142238943702199,-0.9319175670466251,3,True
2024-05-15,0.9142238943702199,0.9192753210573817,0.5525371540022528,1,True
2024-05-16,0.9192753210573817,0.9281005208298885,0.9600170449866718,0,True
2024-05-17,0.9281005208298885,0.9281005208298885,0.0,0,False
2024-05-18,0.9281005208298885,0.9331199406915641,0.5408271786322638,2,True
2024-05-19,0.9331199406915641,0.9324674554409176,-0.06992512132609763,0,True
2024-05-20,0.9324674554409176,0.9298508845551804,-0.2806072073046173,1,True
2024-05-21,0.9298508845551804,0.9245632059713416,-0.5686587679451738,2,True
2024-05-22,0.9245632059713416,0.9275994706396715,0.32839990264810215,1,True
2024-05-23,0.9275994706396715,0.923112323910753,-0.4837375258336607,1,True
2024-05-24,0.923112323910753,0.9280085905971289,0.5304085493770483,2,True
2024-05-25,0.9280085905971289,0.9277208661732379,-0.03100450004518418,0,True
2024-05-26,0.9277208661732379,0.9290163029222472,0.13963647862669237,2,True
2024-05-27,0.9290163029222472,0.9415814118058898,1.35251758705619,2,True
2024-05-28,0.9415814118058898,0.947611189114366,0.6403883119263654,1,True
2024-05-29,0.947611189114366,0.9470549750976452,-0.058696438276617524,0,True
2024-05-30,0.9470549750976452,0.9428471640303981,-0.44430483740537374,3,True
2024-05-31,0.9428471640303981,0.9400561307515574,-0.29602181406686023,0,True
2024-06-01,0.9400561307515574,0.9379405155430168,-0.2250520090592012,2,True
2024-06-02,0.9379405155430168,0.946385712190082,0.9003978938020296,0,True
2024-06-03,0.946385712190082,0.9472621189949753,0.09260566739379694,1,True
2024-06-04,0.9472621189949753,0.9576734832796212,1.099100668745434,3,True
2024-06-05,0.9576734832796212,0.9602501703206656,0.26905694749115305,0,True
2024-06-06,0.9602501703206656,0.9612634562499814,0.10552311893654576,1,True
2024-06-07,0.9612634562499814,0.9606034502236824,-0.068660263948217,0,True
2024-06-08,0.9606034502236824,0.9753832262899652,1.5385928566924445,5,True
2024-06-09,0.9753832262899652,0.9756427834997573,0.02661079284491663,0,True
2024-06-10,0.9756427834997573,0.9756427834997573,0.0,0,False
2024-06-11,0.9756427834997573,0.9757070423041314,0.006586304481603911,1,True
2024-06-12,0.9757070423041314,0.9852079102587764,0.9737418654075514,1,True
2024-06-13,0.9852079102587764,0.9797640564725418,-0.5525588791511771,1,True
2024-06-14,0.9797640564725418,0.9707129158708471,-0.923808190543518,4,True
2024-06-15,0.9707129158708471,0.9790334631520774,0.8571583982444286,4,True
2024-06-16,0.9790334631520774,0.9786562245773408,-0.03853173450497627,0,True
2024-06-17,0.9786562245773408,0.9689182718868999,-0.9950330305870669,2,True
2024-06-18,0.9689182718868999,0.9730329643950034,0.4246686874931571,5,True
2024-06-19,0.9730329643950034,0.9850678708002889,1.2368446749148276,0,True
2024-06-20,0.9850678708002889,0.9887333081919768,0.37209998420819623,1,True
2024-06-21,0.9887333081919768,0.9871409637617786,-0.16104893169928136,1,True
2024-06-22,0.9871409637617786,0.98779117327953,0.0658679501328363,0,True
2024-06-23,0.98779117327953,0.9863173870116909,-0.14920018600146356,2,True
2024-06-24,0.9863173870116909,0.9818924862848895,-0.4486284825828579,0,True
2024-06-25,0.9818924862848895,0.9818924862848895,0.0,0,False
2024-06-26,0.9818924862848895,0.9818924862848895,0.0,0,False
2024-06-27,0.9818924862848895,0.976999384395068,-0.4983337746411687,1,True
2024-06-28,0.976999384395068,0.9766888559917043,-0.03178388935791698,1,True
2024-06-29,0.9766888559917043,0.9648108830380566,-1.2161470749645353,3,True
2024-06-30,0.9648108830380566,0.9608435716389365,-0.41120093780737665,0,True
2024-07-01,0.9608435716389365,0.9545932804240285,-0.65050039354968,2,True
2024-07-02,0.9545932804240285,0.9586571304234184,0.4257153368589339,0,True
2024-07-03,0.9586571304234184,0.9538680447191616,-0.4995618925967338,1,True
2024-07-04,0.9538680447191616,0.940940604853846,-1.3552650114326603,4,True
2024-07-05,0.940940604853846,0.9117037529543501,-3.107194200003427,12,True
2024-07-06,0.9117037529543501,0.9193371290582523,0.8372649645420838,0,True
2024-07-07,0.9193371290582523,0.9193371290582523,0.0,0,False
2024-07-08,0.9193371290582523,0.9204024691617542,0.11588133121449573,2,True
2024-07-09,0.9204024691617542,0.9213820687027356,0.10643165069663674,1,True
2024-07-10,0.9213820687027356,0.9245789721172356,0.34696826898326094,1,True
2024-07-11,0.9245789721172356,0.9144740307416306,-1.092923555514702,2,True
2024-07-12,0.9144740307416306,0.9144740307416306,0.0,0,False
2024-07-13,0.9144740307416306,0.9144740307416306,0.0,0,False
2024-07-14,0.9144740307416306,0.9150680830570821,0.06496109189342292,1,True
2024-07-15,0.9150680830570821,0.917009606782708,0.21217259803660848,0,True
2024-07-16,0.917009606782708,0.917009606782708,0.0,0,False
2024-07-17,0.917009606782708,0.917009606782708,0.0,0,False
2024-07-18,0.917009606782708,0.917009606782708,0.0,0,False
2024-07-19,0.917009606782708,0.9138945938304514,-0.3396925102219561,2,True
2024-07-20,0.9138945938304514,0.914758298803024,0.09450816083202973,0,True
2024-07-21,0.914758298803024,0.9144345413167128,-0.03539268096663939,1,True
2024-07-22,0.9144345413167128,0.9141711539451112,-0.028803305179436745,1,True
2024-07-23,0.9141711539451112,0.9108090128506598,-0.3677802652098494,3,True
2024-07-24,0.9108090128506598,0.907289375073955,-0.3864298362275753,1,True
2024-07-25,0.907289375073955,0.9064401396770607,-0.09360138234012494,0,True
2024-07-26,0.9064401396770607,0.9064401396770607,0.0,0,False
2024-07-27,0.9064401396770607,0.9064401396770607,0.0,0,False
2024-07-28,0.9064401396770607,0.9038871102500143,-0.28165449821716537,1,True
2024-07-29,0.9038871102500143,0.9038871102500143,0.0,0,False
2024-07-30,0.9038871102500143,0.901247880176395,-0.2919866921090697,2,True
2024-07-31,0.901247880176395,0.8936717314237487,-0.8406287459076789,3,True
2024-08-01,0.8936717314237487,0.8909693276603724,-0.30239333620534214,0,True
2024-08-02,0.8909693276603724,0.8837829747637236,-0.8065769127563294,4,True
2024-08-03,0.8837829747637236,0.8847232243668282,0.10638919621142051,5,True
2024-08-04,0.8847232243668282,0.8616409623125907,-2.6089811387913775,2,True
2024-08-05,0.8616409623125907,0.8445957970405055,-1.9782213262397708,8,True
2024-08-06,0.8445957970405055,0.8506341993950234,0.7149458209094517,0,True
2024-08-07,0.8506341993950234,0.8506341993950234,0.0,0,False
2024-08-08,0.8506341993950234,0.8506341993950234,0.0,0,False
2024-08-09,0.8506341993950234,0.8506341993950234,0.0,0,False
2024-08-10,0.8506341993950234,0.8506341993950234,0.0,0,False
2024-08-11,0.8506341993950234,0.847229169444776,-0.40029309339655317,1,True
2024-08-12,0.847229169444776,0.8472100415208992,-0.002257703649333198,1,True
2024-08-13,0.8472100415208992,0.8421505557346308,-0.5971937935468352,0,True
2024-08-14,0.8421505557346308,0.8421505557346308,0.0,0,False
2024-08-15,0.8421505557346308,0.8421505557346308,0.0,0,False
2024-08-16,0.8421505557346308,0.8421505557346308,0.0,0,False
2024-08-17,0.8421505557346308,0.8604111521829433,2.168329204792041,1,True
2024-08-18,0.8604111521829433,0.8596093161278338,-0.09319219690204772,0,True
2024-08-19,0.8596093161278338,0.8590964265574949,-0.05966542715581946,1,True
2024-08-20,0.8590964265574949,0.8514516057045426,-0.8898676116703252,2,True
2024-08-21,0.8514516057045426,0.8544481063238355,0.35192847123863835,0,True
2024-08-22,0.8544481063238355,0.8544481063238355,0.0,0,False
2024-08-23,0.8544481063238355,0.8544481063238355,0.0,0,False
2024-08-24,0.8544481063238355,0.8529906825189733,-0.17056902509067218,1,True
2024-08-25,0.8529906825189733,0.8505522588458215,-0.2858675625800222,2,True
2024-08-26,0.8505522588458215,0.8513648031016549,0.09553137357320995,2,True
2024-08-27,0.8513648031016549,0.845260189275613,-0.7170385484344455,0,True
2024-08-28,0.845260189275613,0.84690648678133,0.1947681349014907,4,True
2024-08-29,0.84690648678133,0.8371100762024234,-1.156728721743272,2,True
2024-08-30,0.8371100762024234,0.8379597848915881,0.1015050127002981,0,True
2024-08-31,0.8379597848915881,0.8379597848915881,0.0,0,False
2024-09-01,0.8379597848915881,0.8354078503371221,-0.30454141123206213,1,True
2024-09-02,0.8354078503371221,0.8360349877662158,0.07506961166818815,0,True
2024-09-03,0.8360349877662158,0.8360349877662158,0.0,0,False
2024-09-04,0.8360349877662158,0.8360349877662158,0.0,0,False
2024-09-05,0.8360349877662158,0.8360349877662158,0.0,0,False
2024-09-06,0.8360349877662158,0.8358155730257671,-0.026244683973675187,1,True
2024-09-07,0.8358155730257671,0.8369796456627336,0.13927386310264023,0,True
2024-09-08,0.8369796456627336,0.8369796456627336,0.0,0,False
2024-09-09,0.8369796456627336,0.8369796456627336,0.0,0,False
2024-09-10,0.8369796456627336,0.8369796456627336,0.0,0,False
2024-09-11,0.8369796456627336,0.8328043116217542,-0.49885729750015484,1,True
2024-09-12,0.8328043116217542,0.8328043116217542,0.0,0,False
2024-09-13,0.8328043116217542,0.8325947332262299,-0.025165383103764594,1,True
2024-09-14,0.8325947332262299,0.8340680008168255,0.17694894428250674,0,True
2024-09-15,0.8340680008168255,0.8357735985654211,0.20449144996874669,1,True
2024-09-16,0.8357735985654211,0.8359801077893613,0.024708751783331095,0,True
2024-09-17,0.8359801077893613,0.8359801077893613,0.0,0,False
2024-09-18,0.8359801077893613,0.8359801077893613,0.0,0,False
2024-09-19,0.8359801077893613,0.8359801077893613,0.0,0,False
2024-09-20,0.8359801077893613,0.8359801077893613,0.0,0,False
2024-09-21,0.8359801077893613,0.8359801077893613,0.0,0,False
2024-09-22,0.8359801077893613,0.8359371614598737,-0.005137242990282953,1,True
2024-09-23,0.8359371614598737,0.8350265104448047,-0.10893773564015774,0,True
2024-09-24,0.8350265104448047,0.8350265104448047,0.0,0,False
2024-09-25,0.8350265104448047,0.8350265104448047,0.0,0,False
2024-09-26,0.8350265104448047,0.8350265104448047,0.0,0,False
2024-09-27,0.8350265104448047,0.8350265104448047,0.0,0,False
2024-09-28,0.8350265104448047,0.8350265104448047,0.0,0,False
2024-09-29,0.8350265104448047,0.8350265104448047,0.0,0,False
2024-09-30,0.8350265104448047,0.8332885753538972,-0.208129331125273,1,True
2024-10-01,0.8332885753538972,0.8344338444790489,0.1374396768448749,0,True
2024-10-02,0.8344338444790489,0.815965358404358,-2.213295421426853,7,True
2024-10-03,0.815965358404358,0.8058511164726728,-1.2395430550463438,1,True
2024-10-04,0.8058511164726728,0.8058511164726728,0.0,0,False
2024-10-05,0.8058511164726728,0.8058511164726728,0.0,0,False
2024-10-06,0.8058511164726728,0.8058511164726728,0.0,0,False
2024-10-07,0.8058511164726728,0.8058511164726728,0.0,0,False
2024-10-08,0.8058511164726728,0.8058511164726728,0.0,0,False
2024-10-09,0.8058511164726728,0.8058511164726728,0.0,0,False
2024-10-10,0.8058511164726728,0.8058511164726728,0.0,0,False
2024-10-11,0.8058511164726728,0.8058511164726728,0.0,0,False
2024-10-12,0.8058511164726728,0.8058511164726728,0.0,0,False
2024-10-13,0.8058511164726728,0.8058511164726728,0.0,0,False
2024-10-14,0.8058511164726728,0.8058511164726728,0.0,0,False
2024-10-15,0.8058511164726728,0.8059203553001845,0.008592012357655499,1,True
2024-10-16,0.8059203553001845,0.805682313400502,-0.029536653109329958,3,True
2024-10-17,0.805682313400502,0.8033616389182069,-0.2880384046784368,2,True
2024-10-18,0.8033616389182069,0.8090132037109987,0.7034895019884413,1,True
2024-10-19,0.8090132037109987,0.8082144055955104,-0.09873733973984056,1,True
2024-10-20,0.8082144055955104,0.809524149934646,0.16205407006704142,2,True
2024-10-21,0.809524149934646,0.8065538710981989,-0.3669166431522708,0,True
2024-10-22,0.8065538710981989,0.8065538710981989,0.0,0,False
2024-10-23,0.8065538710981989,0.8065538710981989,0.0,0,False
2024-10-24,0.8065538710981989,0.8060800136510639,-0.05875087382444244,1,True
2024-10-25,0.8060800136510639,0.8057883343082878,-0.036184911899117544,0,True
2024-10-26,0.8057883343082878,0.7884372898658067,-2.1533005261705207,9,True
2024-10-27,0.7884372898658067,0.7947316830842678,0.7983378385784334,0,True
2024-10-28,0.7947316830842678,0.7947316830842678,0.0,0,False
2024-10-29,0.7947316830842678,0.8057160647305668,1.3821497091533796,2,True
2024-10-30,0.8057160647305668,0.8077716272688643,0.25512244676229034,0,True
2024-10-31,0.8077716272688643,0.8077716272688643,0.0,0,False
2024-11-01,0.8077716272688643,0.8068526860115981,-0.11376250740239291,2,True
2024-11-02,0.8068526860115981,0.8038490435917645,-0.37226652050712516,0,True
2024-11-03,0.8038490435917645,0.7982914499074083,-0.6913728054615431,2,True
2024-11-04,0.7982914499074083,0.8059674606330515,0.9615549216434038,3,True
2024-11-05,0.8059674606330515,0.8073962483729438,0.17727610724755927,1,True
2024-11-06,0.8073962483729438,0.8089440685967964,0.19170515431199409,1,True
2024-11-07,0.8089440685967964,0.8096431858189367,0.08642343139408926,1,True
2024-11-08,0.8096431858189367,0.8051987204995956,-0.5489412369778179,2,True
2024-11-09,0.8051987204995956,0.8056333796919097,0.05398160494398674,2,True
2024-11-10,0.8056333796919097,0.8107916620386887,0.6402766415601668,1,True
2024-11-11,0.8107916620386887,0.8104726281209845,-0.039348445801967724,2,True
2024-11-12,0.8104726281209845,0.8076083789697236,-0.3534047976304189,4,True
2024-11-13,0.8076083789697236,0.8038669801542376,-0.46326894481443226,0,True
2024-11-14,0.8038669801542376,0.7985468552575138,-0.6618165726502534,4,True
2024-11-15,0.7985468552575138,0.8081701253363461,1.2050977366542925,2,True
2024-11-16,0.8081701253363461,0.811861551430063,0.4567634929812048,0,True
2024-11-17,0.811861551430063,0.8058425780085544,-0.7413792919379381,4,True
2024-11-18,0.8058425780085544,0.8111235591371799,0.6553365722715032,1,True
2024-11-19,0.8111235591371799,0.8085308698400707,-0.31964172016740733,1,True
2024-11-20,0.8085308698400707,0.8098469988829711,0.16278030833389856,1,True
2024-11-21,0.8098469988829711,0.8202760108745112,1.2877755929113777,3,True
2024-11-22,0.8202760108745112,0.8166452652677423,-0.4426248675611144,0,True
2024-11-23,0.8166452652677423,0.8166452652677423,0.0,0,False
2024-11-24,0.8166452652677423,0.8104899808749435,-0.7537280450381045,6,True
2024-11-25,0.8104899808749435,0.8136083809336114,0.38475491767357983,0,True
2024-11-26,0.8136083809336114,0.8093154062267558,-0.5276463231523532,2,True
2024-11-27,0.8093154062267558,0.8121970418398845,0.3560584156631519,0,True
2024-11-28,0.8121970418398845,0.8095932969668655,-0.32058044278524545,2,True
2024-11-29,0.8095932969668655,0.8167433929600546,0.883171342941802,2,True
2024-11-30,0.8167433929600546,0.8202348113570131,0.4274804580058911,0,True
2024-12-01,0.8202348113570131,0.8207291194850757,0.060264222051809035,1,True
2024-12-02,0.8207291194850757,0.8233916234562844,0.3244071531029791,6,True
2024-12-03,0.8233916234562844,0.8363007959750666,1.5678046935423628,5,True
2024-12-04,0.8363007959750666,0.8767858039303776,4.840962504179913,1,True
2024-12-05,0.8767858039303776,0.8842270970716322,0.8487013712924263,5,True
2024-12-06,0.8842270970716322,0.8843107671651588,0.009462511814417596,1,True
2024-12-07,0.8843107671651588,0.885446501123247,0.12843154242359045,1,True
2024-12-08,0.885446501123247,0.8847567177091372,-0.07790232535050956,0,True
2024-12-09,0.8847567177091372,0.8847567177091372,0.0,0,False
2024-12-10,0.8847567177091372,0.8628785436617367,-2.4727898200138876,7,True
2024-12-11,0.8628785436617367,0.8753212548382641,1.4420002986428537,3,True
2024-12-12,0.8753212548382641,0.8809560056598118,0.6437351761312993,0,True
2024-12-13,0.8809560056598118,0.8809560056598118,0.0,0,False
2024-12-14,0.8809560056598118,0.8809560056598118,0.0,0,False
2024-12-15,0.8809560056598118,0.8758205524119214,-0.5829409431228227,2,True
2024-12-16,0.8758205524119214,0.8760093542235252,0.021557134173644243,0,True
2024-12-17,0.8760093542235252,0.8760093542235252,0.0,0,False
2024-12-18,0.8760093542235252,0.8716474742096727,-0.4979261914068056,2,True
2024-12-19,0.8716474742096727,0.8561398814189017,-1.7791129154400176,5,True
2024-12-20,0.8561398814189017,0.8224297777372115,-3.9374527940249315,10,True
2024-12-21,0.8224297777372115,0.8268104204750498,0.5326464163166511,1,True
2024-12-22,0.8268104204750498,0.8288857125375219,0.2509997468681746,0,True
2024-12-23,0.8288857125375219,0.8272057733668432,-0.2026744031497163,1,True
2024-12-24,0.8272057733668432,0.8349515920140408,0.9363835331650305,0,True
2024-12-25,0.8349515920140408,0.8349515920140408,0.0,0,False
2024-12-26,0.8349515920140408,0.8349515920140408,0.0,0,False
2024-12-27,0.8349515920140408,0.8349515920140408,0.0,0,False
2024-12-28,0.8349515920140408,0.8307857275318893,-0.4989348510735514,1,True
2024-12-29,0.8307857275318893,0.8568047575990936,3.1318580958897835,3,True
2024-12-30,0.8568047575990936,0.8540432778634689,-0.3222997667943428,0,True
2024-12-31,0.8540432778634689,0.8540432778634689,0.0,0,False
