day,start_equity,end_equity,return_pct,entries,active
2021-09-02,1.0,1.0,0.0,0,False
2021-09-03,1.0,1.0,0.0,0,False
2021-09-04,1.0,1.0,0.0,0,False
2021-09-05,1.0,1.0,0.0,0,False
2021-09-06,1.0,1.0,0.0,0,False
2021-09-07,1.0,1.0,0.0,0,False
2021-09-08,1.0,1.0,0.0,0,False
2021-09-09,1.0,1.0,0.0,0,False
2021-09-10,1.0,1.0,0.0,0,False
2021-09-11,1.0,1.0,0.0,0,False
2021-09-12,1.0,1.0,0.0,0,False
2021-09-13,1.0,1.0,0.0,0,False
2021-09-14,1.0,1.0,0.0,0,False
2021-09-15,1.0,1.0,0.0,0,False
2021-09-16,1.0,1.0,0.0,0,False
2021-09-17,1.0,1.0,0.0,0,False
2021-09-18,1.0,1.0,0.0,0,False
2021-09-19,1.0,1.0,0.0,0,False
2021-09-20,1.0,1.0,0.0,0,False
2021-09-21,1.0,1.0,0.0,0,False
2021-09-22,1.0,1.0,0.0,0,False
2021-09-23,1.0,1.0,0.0,0,False
2021-09-24,1.0,1.0,0.0,0,False
2021-09-25,1.0,1.0,0.0,0,False
2021-09-26,1.0,1.0,0.0,0,False
2021-09-27,1.0,1.0,0.0,0,False
2021-09-28,1.0,1.0,0.0,0,False
2021-09-29,1.0,1.0,0.0,0,False
2021-09-30,1.0,1.0,0.0,0,False
2021-10-01,1.0,1.0,0.0,0,False
2021-10-02,1.0,1.0,0.0,0,False
2021-10-03,1.0,1.0,0.0,0,False
2021-10-04,1.0,1.0,0.0,0,False
2021-10-05,1.0,1.0,0.0,0,False
2021-10-06,1.0,0.9900198357748151,-0.9980164225184884,2,True
2021-10-07,0.9900198357748151,0.9900198357748151,0.0,0,False
2021-10-08,0.9900198357748151,0.9900198357748151,0.0,0,False
2021-10-09,0.9900198357748151,0.9900198357748151,0.0,0,False
2021-10-10,0.9900198357748151,0.9900198357748151,0.0,0,False
2021-10-11,0.9900198357748151,0.9900198357748151,0.0,0,False
2021-10-12,0.9900198357748151,0.9900198357748151,0.0,0,False
2021-10-13,0.9900198357748151,0.9977408194734791,0.7798817174831107,1,True
2021-10-14,0.9977408194734791,1.0036383866998182,0.5910921064100849,0,True
2021-10-15,1.0036383866998182,0.999718188475178,-0.39059867344558574,2,True
2021-10-16,0.999718188475178,0.9864183949066552,-1.3303542660165424,2,True
2021-10-17,0.9864183949066552,0.9864183949066552,0.0,0,False
2021-10-18,0.9864183949066552,0.9864183949066552,0.0,0,False
2021-10-19,0.9864183949066552,0.9864183949066552,0.0,0,False
2021-10-20,0.9864183949066552,0.9864183949066552,0.0,0,False
2021-10-21,0.9864183949066552,0.9864183949066552,0.0,0,False
2021-10-22,0.9864183949066552,0.9864183949066552,0.0,0,False
2021-10-23,0.9864183949066552,0.9864183949066552,0.0,0,False
2021-10-24,0.9864183949066552,0.9864183949066552,0.0,0,False
2021-10-25,0.9864183949066552,0.9924737078771942,0.6138686182055819,1,True
2021-10-26,0.9924737078771942,0.9924737078771942,0.0,0,False
2021-10-27,0.9924737078771942,1.0133433653120196,2.1027919701231745,4,True
2021-10-28,1.0133433653120196,1.0090869959663966,-0.4200322902703779,0,True
2021-10-29,1.0090869959663966,1.0090869959663966,0.0,0,False
2021-10-30,1.0090869959663966,1.0073025384803382,-0.17683881500716314,1,True
2021-10-31,1.0073025384803382,0.9956578493886896,-1.1560269776760723,4,True
2021-11-01,0.9956578493886896,0.9835955231444932,-1.2114931099676873,2,True
2021-11-02,0.9835955231444932,0.9835955231444932,0.0,0,False
2021-11-03,0.9835955231444932,0.9835955231444932,0.0,0,False
2021-11-04,0.9835955231444932,0.9821461504646976,-0.1473545421559086,1,True
2021-11-05,0.9821461504646976,0.9821461504646976,0.0,0,False
2021-11-06,0.9821461504646976,0.9821461504646976,0.0,0,False
2021-11-07,0.9821461504646976,0.9821461504646976,0.0,0,False
2021-11-08,0.9821461504646976,0.9821461504646976,0.0,0,False
2021-11-09,0.9821461504646976,0.9821461504646976,0.0,0,False
2021-11-10,0.9821461504646976,0.9821461504646976,0.0,0,False
2021-11-11,0.9821461504646976,1.0049924935355792,2.326165312573081,6,True
2021-11-12,1.0049924935355792,0.9999737773802992,-0.499378471736045,1,True
2021-11-13,0.9999737773802992,0.9999737773802992,0.0,0,False
2021-11-14,0.9999737773802992,0.9999737773802992,0.0,0,False
2021-11-15,0.9999737773802992,0.9999737773802992,0.0,0,False
2021-11-16,0.9999737773802992,1.0467189051526797,4.674635358423296,4,True
2021-11-17,1.0467189051526797,1.0583411687235706,1.1103519305591947,0,True
2021-11-18,1.0583411687235706,1.0530524956643807,-0.49971343981339844,1,True
2021-11-19,1.0530524956643807,1.0530524956643807,0.0,0,False
2021-11-20,1.0530524956643807,1.0530524956643807,0.0,0,False
2021-11-21,1.0530524956643807,1.0530524956643807,0.0,0,False
2021-11-22,1.0530524956643807,1.0530524956643807,0.0,0,False
2021-11-23,1.0530524956643807,1.0530524956643807,0.0,0,False
2021-11-24,1.0530524956643807,1.0530524956643807,0.0,0,False
2021-11-25,1.0530524956643807,1.0477935514846788,-0.49940000155301867,1,True
2021-11-26,1.0477935514846788,1.051833861248344,0.3856017015890556,6,True
2021-11-27,1.051833861248344,1.0492619213592718,-0.2445195941895073,0,True
2021-11-28,1.0492619213592718,1.044023943789282,-0.4992059144969474,1,True
2021-11-29,1.044023943789282,1.044023943789282,0.0,0,False
2021-11-30,1.044023943789282,1.044023943789282,0.0,0,False
2021-12-01,1.044023943789282,1.0399543610367772,-0.3897978371773969,1,True
2021-12-02,1.0399543610367772,1.0420516781471543,0.20167395695001034,2,True
2021-12-03,1.0420516781471543,1.0313751824978097,-1.0245648918610462,1,True
2021-12-04,1.0313751824978097,1.0057863473209514,-2.4810404216714432,5,True
2021-12-05,1.0057863473209514,1.0057863473209514,0.0,0,False
2021-12-06,1.0057863473209514,1.0057863473209514,0.0,0,False
2021-12-07,1.0057863473209514,1.0057863473209514,0.0,0,False
2021-12-08,1.0057863473209514,1.0057863473209514,0.0,0,False
2021-12-09,1.0057863473209514,1.0057863473209514,0.0,0,False
2021-12-10,1.0057863473209514,1.0057863473209514,0.0,0,False
2021-12-11,1.0057863473209514,1.0057863473209514,0.0,0,False
2021-12-12,1.0057863473209514,1.0057863473209514,0.0,0,False
2021-12-13,1.0057863473209514,1.0057863473209514,0.0,0,False
2021-12-14,1.0057863473209514,1.0057863473209514,0.0,0,False
2021-12-15,1.0057863473209514,1.0057863473209514,0.0,0,False
2021-12-16,1.0057863473209514,1.0057863473209514,0.0,0,False
2021-12-17,1.0057863473209514,1.004697208963467,-0.1082872481203978,1,True
2021-12-18,1.004697208963467,1.004697208963467,0.0,0,False
2021-12-19,1.004697208963467,1.004697208963467,0.0,0,False
2021-12-20,1.004697208963467,1.004697208963467,0.0,0,False
2021-12-21,1.004697208963467,1.004697208963467,0.0,0,False
2021-12-22,1.004697208963467,1.004697208963467,0.0,0,False
2021-12-23,1.004697208963467,1.004697208963467,0.0,0,False
2021-12-24,1.004697208963467,1.004697208963467,0.0,0,False
2021-12-25,1.004697208963467,1.004697208963467,0.0,0,False
2021-12-26,1.004697208963467,1.004697208963467,0.0,0,False
2021-12-27,1.004697208963467,1.004697208963467,0.0,0,False
2021-12-28,1.004697208963467,1.004697208963467,0.0,0,False
2021-12-29,1.004697208963467,1.004697208963467,0.0,0,False
2021-12-30,1.004697208963467,1.004697208963467,0.0,0,False
2021-12-31,1.004697208963467,1.004697208963467,0.0,0,False
2022-01-01,1.004697208963467,1.004697208963467,0.0,0,False
2022-01-02,1.004697208963467,1.004697208963467,0.0,0,False
2022-01-03,1.004697208963467,1.004697208963467,0.0,0,False
2022-01-04,1.004697208963467,1.004697208963467,0.0,0,False
2022-01-05,1.004697208963467,1.004697208963467,0.0,0,False
2022-01-06,1.004697208963467,0.9996870443895711,-0.49867408102634014,1,True
2022-01-07,0.9996870443895711,0.9996870443895711,0.0,0,False
2022-01-08,0.9996870443895711,0.9996870443895711,0.0,0,False
2022-01-09,0.9996870443895711,0.9996870443895711,0.0,0,False
2022-01-10,0.9996870443895711,0.9996870443895711,0.0,0,False
2022-01-11,0.9996870443895711,0.9996870443895711,0.0,0,False
2022-01-12,0.9996870443895711,0.9996870443895711,0.0,0,False
2022-01-13,0.9996870443895711,0.9996870443895711,0.0,0,False
2022-01-14,0.9996870443895711,0.9996870443895711,0.0,0,False
2022-01-15,0.9996870443895711,0.9996870443895711,0.0,0,False
2022-01-16,0.9996870443895711,0.9996870443895711,0.0,0,False
2022-01-17,0.9996870443895711,0.9996870443895711,0.0,0,False
2022-01-18,0.9996870443895711,0.9996870443895711,0.0,0,False
2022-01-19,0.9996870443895711,0.9996870443895711,0.0,0,False
2022-01-20,0.9996870443895711,0.9996870443895711,0.0,0,False
2022-01-21,0.9996870443895711,0.9996870443895711,0.0,0,False
2022-01-22,0.9996870443895711,1.0194666035355258,1.9785751207801683,3,True
2022-01-23,1.0194666035355258,1.0244639977619876,0.49019695290957177,0,True
2022-01-24,1.0244639977619876,1.0244639977619876,0.0,0,False
2022-01-25,1.0244639977619876,1.0244639977619876,0.0,0,False
2022-01-26,1.0244639977619876,1.0244639977619876,0.0,0,False
2022-01-27,1.0244639977619876,1.0244639977619876,0.0,0,False
2022-01-28,1.0244639977619876,1.0244639977619876,0.0,0,False
2022-01-29,1.0244639977619876,1.0244639977619876,0.0,0,False
2022-01-30,1.0244639977619876,1.0244639977619876,0.0,0,False
2022-01-31,1.0244639977619876,1.0275751120281438,0.3036821472450546,1,True
2022-02-01,1.0275751120281438,1.0275751120281438,0.0,0,False
2022-02-02,1.0275751120281438,1.0275751120281438,0.0,0,False
2022-02-03,1.0275751120281438,1.0275751120281438,0.0,0,False
2022-02-04,1.0275751120281438,1.0275751120281438,0.0,0,False
2022-02-05,1.0275751120281438,1.0275751120281438,0.0,0,False
2022-02-06,1.0275751120281438,1.0275751120281438,0.0,0,False
2022-02-07,1.0275751120281438,1.0275751120281438,0.0,0,False
2022-02-08,1.0275751120281438,1.0275751120281438,0.0,0,False
2022-02-09,1.0275751120281438,1.0275751120281438,0.0,0,False
2022-02-10,1.0275751120281438,1.0287136747134218,0.11080092072595082,2,True
2022-02-11,1.0287136747134218,1.0173070091271192,-1.108828031228437,0,True
2022-02-12,1.0173070091271192,1.0173070091271192,0.0,0,False
2022-02-13,1.0173070091271192,1.0173070091271192,0.0,0,False
2022-02-14,1.0173070091271192,1.0173070091271192,0.0,0,False
2022-02-15,1.0173070091271192,1.0173070091271192,0.0,0,False
2022-02-16,1.0173070091271192,1.0173070091271192,0.0,0,False
2022-02-17,1.0173070091271192,1.0173070091271192,0.0,0,False
2022-02-18,1.0173070091271192,1.0173070091271192,0.0,0,False
2022-02-19,1.0173070091271192,1.0173070091271192,0.0,0,False
2022-02-20,1.0173070091271192,1.0173070091271192,0.0,0,False
2022-02-21,1.0173070091271192,1.0173070091271192,0.0,0,False
2022-02-22,1.0173070091271192,1.0173070091271192,0.0,0,False
2022-02-23,1.0173070091271192,1.0173070091271192,0.0,0,False
2022-02-24,1.0173070091271192,1.0173070091271192,0.0,0,False
2022-02-25,1.0173070091271192,1.0173070091271192,0.0,0,False
2022-02-26,1.0173070091271192,1.0173070091271192,0.0,0,False
2022-02-27,1.0173070091271192,1.0173070091271192,0.0,0,False
2022-02-28,1.0173070091271192,1.0173070091271192,0.0,0,False
2022-03-01,1.0173070091271192,1.0173070091271192,0.0,0,False
2022-03-02,1.0173070091271192,1.0173070091271192,0.0,0,False
2022-03-03,1.0173070091271192,1.0173070091271192,0.0,0,False
2022-03-04,1.0173070091271192,1.0173070091271192,0.0,0,False
2022-03-05,1.0173070091271192,1.0173070091271192,0.0,0,False
2022-03-06,1.0173070091271192,1.0173070091271192,0.0,0,False
2022-03-07,1.0173070091271192,1.0173070091271192,0.0,0,False
2022-03-08,1.0173070091271192,1.0173070091271192,0.0,0,False
2022-03-09,1.0173070091271192,1.0173070091271192,0.0,0,False
2022-03-10,1.0173070091271192,1.0173070091271192,0.0,0,False
2022-03-11,1.0173070091271192,1.0173070091271192,0.0,0,False
2022-03-12,1.0173070091271192,1.0173070091271192,0.0,0,False
2022-03-13,1.0173070091271192,1.0173070091271192,0.0,0,False
2022-03-14,1.0173070091271192,1.0173070091271192,0.0,0,False
2022-03-15,1.0173070091271192,1.0173070091271192,0.0,0,False
2022-03-16,1.0173070091271192,1.0173070091271192,0.0,0,False
2022-03-17,1.0173070091271192,1.0173070091271192,0.0,0,False
2022-03-18,1.0173070091271192,1.0173070091271192,0.0,0,False
2022-03-19,1.0173070091271192,1.0173070091271192,0.0,0,False
2022-03-20,1.0173070091271192,1.0173070091271192,0.0,0,False
2022-03-21,1.0173070091271192,1.0173070091271192,0.0,0,False
2022-03-22,1.0173070091271192,1.0173070091271192,0.0,0,False
2022-03-23,1.0173070091271192,1.0173070091271192,0.0,0,False
2022-03-24,1.0173070091271192,1.0173070091271192,0.0,0,False
2022-03-25,1.0173070091271192,1.0173070091271192,0.0,0,False
2022-03-26,1.0173070091271192,1.0198065114881185,0.2456979396164627,1,True
2022-03-27,1.0198065114881185,1.0198065114881185,0.0,0,False
2022-03-28,1.0198065114881185,1.0234186177292997,0.35419525179440914,1,True
2022-03-29,1.0234186177292997,1.0234186177292997,0.0,0,False
2022-03-30,1.0234186177292997,1.0183047530821843,-0.4996845434043107,1,True
2022-03-31,1.0183047530821843,1.0183047530821843,0.0,0,False
2022-04-01,1.0183047530821843,1.0160150619669526,-0.22485322869222335,1,True
2022-04-02,1.0160150619669526,1.0160150619669526,0.0,0,False
2022-04-03,1.0160150619669526,1.0150407722573318,-0.09589323486353107,1,True
2022-04-04,1.0150407722573318,1.00997398542239,-0.49917076963065243,1,True
2022-04-05,1.00997398542239,1.00997398542239,0.0,0,False
2022-04-06,1.00997398542239,1.0117760726657197,0.178429075336628,1,True
2022-04-07,1.0117760726657197,1.006726872784036,-0.4990432189585836,1,True
2022-04-08,1.006726872784036,1.006726872784036,0.0,0,False
2022-04-09,1.006726872784036,1.006726872784036,0.0,0,False
2022-04-10,1.006726872784036,1.006726872784036,0.0,0,False
2022-04-11,1.006726872784036,1.006726872784036,0.0,0,False
2022-04-12,1.006726872784036,1.006726872784036,0.0,0,False
2022-04-13,1.006726872784036,1.006726872784036,0.0,0,False
2022-04-14,1.006726872784036,1.006726872784036,0.0,0,False
2022-04-15,1.006726872784036,1.006726872784036,0.0,0,False
2022-04-16,1.006726872784036,1.006726872784036,0.0,0,False
2022-04-17,1.006726872784036,1.006726872784036,0.0,0,False
2022-04-18,1.006726872784036,1.010675401857707,0.3922145301189506,1,True
2022-04-19,1.010675401857707,1.008620517032692,-0.20331798134574086,0,True
2022-04-20,1.008620517032692,1.008620517032692,0.0,0,False
2022-04-21,1.008620517032692,1.008620517032692,0.0,0,False
2022-04-22,1.008620517032692,1.008620517032692,0.0,0,False
2022-04-23,1.008620517032692,1.008620517032692,0.0,0,False
2022-04-24,1.008620517032692,1.008620517032692,0.0,0,False
2022-04-25,1.008620517032692,1.008620517032692,0.0,0,False
2022-04-26,1.008620517032692,1.008620517032692,0.0,0,False
2022-04-27,1.008620517032692,1.0035852827716667,-0.49921989251604515,1,True
2022-04-28,1.0035852827716667,1.0035852827716667,0.0,0,False
2022-04-29,1.0035852827716667,0.998573102689669,-0.49942741967630155,1,True
2022-04-30,0.998573102689669,0.998573102689669,0.0,0,False
2022-05-01,0.998573102689669,1.0108914628242704,1.2335962286007751,4,True
2022-05-02,1.0108914628242704,1.0108914628242704,0.0,0,False
2022-05-03,1.0108914628242704,1.0108914628242704,0.0,0,False
2022-05-04,1.0108914628242704,1.0058434754477994,-0.49935997702145185,1,True
2022-05-05,1.0058434754477994,1.0058434754477994,0.0,0,False
2022-05-06,1.0058434754477994,0.9958270527201885,-0.9958232043163262,2,True
2022-05-07,0.9958270527201885,0.9958270527201885,0.0,0,False
2022-05-08,0.9958270527201885,0.9958270527201885,0.0,0,False
2022-05-09,0.9958270527201885,0.9958270527201885,0.0,0,False
2022-05-10,0.9958270527201885,0.9755708745791719,-2.0341060313319503,5,True
2022-05-11,0.9755708745791719,0.951347872327323,-2.4829566854686957,5,True
2022-05-12,0.951347872327323,0.9541116814249395,0.29051508685833394,8,True
2022-05-13,0.9541116814249395,0.9555767645021214,0.15355467349418284,0,True
2022-05-14,0.9555767645021214,0.9539267581963371,-0.17267124600334194,2,True
2022-05-15,0.9539267581963371,0.9515464023511795,-0.2495323487579193,1,True
2022-05-16,0.9515464023511795,0.9491723145411343,-0.24949784941429298,1,True
2022-05-17,0.9491723145411343,0.9491723145411343,0.0,0,False
2022-05-18,0.9491723145411343,0.9491723145411343,0.0,0,False
2022-05-19,0.9491723145411343,0.9468033658645774,-0.24958046502885356,1,True
2022-05-20,0.9468033658645774,0.9444417291423085,-0.24943264963072087,1,True
2022-05-21,0.9444417291423085,0.9444417291423085,0.0,0,False
2022-05-22,0.9444417291423085,0.9444417291423085,0.0,0,False
2022-05-23,0.9444417291423085,0.9420848120790684,-0.24955664182485515,1,True
2022-05-24,0.9420848120790684,0.9414657240379644,-0.06571468228404598,2,True
2022-05-25,0.9414657240379644,0.9463806346993574,0.5220488155758707,1,True
2022-05-26,0.9463806346993574,0.9440177385394518,-0.2496771460942071,1,True
2022-05-27,0.9440177385394518,0.9416604526134835,-0.24970779994191172,1,True
2022-05-28,0.9416604526134835,0.9416604526134835,0.0,0,False
2022-05-29,0.9416604526134835,0.9416604526134835,0.0,0,False
2022-05-30,0.9416604526134835,0.9416604526134835,0.0,0,False
2022-05-31,0.9416604526134835,0.9346120908451947,-0.748503534233258,3,True
2022-06-01,0.9346120908451947,0.9346120908451947,0.0,0,False
2022-06-02,0.9346120908451947,0.9322789883319633,-0.24963324742798276,1,True
2022-06-03,0.9322789883319633,0.9322789883319633,0.0,0,False
2022-06-04,0.9322789883319633,0.9322789883319633,0.0,0,False
2022-06-05,0.9322789883319633,0.9322789883319633,0.0,0,False
2022-06-06,0.9322789883319633,0.9322789883319633,0.0,0,False
2022-06-07,0.9322789883319633,0.9328673518017965,0.06311023601270893,1,True
2022-06-08,0.9328673518017965,0.9329383711114604,0.007613012667517793,1,True
2022-06-09,0.9329383711114604,0.9329383711114604,0.0,0,False
2022-06-10,0.9329383711114604,0.9367566435750795,0.40927381506135063,2,True
2022-06-11,0.9367566435750795,0.9344157559178304,-0.24989282684082514,1,True
2022-06-12,0.9344157559178304,0.9412124540117536,0.7273740891972746,4,True
2022-06-13,0.9412124540117536,0.9364932070054456,-0.5014008246696067,3,True
2022-06-14,0.9364932070054456,0.937717585728437,0.13074080130346388,1,True
2022-06-15,0.937717585728437,0.937717585728437,0.0,0,False
2022-06-16,0.937717585728437,0.9504035046711234,1.352850702147368,4,True
2022-06-17,0.9504035046711234,0.9502369242093354,-0.017527340857792506,1,True
2022-06-18,0.9502369242093354,0.9407740501791076,-0.9958436458466946,4,True
2022-06-19,0.9407740501791076,0.9407740501791076,0.0,0,False
2022-06-20,0.9407740501791076,0.9407740501791076,0.0,0,False
2022-06-21,0.9407740501791076,0.9407740501791076,0.0,0,False
2022-06-22,0.9407740501791076,0.9407740501791076,0.0,0,False
2022-06-23,0.9407740501791076,0.9407740501791076,0.0,0,False
2022-06-24,0.9407740501791076,0.9407740501791076,0.0,0,False
2022-06-25,0.9407740501791076,0.9407740501791076,0.0,0,False
2022-06-26,0.9407740501791076,0.9407740501791076,0.0,0,False
2022-06-27,0.9407740501791076,0.9407740501791076,0.0,0,False
2022-06-28,0.9407740501791076,0.9417862098932498,0.10758797119769792,1,True
2022-06-29,0.9417862098932498,0.9384258953546242,-0.35680226609036136,0,True
2022-06-30,0.9384258953546242,0.9384258953546242,0.0,0,False
2022-07-01,0.9384258953546242,0.9384258953546242,0.0,0,False
2022-07-02,0.9384258953546242,0.9384258953546242,0.0,0,False
2022-07-03,0.9384258953546242,0.9375263887466286,-0.0958527053066427,1,True
2022-07-04,0.9375263887466286,0.9375263887466286,0.0,0,False
2022-07-05,0.9375263887466286,0.9375263887466286,0.0,0,False
2022-07-06,0.9375263887466286,0.9375263887466286,0.0,0,False
2022-07-07,0.9375263887466286,0.9375263887466286,0.0,0,False
2022-07-08,0.9375263887466286,0.9375263887466286,0.0,0,False
2022-07-09,0.9375263887466286,0.9375263887466286,0.0,0,False
2022-07-10,0.9375263887466286,0.9375263887466286,0.0,0,False
2022-07-11,0.9375263887466286,0.9375263887466286,0.0,0,False
2022-07-12,0.9375263887466286,0.9375263887466286,0.0,0,False
2022-07-13,0.9375263887466286,0.9448665071759074,0.7829239280498168,4,True
2022-07-14,0.9448665071759074,0.956240251566681,1.2037408781446102,0,True
2022-07-15,0.956240251566681,0.956240251566681,0.0,0,False
2022-07-16,0.956240251566681,0.956240251566681,0.0,0,False
2022-07-17,0.956240251566681,0.956240251566681,0.0,0,False
2022-07-18,0.956240251566681,0.956240251566681,0.0,0,False
2022-07-19,0.956240251566681,0.9549014337014612,-0.1400085243249638,2,True
2022-07-20,0.9549014337014612,0.9549014337014612,0.0,0,False
2022-07-21,0.9549014337014612,0.9502081722097961,-0.4914917211374048,3,True
2022-07-22,0.9502081722097961,0.9502081722097961,0.0,0,False
2022-07-23,0.9502081722097961,0.9502081722097961,0.0,0,False
2022-07-24,0.9502081722097961,0.9541358835715585,0.4133527238171508,1,True
2022-07-25,0.9541358835715585,0.9547583008296069,0.06523360757784147,1,True
2022-07-26,0.9547583008296069,0.9547583008296069,0.0,0,False
2022-07-27,0.9547583008296069,0.9547583008296069,0.0,0,False
2022-07-28,0.9547583008296069,0.9547583008296069,0.0,0,False
2022-07-29,0.9547583008296069,0.9523740547073137,-0.24972248161879707,1,True
2022-07-30,0.9523740547073137,0.9523740547073137,0.0,0,False
2022-07-31,0.9523740547073137,0.9499939647888752,-0.24991125143261073,1,True
2022-08-01,0.9499939647888752,0.9499939647888752,0.0,0,False
2022-08-02,0.9499939647888752,0.9499939647888752,0.0,0,False
2022-08-03,0.9499939647888752,0.9489024684855157,-0.11489507763368101,1,True
2022-08-04,0.9489024684855157,0.9489024684855157,0.0,0,False
2022-08-05,0.9489024684855157,0.9489024684855157,0.0,0,False
2022-08-06,0.9489024684855157,0.9489024684855157,0.0,0,False
2022-08-07,0.9489024684855157,0.9489024684855157,0.0,0,False
2022-08-08,0.9489024684855157,0.9489024684855157,0.0,0,False
2022-08-09,0.9489024684855157,0.9501273238848047,0.12908127441630945,1,True
2022-08-10,0.9501273238848047,0.9501273238848047,0.0,0,False
2022-08-11,0.9501273238848047,0.9501273238848047,0.0,0,False
2022-08-12,0.9501273238848047,0.9502613447670003,0.014105570782629862,1,True
2022-08-13,0.9502613447670003,0.9502613447670003,0.0,0,False
2022-08-14,0.9502613447670003,0.9502613447670003,0.0,0,False
2022-08-15,0.9502613447670003,0.9502613447670003,0.0,0,False
2022-08-16,0.9502613447670003,0.9500548945066973,-0.021725629632296517,1,True
2022-08-17,0.9500548945066973,0.9500548945066973,0.0,0,False
2022-08-18,0.9500548945066973,0.9500548945066973,0.0,0,False
2022-08-19,0.9500548945066973,0.9414312489784048,-0.9076997106330587,8,True
2022-08-20,0.9414312489784048,0.9437188067434706,0.24298723539804,0,True
2022-08-21,0.9437188067434706,0.9437188067434706,0.0,0,False
2022-08-22,0.9437188067434706,0.9437188067434706,0.0,0,False
2022-08-23,0.9437188067434706,0.9437188067434706,0.0,0,False
2022-08-24,0.9437188067434706,0.9437188067434706,0.0,0,False
2022-08-25,0.9437188067434706,0.9437188067434706,0.0,0,False
2022-08-26,0.9437188067434706,0.9437188067434706,0.0,0,False
2022-08-27,0.9437188067434706,0.9413629909779527,-0.24963111349314282,1,True
2022-08-28,0.9413629909779527,0.9417998874273951,0.046411050108141616,1,True
2022-08-29,0.9417998874273951,0.9403424048702638,-0.154755015007757,0,True
2022-08-30,0.9403424048702638,0.9403424048702638,0.0,0,False
2022-08-31,0.9403424048702638,0.9403424048702638,0.0,0,False
2022-09-01,0.9403424048702638,0.9403424048702638,0.0,0,False
2022-09-02,0.9403424048702638,0.9403424048702638,0.0,0,False
2022-09-03,0.9403424048702638,0.9403424048702638,0.0,0,False
2022-09-04,0.9403424048702638,0.9403424048702638,0.0,0,False
2022-09-05,0.9403424048702638,0.9403424048702638,0.0,0,False
2022-09-06,0.9403424048702638,0.9403424048702638,0.0,0,False
2022-09-07,0.9403424048702638,0.9351970667149427,-0.5471770845036916,4,True
2022-09-08,0.9351970667149427,0.9351970667149427,0.0,0,False
2022-09-09,0.9351970667149427,0.9351970667149427,0.0,0,False
2022-09-10,0.9351970667149427,0.9351970667149427,0.0,0,False
2022-09-11,0.9351970667149427,0.9351970667149427,0.0,0,False
2022-09-12,0.9351970667149427,0.9351970667149427,0.0,0,False
2022-09-13,0.9351970667149427,0.9304232942158854,-0.5104563165308162,4,True
2022-09-14,0.9304232942158854,0.924982464312486,-0.5847693127658316,1,True
2022-09-15,0.924982464312486,0.9281659913890599,0.34417161399271645,1,True
2022-09-16,0.9281659913890599,0.9281659913890599,0.0,0,False
2022-09-17,0.9281659913890599,0.9281659913890599,0.0,0,False
2022-09-18,0.9281659913890599,0.9281659913890599,0.0,0,False
2022-09-19,0.9281659913890599,0.928833045439518,0.071867969376882,5,True
2022-09-20,0.928833045439518,0.928833045439518,0.0,0,False
2022-09-21,0.928833045439518,0.928833045439518,0.0,0,False
2022-09-22,0.928833045439518,0.928833045439518,0.0,0,False
2022-09-23,0.928833045439518,0.928833045439518,0.0,0,False
2022-09-24,0.928833045439518,0.928833045439518,0.0,0,False
2022-09-25,0.928833045439518,0.928833045439518,0.0,0,False
2022-09-26,0.928833045439518,0.928833045439518,0.0,0,False
2022-09-27,0.928833045439518,0.928833045439518,0.0,0,False
2022-09-28,0.928833045439518,0.928833045439518,0.0,0,False
2022-09-29,0.928833045439518,0.928833045439518,0.0,0,False
2022-09-30,0.928833045439518,0.928833045439518,0.0,0,False
2022-10-01,0.928833045439518,0.928833045439518,0.0,0,False
2022-10-02,0.928833045439518,0.928833045439518,0.0,0,False
2022-10-03,0.928833045439518,0.928833045439518,0.0,0,False
2022-10-04,0.928833045439518,0.928833045439518,0.0,0,False
2022-10-05,0.928833045439518,0.928833045439518,0.0,0,False
2022-10-06,0.928833045439518,0.928833045439518,0.0,0,False
2022-10-07,0.928833045439518,0.928833045439518,0.0,0,False
2022-10-08,0.928833045439518,0.928833045439518,0.0,0,False
2022-10-09,0.928833045439518,0.928833045439518,0.0,0,False
2022-10-10,0.928833045439518,0.9265141225021197,-0.24965982302028733,1,True
2022-10-11,0.9265141225021197,0.9423897466509422,1.713478916646105,4,True
2022-10-12,0.9423897466509422,0.9423897466509422,0.0,0,False
2022-10-13,0.9423897466509422,0.9423897466509422,0.0,0,False
2022-10-14,0.9423897466509422,0.9423897466509422,0.0,0,False
2022-10-15,0.9423897466509422,0.9423897466509422,0.0,0,False
2022-10-16,0.9423897466509422,0.9423897466509422,0.0,0,False
2022-10-17,0.9423897466509422,0.9423897466509422,0.0,0,False
2022-10-18,0.9423897466509422,0.9423897466509422,0.0,0,False
2022-10-19,0.9423897466509422,0.9423897466509422,0.0,0,False
2022-10-20,0.9423897466509422,0.9449997135556849,0.27695196324217797,1,True
2022-10-21,0.9449997135556849,0.9449997135556849,0.0,0,False
2022-10-22,0.9449997135556849,0.9449997135556849,0.0,0,False
2022-10-23,0.9449997135556849,0.9449997135556849,0.0,0,False
2022-10-24,0.9449997135556849,0.9449997135556849,0.0,0,False
2022-10-25,0.9449997135556849,0.9449997135556849,0.0,0,False
2022-10-26,0.9449997135556849,0.9449997135556849,0.0,0,False
2022-10-27,0.9449997135556849,0.9449997135556849,0.0,0,False
2022-10-28,0.9449997135556849,0.9449997135556849,0.0,0,False
2022-10-29,0.9449997135556849,0.9449997135556849,0.0,0,False
2022-10-30,0.9449997135556849,0.9449997135556849,0.0,0,False
2022-10-31,0.9449997135556849,0.9449997135556849,0.0,0,False
2022-11-01,0.9449997135556849,0.9449997135556849,0.0,0,False
2022-11-02,0.9449997135556849,0.9479214959500145,0.3091834158696294,1,True
2022-11-03,0.9479214959500145,0.9500886861869471,0.2286254975957247,3,True
2022-11-04,0.9500886861869471,0.9564346801863635,0.6679370138471086,5,True
2022-11-05,0.9564346801863635,0.9562062761684517,-0.023880775409279575,1,True
2022-11-06,0.9562062761684517,0.9562062761684517,0.0,0,False
2022-11-07,0.9562062761684517,0.954358746347883,-0.19321456746465016,2,True
2022-11-08,0.954358746347883,0.9511553670470613,-0.3356577715749265,5,True
2022-11-09,0.9511553670470613,0.9354459788140754,-1.6516111644049203,14,True
2022-11-10,0.9354459788140754,0.9497422048894677,1.528279173696001,5,True
2022-11-11,0.9497422048894677,0.9557043771802459,0.6277674362667796,5,True
2022-11-12,0.9557043771802459,0.9561202734332512,0.043517248946001175,2,True
2022-11-13,0.9561202734332512,0.953734365385078,-0.2495405771081316,1,True
2022-11-14,0.953734365385078,0.9536366750294744,-0.010242931276183143,2,True
2022-11-15,0.9536366750294744,0.9536366750294744,0.0,0,False
2022-11-16,0.9536366750294744,0.9536366750294744,0.0,0,False
2022-11-17,0.9536366750294744,0.9536366750294744,0.0,0,False
2022-11-18,0.9536366750294744,0.9536366750294744,0.0,0,False
2022-11-19,0.9536366750294744,0.953597034929398,-0.004156729823245886,2,True
2022-11-20,0.953597034929398,0.9516726135684062,-0.20180655879811216,1,True
2022-11-21,0.9516726135684062,0.9487272340571242,-0.30949503739924333,1,True
2022-11-22,0.9487272340571242,0.9487272340571242,0.0,0,False
2022-11-23,0.9487272340571242,0.9487272340571242,0.0,0,False
2022-11-24,0.9487272340571242,0.9487272340571242,0.0,0,False
2022-11-25,0.9487272340571242,0.9485013652251472,-0.02380756279243279,1,True
2022-11-26,0.9485013652251472,0.9485013652251472,0.0,0,False
2022-11-27,0.9485013652251472,0.9485013652251472,0.0,0,False
2022-11-28,0.9485013652251472,0.9461845344694172,-0.2442622478650902,2,True
2022-11-29,0.9461845344694172,0.9461845344694172,0.0,0,False
2022-11-30,0.9461845344694172,0.9461845344694172,0.0,0,False
2022-12-01,0.9461845344694172,0.9460351036087654,-0.015792993354679652,1,True
2022-12-02,0.9460351036087654,0.9453833389242984,-0.0688943446158441,1,True
2022-12-03,0.9453833389242984,0.9453833389242984,0.0,0,False
2022-12-04,0.9453833389242984,0.9406667852663111,-0.4989038270289403,2,True
2022-12-05,0.9406667852663111,0.9416482498879422,0.10433711883992558,1,True
2022-12-06,0.9416482498879422,0.9409213197857188,-0.07719762685375331,0,True
2022-12-07,0.9409213197857188,0.9409213197857188,0.0,0,False
2022-12-08,0.9409213197857188,0.9385750442192763,-0.24935937969572386,1,True
2022-12-09,0.9385750442192763,0.9385750442192763,0.0,0,False
2022-12-10,0.9385750442192763,0.9385750442192763,0.0,0,False
2022-12-11,0.9385750442192763,0.9385750442192763,0.0,0,False
2022-12-12,0.9385750442192763,0.9385750442192763,0.0,0,False
2022-12-13,0.9385750442192763,0.9385750442192763,0.0,0,False
2022-12-14,0.9385750442192763,0.9385750442192763,0.0,0,False
2022-12-15,0.9385750442192763,0.9385750442192763,0.0,0,False
2022-12-16,0.9385750442192763,0.9385750442192763,0.0,0,False
2022-12-17,0.9385750442192763,0.9474798922154326,0.9487624938465666,4,True
2022-12-18,0.9474798922154326,0.9474798922154326,0.0,0,False
2022-12-19,0.9474798922154326,0.9474798922154326,0.0,0,False
2022-12-20,0.9474798922154326,0.9474798922154326,0.0,0,False
2022-12-21,0.9474798922154326,0.9474798922154326,0.0,0,False
2022-12-22,0.9474798922154326,0.9474798922154326,0.0,0,False
2022-12-23,0.9474798922154326,0.9474798922154326,0.0,0,False
2022-12-24,0.9474798922154326,0.9474798922154326,0.0,0,False
2022-12-25,0.9474798922154326,0.9474798922154326,0.0,0,False
2022-12-26,0.9474798922154326,0.9474798922154326,0.0,0,False
2022-12-27,0.9474798922154326,0.9474798922154326,0.0,0,False
2022-12-28,0.9474798922154326,0.9490355416521322,0.164188121508535,1,True
2022-12-29,0.9490355416521322,0.9483910845523069,-0.06790652947553655,0,True
2022-12-30,0.9483910845523069,0.9483910845523069,0.0,0,False
2022-12-31,0.9483910845523069,0.9483910845523069,0.0,0,False
2023-01-01,0.9483910845523069,0.9483910845523069,0.0,0,False
2023-01-02,0.9483910845523069,0.9485461697592071,0.016352453057222327,1,True
2023-01-03,0.9485461697592071,0.9486060718416607,0.006315146733326671,0,True
2023-01-04,0.9486060718416607,0.9486060718416607,0.0,0,False
2023-01-05,0.9486060718416607,0.9486060718416607,0.0,0,False
2023-01-06,0.9486060718416607,0.9486060718416607,0.0,0,False
2023-01-07,0.9486060718416607,0.9486060718416607,0.0,0,False
2023-01-08,0.9486060718416607,0.9486060718416607,0.0,0,False
2023-01-09,0.9486060718416607,0.9486060718416607,0.0,0,False
2023-01-10,0.9486060718416607,0.9470435646680968,-0.16471612610811093,2,True
2023-01-11,0.9470435646680968,0.9475040147190966,0.048619732837873464,0,True
2023-01-12,0.9475040147190966,0.9475040147190966,0.0,0,False
2023-01-13,0.9475040147190966,0.9475040147190966,0.0,0,False
2023-01-14,0.9475040147190966,0.9448200456847747,-0.283267299412715,3,True
2023-01-15,0.9448200456847747,0.9456674201202823,0.08968633120960412,1,True
2023-01-16,0.9456674201202823,0.9456674201202823,0.0,0,False
2023-01-17,0.9456674201202823,0.9456674201202823,0.0,0,False
2023-01-18,0.9456674201202823,0.9456674201202823,0.0,0,False
2023-01-19,0.9456674201202823,0.9433072095545261,-0.24958146125579894,1,True
2023-01-20,0.9433072095545261,0.9433072095545261,0.0,0,False
2023-01-21,0.9433072095545261,0.9440790385917464,0.08182159845728787,1,True
2023-01-22,0.9440790385917464,0.9436196297102737,-0.048662120722220426,0,True
2023-01-23,0.9436196297102737,0.9436196297102737,0.0,0,False
2023-01-24,0.9436196297102737,0.947590504294083,0.4208130541994537,1,True
2023-01-25,0.947590504294083,0.9530317951326235,0.5742238671538891,5,True
2023-01-26,0.9530317951326235,0.953683435974689,0.06837556159129399,1,True
2023-01-27,0.953683435974689,0.9542912102891236,0.0637291465394263,0,True
2023-01-28,0.9542912102891236,0.9542912102891236,0.0,0,False
2023-01-29,0.9542912102891236,0.9542912102891236,0.0,0,False
2023-01-30,0.9542912102891236,0.9541749317310233,-0.01218480866705951,2,True
2023-01-31,0.9541749317310233,0.9538099977591482,-0.03824602384103759,2,True
2023-02-01,0.9538099977591482,0.9538099977591482,0.0,0,False
2023-02-02,0.9538099977591482,0.9538099977591482,0.0,0,False
2023-02-03,0.9538099977591482,0.9538099977591482,0.0,0,False
2023-02-04,0.9538099977591482,0.9538099977591482,0.0,0,False
2023-02-05,0.9538099977591482,0.9553487564926254,0.1613275953378901,5,True
2023-02-06,0.9553487564926254,0.9625105754948915,0.749654924821308,1,True
2023-02-07,0.9625105754948915,0.9625105754948915,0.0,0,False
2023-02-08,0.9625105754948915,0.9625105754948915,0.0,0,False
2023-02-09,0.9625105754948915,0.9625105754948915,0.0,0,False
2023-02-10,0.9625105754948915,0.9636991930459358,0.12349137571119329,1,True
2023-02-11,0.9636991930459358,0.9622567611696755,-0.14967656782000072,0,True
2023-02-12,0.9622567611696755,0.9598540339299131,-0.24969710130607892,1,True
2023-02-13,0.9598540339299131,0.9598540339299131,0.0,0,False
2023-02-14,0.9598540339299131,0.9598540339299131,0.0,0,False
2023-02-15,0.9598540339299131,0.9598540339299131,0.0,0,False
2023-02-16,0.9598540339299131,0.9598540339299131,0.0,0,False
2023-02-17,0.9598540339299131,0.9598540339299131,0.0,0,False
2023-02-18,0.9598540339299131,0.9598540339299131,0.0,0,False
2023-02-19,0.9598540339299131,0.9598540339299131,0.0,0,False
2023-02-20,0.9598540339299131,0.9598540339299131,0.0,0,False
2023-02-21,0.9598540339299131,0.9578476106214115,-0.20903421120049837,3,True
2023-02-22,0.9578476106214115,0.9563795939090811,-0.15326203208650968,2,True
2023-02-23,0.9563795939090811,0.9637500672469235,0.7706640108993135,1,True
2023-02-24,0.9637500672469235,0.9637500672469235,0.0,0,False
2023-02-25,0.9637500672469235,0.9637500672469235,0.0,0,False
2023-02-26,0.9637500672469235,0.9645516282459121,0.08317104467534531,1,True
2023-02-27,0.9645516282459121,0.9621439004594234,-0.2496214527020424,1,True
2023-02-28,0.9621439004594234,0.9621439004594234,0.0,0,False
2023-03-01,0.9621439004594234,0.9621439004594234,0.0,0,False
2023-03-02,0.9621439004594234,0.9621439004594234,0.0,0,False
2023-03-03,0.9621439004594234,0.9612005117816533,-0.09805068423960339,6,True
2023-03-04,0.9612005117816533,0.9612005117816533,0.0,0,False
2023-03-05,0.9612005117816533,0.9612005117816533,0.0,0,False
2023-03-06,0.9612005117816533,0.9612005117816533,0.0,0,False
2023-03-07,0.9612005117816533,0.9612005117816533,0.0,0,False
2023-03-08,0.9612005117816533,0.9612005117816533,0.0,0,False
2023-03-09,0.9612005117816533,0.9612005117816533,0.0,0,False
2023-03-10,0.9612005117816533,0.9587980106620659,-0.24994796508526207,1,True
2023-03-11,0.9587980106620659,0.9659031266908945,0.7410440937317242,3,True
2023-03-12,0.9659031266908945,0.9678960620536882,0.20632869981707103,0,True
2023-03-13,0.9678960620536882,0.9678960620536882,0.0,0,False
2023-03-14,0.9678960620536882,0.9678960620536882,0.0,0,False
2023-03-15,0.9678960620536882,0.9678960620536882,0.0,0,False
2023-03-16,0.9678960620536882,0.9711849095944567,0.3397934623052601,5,True
2023-03-17,0.9711849095944567,0.9692558783640404,-0.1986265654829622,2,True
2023-03-18,0.9692558783640404,0.968168466098842,-0.11219042251605638,0,True
2023-03-19,0.968168466098842,0.968168466098842,0.0,0,False
2023-03-20,0.968168466098842,0.968168466098842,0.0,0,False
2023-03-21,0.968168466098842,0.9633421645616117,-0.49849811331673655,2,True
2023-03-22,0.9633421645616117,0.9633421645616117,0.0,0,False
2023-03-23,0.9633421645616117,0.9678395309058413,0.4668503580216754,3,True
2023-03-24,0.9678395309058413,0.9686360578779057,0.08229948732503267,0,True
2023-03-25,0.9686360578779057,0.9662189406918518,-0.24953822092369515,1,True
2023-03-26,0.9662189406918518,0.9662189406918518,0.0,0,False
2023-03-27,0.9662189406918518,0.9662189406918518,0.0,0,False
2023-03-28,0.9662189406918518,0.9662189406918518,0.0,0,False
2023-03-29,0.9662189406918518,0.9662189406918518,0.0,0,False
2023-03-30,0.9662189406918518,0.9662189406918518,0.0,0,False
2023-03-31,0.9662189406918518,0.9662189406918518,0.0,0,False
2023-04-01,0.9662189406918518,0.9662189406918518,0.0,0,False
2023-04-02,0.9662189406918518,0.9662189406918518,0.0,0,False
2023-04-03,0.9662189406918518,0.9662189406918518,0.0,0,False
2023-04-04,0.9662189406918518,0.9638068703276873,-0.24964014495899578,1,True
2023-04-05,0.9638068703276873,0.9638068703276873,0.0,0,False
2023-04-06,0.9638068703276873,0.9614020731336282,-0.24951027722405206,1,True
2023-04-07,0.9614020731336282,0.9590003991960959,-0.24980952347067875,1,True
2023-04-08,0.9590003991960959,0.9590003991960959,0.0,0,False
2023-04-09,0.9590003991960959,0.9590003991960959,0.0,0,False
2023-04-10,0.9590003991960959,0.9590003991960959,0.0,0,False
2023-04-11,0.9590003991960959,0.9590003991960959,0.0,0,False
2023-04-12,0.9590003991960959,0.9590003991960959,0.0,0,False
2023-04-13,0.9590003991960959,0.9590003991960959,0.0,0,False
2023-04-14,0.9590003991960959,0.9590003991960959,0.0,0,False
2023-04-15,0.9590003991960959,0.9590003991960959,0.0,0,False
2023-04-16,0.9590003991960959,0.9590003991960959,0.0,0,False
2023-04-17,0.9590003991960959,0.9566065657634298,-0.24961756373331756,1,True
2023-04-18,0.9566065657634298,0.9566065657634298,0.0,0,False
2023-04-19,0.9566065657634298,0.9494608863582792,-0.7469820572941543,3,True
2023-04-20,0.9494608863582792,0.9494608863582792,0.0,0,False
2023-04-21,0.9494608863582792,0.9494608863582792,0.0,0,False
2023-04-22,0.9494608863582792,0.9494608863582792,0.0,0,False
2023-04-23,0.9494608863582792,0.9494608863582792,0.0,0,False
2023-04-24,0.9494608863582792,0.9494608863582792,0.0,0,False
2023-04-25,0.9494608863582792,0.9494608863582792,0.0,0,False
2023-04-26,0.9494608863582792,0.9494608863582792,0.0,0,False
2023-04-27,0.9494608863582792,0.9494608863582792,0.0,0,False
2023-04-28,0.9494608863582792,0.9494608863582792,0.0,0,False
2023-04-29,0.9494608863582792,0.9494608863582792,0.0,0,False
2023-04-30,0.9494608863582792,0.9494608863582792,0.0,0,False
2023-05-01,0.9494608863582792,0.9494608863582792,0.0,0,False
2023-05-02,0.9494608863582792,0.9494608863582792,0.0,0,False
2023-05-03,0.9494608863582792,0.9494608863582792,0.0,0,False
2023-05-04,0.9494608863582792,0.9494608863582792,0.0,0,False
2023-05-05,0.9494608863582792,0.9494608863582792,0.0,0,False
2023-05-06,0.9494608863582792,0.9494608863582792,0.0,0,False
2023-05-07,0.9494608863582792,0.9494608863582792,0.0,0,False
2023-05-08,0.9494608863582792,0.9469178441354387,-0.267840651403195,5,True
2023-05-09,0.9469178441354387,0.9464408915238492,-0.05036895381614892,2,True
2023-05-10,0.9464408915238492,0.9473588591209171,0.09699154012563493,1,True
2023-05-11,0.9473588591209171,0.948352464858373,0.10488166420672407,0,True
2023-05-12,0.948352464858373,0.948352464858373,0.0,0,False
2023-05-13,0.948352464858373,0.948352464858373,0.0,0,False
2023-05-14,0.948352464858373,0.948352464858373,0.0,0,False
2023-05-15,0.948352464858373,0.948352464858373,0.0,0,False
2023-05-16,0.948352464858373,0.948352464858373,0.0,0,False
2023-05-17,0.948352464858373,0.948352464858373,0.0,0,False
2023-05-18,0.948352464858373,0.948352464858373,0.0,0,False
2023-05-19,0.948352464858373,0.948352464858373,0.0,0,False
2023-05-20,0.948352464858373,0.948352464858373,0.0,0,False
2023-05-21,0.948352464858373,0.948352464858373,0.0,0,False
2023-05-22,0.948352464858373,0.948352464858373,0.0,0,False
2023-05-23,0.948352464858373,0.948352464858373,0.0,0,False
2023-05-24,0.948352464858373,0.948352464858373,0.0,0,False
2023-05-25,0.948352464858373,0.948352464858373,0.0,0,False
2023-05-26,0.948352464858373,0.9495467276757588,0.12593026977201216,1,True
2023-05-27,0.9495467276757588,0.9494392827774524,-0.01131538819256761,1,True
2023-05-28,0.9494392827774524,0.9494392827774524,0.0,0,False
2023-05-29,0.9494392827774524,0.9494392827774524,0.0,0,False
2023-05-30,0.9494392827774524,0.9548846301325407,0.5735329740263806,1,True
2023-05-31,0.9548846301325407,0.9591885280463666,0.4507243888959067,0,True
2023-06-01,0.9591885280463666,0.9591885280463666,0.0,0,False
2023-06-02,0.9591885280463666,0.9669207912101495,0.8061254839579535,3,True
2023-06-03,0.9669207912101495,0.9611624511361394,-0.5955337941180527,1,True
2023-06-04,0.9611624511361394,0.9611624511361394,0.0,0,False
2023-06-05,0.9611624511361394,0.9611624511361394,0.0,0,False
2023-06-06,0.9611624511361394,0.9515974563288147,-0.9951486136415832,4,True
2023-06-07,0.9515974563288147,0.9515974563288147,0.0,0,False
2023-06-08,0.9515974563288147,0.9492214748961497,-0.24968345773340728,1,True
2023-06-09,0.9492214748961497,0.9492214748961497,0.0,0,False
2023-06-10,0.9492214748961497,0.9622246645499075,1.3698794219947796,5,True
2023-06-11,0.9622246645499075,0.9619345268276557,-0.030152804531102806,0,True
2023-06-12,0.9619345268276557,0.9619345268276557,0.0,0,False
2023-06-13,0.9619345268276557,0.9595325691417834,-0.24970074562076228,1,True
2023-06-14,0.9595325691417834,0.9595325691417834,0.0,0,False
2023-06-15,0.9595325691417834,0.9595325691417834,0.0,0,False
2023-06-16,0.9595325691417834,0.9595325691417834,0.0,0,False
2023-06-17,0.9595325691417834,0.9595325691417834,0.0,0,False
2023-06-18,0.9595325691417834,0.9595325691417834,0.0,0,False
2023-06-19,0.9595325691417834,0.9630414747998765,0.3656890626684506,1,True
2023-06-20,0.9630414747998765,0.9636057216803892,0.058590091421550916,0,True
2023-06-21,0.9636057216803892,0.9636057216803892,0.0,0,False
2023-06-22,0.9636057216803892,0.970426521318004,0.7078413384387527,2,True
2023-06-23,0.970426521318004,0.970426521318004,0.0,0,False
2023-06-24,0.970426521318004,0.970426521318004,0.0,0,False
2023-06-25,0.970426521318004,0.9680025621617458,-0.24978286382424386,1,True
2023-06-26,0.9680025621617458,0.9680025621617458,0.0,0,False
2023-06-27,0.9680025621617458,0.9680025621617458,0.0,0,False
2023-06-28,0.9680025621617458,0.9680025621617458,0.0,0,False
2023-06-29,0.9680025621617458,0.9680025621617458,0.0,0,False
2023-06-30,0.9680025621617458,0.9583575403961326,-0.9963839087444026,4,True
2023-07-01,0.9583575403961326,0.9559657746436667,-0.24956925277358488,1,True
2023-07-02,0.9559657746436667,0.9559657746436667,0.0,0,False
2023-07-03,0.9559657746436667,0.9559657746436667,0.0,0,False
2023-07-04,0.9559657746436667,0.9559657746436667,0.0,0,False
2023-07-05,0.9559657746436667,0.9535785460059027,-0.24971904863997363,1,True
2023-07-06,0.9535785460059027,0.9535785460059027,0.0,0,False
2023-07-07,0.9535785460059027,0.9535785460059027,0.0,0,False
2023-07-08,0.9535785460059027,0.9535785460059027,0.0,0,False
2023-07-09,0.9535785460059027,0.9535785460059027,0.0,0,False
2023-07-10,0.9535785460059027,0.9535785460059027,0.0,0,False
2023-07-11,0.9535785460059027,0.9535785460059027,0.0,0,False
2023-07-12,0.9535785460059027,0.9535785460059027,0.0,0,False
2023-07-13,0.9535785460059027,0.9535785460059027,0.0,0,False
2023-07-14,0.9535785460059027,0.9535785460059027,0.0,0,False
2023-07-15,0.9535785460059027,0.9535785460059027,0.0,0,False
2023-07-16,0.9535785460059027,0.9535785460059027,0.0,0,False
2023-07-17,0.9535785460059027,0.9535785460059027,0.0,0,False
2023-07-18,0.9535785460059027,0.9535785460059027,0.0,0,False
2023-07-19,0.9535785460059027,0.9535785460059027,0.0,0,False
2023-07-20,0.9535785460059027,0.9535785460059027,0.0,0,False
2023-07-21,0.9535785460059027,0.9535785460059027,0.0,0,False
2023-07-22,0.9535785460059027,0.9535785460059027,0.0,0,False
2023-07-23,0.9535785460059027,0.9535785460059027,0.0,0,False
2023-07-24,0.9535785460059027,0.951378599725599,-0.230704254989611,2,True
2023-07-25,0.951378599725599,0.9512708440635603,-0.01132626507152068,0,True
2023-07-26,0.9512708440635603,0.9512708440635603,0.0,0,False
2023-07-27,0.9512708440635603,0.9512708440635603,0.0,0,False
2023-07-28,0.9512708440635603,0.9512708440635603,0.0,0,False
2023-07-29,0.9512708440635603,0.9512708440635603,0.0,0,False
2023-07-30,0.9512708440635603,0.9512708440635603,0.0,0,False
2023-07-31,0.9512708440635603,0.9512708440635603,0.0,0,False
2023-08-01,0.9512708440635603,0.9512708440635603,0.0,0,False
2023-08-02,0.9512708440635603,0.9512708440635603,0.0,0,False
2023-08-03,0.9512708440635603,0.9512708440635603,0.0,0,False
2023-08-04,0.9512708440635603,0.9512708440635603,0.0,0,False
2023-08-05,0.9512708440635603,0.9512708440635603,0.0,0,False
2023-08-06,0.9512708440635603,0.9512708440635603,0.0,0,False
2023-08-07,0.9512708440635603,0.9512708440635603,0.0,0,False
2023-08-08,0.9512708440635603,0.9512708440635603,0.0,0,False
2023-08-09,0.9512708440635603,0.9512708440635603,0.0,0,False
2023-08-10,0.9512708440635603,0.9512708440635603,0.0,0,False
2023-08-11,0.9512708440635603,0.9512708440635603,0.0,0,False
2023-08-12,0.9512708440635603,0.9512708440635603,0.0,0,False
2023-08-13,0.9512708440635603,0.9565044559738657,0.5501705369155285,1,True
2023-08-14,0.9565044559738657,0.9566705152367307,0.017361054810338672,1,True
2023-08-15,0.9566705152367307,0.9568608195165316,0.019892353403805352,0,True
2023-08-16,0.9568608195165316,0.9616989990145307,0.5056304322757832,4,True
2023-08-17,0.9616989990145307,0.96029457821372,-0.1460353813667159,1,True
2023-08-18,0.96029457821372,0.9895842060276324,3.0500669771972744,4,True
2023-08-19,0.9895842060276324,0.9992527720987523,0.9770331834550117,2,True
2023-08-20,0.9992527720987523,0.9989821639177294,-0.02708105382129844,0,True
2023-08-21,0.9989821639177294,0.9989821639177294,0.0,0,False
2023-08-22,0.9989821639177294,0.9989821639177294,0.0,0,False
2023-08-23,0.9989821639177294,0.9989821639177294,0.0,0,False
2023-08-24,0.9989821639177294,0.9989821639177294,0.0,0,False
2023-08-25,0.9989821639177294,0.9970620876801483,-0.1922032551663566,4,True
2023-08-26,0.9970620876801483,0.998212009061349,0.11533097039886364,0,True
2023-08-27,0.998212009061349,0.998212009061349,0.0,0,False
2023-08-28,0.998212009061349,0.998212009061349,0.0,0,False
2023-08-29,0.998212009061349,0.9987266392987882,0.05155520398147928,1,True
2023-08-30,0.9987266392987882,0.9987266392987882,0.0,0,False
2023-08-31,0.9987266392987882,0.9987266392987882,0.0,0,False
2023-09-01,0.9987266392987882,0.9987266392987882,0.0,0,False
2023-09-02,0.9987266392987882,1.0144038261539687,1.5697175020972232,3,True
2023-09-03,1.0144038261539687,1.028856295046755,1.4247253924092318,0,True
2023-09-04,1.028856295046755,1.0284214872322648,-0.04226127755484477,1,True
2023-09-05,1.0284214872322648,1.032560845858881,0.4024963186792574,2,True
2023-09-06,1.032560845858881,1.0396276395055184,0.6843948882023776,1,True
2023-09-07,1.0396276395055184,1.0396276395055184,0.0,0,False
2023-09-08,1.0396276395055184,1.0356966015087297,-0.3781198043809719,3,True
2023-09-09,1.0356966015087297,1.0323670525425879,-0.32147918234852746,1,True
2023-09-10,1.0323670525425879,1.0285386865280555,-0.3708338042272441,3,True
2023-09-11,1.0285386865280555,1.0264329538096766,-0.204730531380104,1,True
2023-09-12,1.0264329538096766,1.0264329538096766,0.0,0,False
2023-09-13,1.0264329538096766,1.0238707262766114,-0.24962444196237055,1,True
2023-09-14,1.0238707262766114,1.0238707262766114,0.0,0,False
2023-09-15,1.0238707262766114,1.0238707262766114,0.0,0,False
2023-09-16,1.0238707262766114,1.021311307378348,-0.24997480957101859,1,True
2023-09-17,1.021311307378348,1.0239531154848227,0.25866825201965593,1,True
2023-09-18,1.0239531154848227,1.016302464810857,-0.747168064461945,3,True
2023-09-19,1.016302464810857,1.016302464810857,0.0,0,False
2023-09-20,1.016302464810857,1.0180019535272486,0.16722272898432866,1,True
2023-09-21,1.0180019535272486,1.0201805802989468,0.21401007769674685,0,True
2023-09-22,1.0201805802989468,1.0201805802989468,0.0,0,False
2023-09-23,1.0201805802989468,1.0201805802989468,0.0,0,False
2023-09-24,1.0201805802989468,1.0201805802989468,0.0,0,False
2023-09-25,1.0201805802989468,1.0201805802989468,0.0,0,False
2023-09-26,1.0201805802989468,1.020750906757121,0.055904461346156786,1,True
2023-09-27,1.020750906757121,1.0172559004626744,-0.3423956100661263,1,True
2023-09-28,1.0172559004626744,1.0172559004626744,0.0,0,False
2023-09-29,1.0172559004626744,1.0172559004626744,0.0,0,False
2023-09-30,1.0172559004626744,1.0172559004626744,0.0,0,False
2023-10-01,1.0172559004626744,1.0172559004626744,0.0,0,False
2023-10-02,1.0172559004626744,1.0172559004626744,0.0,0,False
2023-10-03,1.0172559004626744,1.0173928020152856,0.013457926618953842,1,True
2023-10-04,1.0173928020152856,1.0147142883951437,-0.2632723186989594,0,True
2023-10-05,1.0147142883951437,1.0147142883951437,0.0,0,False
2023-10-06,1.0147142883951437,1.0147142883951437,0.0,0,False
2023-10-07,1.0147142883951437,1.0147142883951437,0.0,0,False
2023-10-08,1.0147142883951437,1.0147142883951437,0.0,0,False
2023-10-09,1.0147142883951437,1.0121786316384138,-0.24988874067597422,1,True
2023-10-10,1.0121786316384138,1.0121786316384138,0.0,0,False
2023-10-11,1.0121786316384138,1.0121786316384138,0.0,0,False
2023-10-12,1.0121786316384138,1.0121786316384138,0.0,0,False
2023-10-13,1.0121786316384138,1.0121786316384138,0.0,0,False
2023-10-14,1.0121786316384138,1.0121786316384138,0.0,0,False
2023-10-15,1.0121786316384138,1.0121169891048711,-0.0060900844589983905,1,True
2023-10-16,1.0121169891048711,1.0126056364535867,0.04827972991023888,1,True
2023-10-17,1.0126056364535867,1.0097371299971667,-0.28327972442127036,1,True
2023-10-18,1.0097371299971667,1.0097371299971667,0.0,0,False
2023-10-19,1.0097371299971667,1.0047055695117253,-0.498303997740035,2,True
2023-10-20,1.0047055695117253,1.0047055695117253,0.0,0,False
2023-10-21,1.0047055695117253,1.0052491530528063,0.05410376508065973,1,True
2023-10-22,1.0052491530528063,1.0052491530528063,0.0,0,False
2023-10-23,1.0052491530528063,1.0052491530528063,0.0,0,False
2023-10-24,1.0052491530528063,1.0027396570043257,-0.24963921042455706,1,True
2023-10-25,1.0027396570043257,1.0029113881666831,0.01712619633200685,1,True
2023-10-26,1.0029113881666831,1.0106917935685684,0.7757819378347852,5,True
2023-10-27,1.0106917935685684,1.009205779637454,-0.14702938527555443,2,True
2023-10-28,1.009205779637454,1.012195440065142,0.29623893243675425,1,True
2023-10-29,1.012195440065142,1.012195440065142,0.0,0,False
2023-10-30,1.012195440065142,1.012195440065142,0.0,0,False
2023-10-31,1.012195440065142,1.012195440065142,0.0,0,False
2023-11-01,1.012195440065142,1.012195440065142,0.0,0,False
2023-11-02,1.012195440065142,1.012195440065142,0.0,0,False
2023-11-03,1.012195440065142,1.0096688650089631,-0.24961336083635377,1,True
2023-11-04,1.0096688650089631,1.0096688650089631,0.0,0,False
2023-11-05,1.0096688650089631,1.0151631526774212,0.5441672868073733,1,True
2023-11-06,1.0151631526774212,1.0161548694237823,0.09769038048175194,1,True
2023-11-07,1.0161548694237823,1.0131997695814154,-0.290811955075565,1,True
2023-11-08,1.0131997695814154,1.0131997695814154,0.0,0,False
2023-11-09,1.0131997695814154,1.0168795917277533,0.363188213895671,4,True
2023-11-10,1.0168795917277533,1.022379951685596,0.5409057279335494,4,True
2023-11-11,1.022379951685596,1.022379951685596,0.0,0,False
2023-11-12,1.022379951685596,1.022379951685596,0.0,0,False
2023-11-13,1.022379951685596,1.0218641112286593,-0.050454868181470935,1,True
2023-11-14,1.0218641112286593,1.0254469224831888,0.35061523495738545,1,True
2023-11-15,1.0254469224831888,1.0254469224831888,0.0,0,False
2023-11-16,1.0254469224831888,1.0254469224831888,0.0,0,False
2023-11-17,1.0254469224831888,1.0244779980837884,-0.09448801085228942,1,True
2023-11-18,1.0244779980837884,1.0206444759380258,-0.3741927257523314,2,True
2023-11-19,1.0206444759380258,1.0208847922928967,0.023545549947745492,0,True
2023-11-20,1.0208847922928967,1.022031769190208,0.11235125706352544,1,True
2023-11-21,1.022031769190208,1.0194666370588834,-0.25098360037840717,0,True
2023-11-22,1.0194666370588834,1.0169208014989906,-0.24972230255984051,1,True
2023-11-23,1.0169208014989906,1.0169208014989906,0.0,0,False
2023-11-24,1.0169208014989906,1.0169208014989906,0.0,0,False
2023-11-25,1.0169208014989906,1.0153278929822163,-0.15664037105213025,1,True
2023-11-26,1.0153278929822163,1.0153278929822163,0.0,0,False
2023-11-27,1.0153278929822163,1.011335407822142,-0.3932212625763265,2,True
2023-11-28,1.011335407822142,1.0088100145233114,-0.2497087790359065,1,True
2023-11-29,1.0088100145233114,1.0037691930869848,-0.4996799559636167,2,True
2023-11-30,1.0037691930869848,1.0026825100686168,-0.10826024805822287,1,True
2023-12-01,1.0026825100686168,1.0026825100686168,0.0,0,False
2023-12-02,1.0026825100686168,1.0069974022658499,0.43033484217629425,1,True
2023-12-03,1.0069974022658499,1.006385669672232,-0.06074817991004178,1,True
2023-12-04,1.006385669672232,1.0099118550692772,0.35038112160257207,5,True
2023-12-05,1.0099118550692772,1.014830415753687,0.4870287104484339,1,True
2023-12-06,1.014830415753687,1.0118252925804991,-0.2961207238704966,0,True
2023-12-07,1.0118252925804991,1.0092998813340532,-0.24958965396143507,1,True
2023-12-08,1.0092998813340532,1.0092998813340532,0.0,0,False
2023-12-09,1.0092998813340532,1.0092998813340532,0.0,0,False
2023-12-10,1.0092998813340532,1.0092998813340532,0.0,0,False
2023-12-11,1.0092998813340532,1.017957245797788,0.8577593858716925,4,True
2023-12-12,1.017957245797788,1.017957245797788,0.0,0,False
2023-12-13,1.017957245797788,1.0174269932316549,-0.05208986608444821,1,True
2023-12-14,1.0174269932316549,1.0174269932316549,0.0,0,False
2023-12-15,1.0174269932316549,1.0174269932316549,0.0,0,False
2023-12-16,1.0174269932316549,1.0164133125623143,-0.0996317844999206,1,True
2023-12-17,1.0164133125623143,1.0138761527526177,-0.2496189078142419,1,True
2023-12-18,1.0138761527526177,1.0163977417542829,0.24870779284227318,1,True
2023-12-19,1.0163977417542829,1.0145773104677553,-0.1791061915766834,0,True
2023-12-20,1.0145773104677553,1.0145773104677553,0.0,0,False
2023-12-21,1.0145773104677553,1.0120444465352336,-0.24964720838809296,1,True
2023-12-22,1.0120444465352336,1.0120444465352336,0.0,0,False
2023-12-23,1.0120444465352336,1.0120444465352336,0.0,0,False
2023-12-24,1.0120444465352336,1.0109240630733876,-0.1107049661387638,1,True
2023-12-25,1.0109240630733876,1.0095200744151238,-0.13888171323129805,0,True
2023-12-26,1.0095200744151238,1.0095200744151238,0.0,0,False
2023-12-27,1.0095200744151238,1.0052384946969934,-0.42412031485465906,2,True
2023-12-28,1.0052384946969934,1.0062401081545143,0.09963938536026173,1,True
2023-12-29,1.0062401081545143,1.0028098248042965,-0.34090107544103576,1,True
2023-12-30,1.0028098248042965,1.005202981802133,0.23864514872533604,2,True
2023-12-31,1.005202981802133,1.0007468760008063,-0.4433040770867924,1,True
