day,start_equity,end_equity,return_pct,entries,active
2021-09-02,1.0,1.0,0.0,0,False
2021-09-03,1.0,1.0,0.0,0,False
2021-09-04,1.0,1.0,0.0,0,False
2021-09-05,1.0,1.0,0.0,0,False
2021-09-06,1.0,1.0,0.0,0,False
2021-09-07,1.0,1.0,0.0,0,False
2021-09-08,1.0,1.0,0.0,0,False
2021-09-09,1.0,1.0,0.0,0,False
2021-09-10,1.0,1.0,0.0,0,False
2021-09-11,1.0,1.0,0.0,0,False
2021-09-12,1.0,1.0,0.0,0,False
2021-09-13,1.0,1.0,0.0,0,False
2021-09-14,1.0,1.0,0.0,0,False
2021-09-15,1.0,1.0,0.0,0,False
2021-09-16,1.0,1.0,0.0,0,False
2021-09-17,1.0,1.0,0.0,0,False
2021-09-18,1.0,1.0,0.0,0,False
2021-09-19,1.0,1.0,0.0,0,False
2021-09-20,1.0,1.0,0.0,0,False
2021-09-21,1.0,1.0,0.0,0,False
2021-09-22,1.0,1.0,0.0,0,False
2021-09-23,1.0,1.0,0.0,0,False
2021-09-24,1.0,1.0,0.0,0,False
2021-09-25,1.0,1.0,0.0,0,False
2021-09-26,1.0,1.0,0.0,0,False
2021-09-27,1.0,1.0,0.0,0,False
2021-09-28,1.0,1.0,0.0,0,False
2021-09-29,1.0,1.0,0.0,0,False
2021-09-30,1.0,1.0,0.0,0,False
2021-10-01,1.0,1.0,0.0,0,False
2021-10-02,1.0,1.0,0.0,0,False
2021-10-03,1.0,1.0,0.0,0,False
2021-10-04,1.0,1.0,0.0,0,False
2021-10-05,1.0,1.0,0.0,0,False
2021-10-06,1.0,0.9900198357748151,-0.9980164225184884,2,True
2021-10-07,0.9900198357748151,0.9900198357748151,0.0,0,False
2021-10-08,0.9900198357748151,0.9900198357748151,0.0,0,False
2021-10-09,0.9900198357748151,0.9900198357748151,0.0,0,False
2021-10-10,0.9900198357748151,0.9900198357748151,0.0,0,False
2021-10-11,0.9900198357748151,0.9900198357748151,0.0,0,False
2021-10-12,0.9900198357748151,0.9900198357748151,0.0,0,False
2021-10-13,0.9900198357748151,0.9981921307374012,0.8254678004699034,1,True
2021-10-14,0.9981921307374012,0.9981921307374012,0.0,0,False
2021-10-15,0.9981921307374012,1.0019876668992072,0.38024104227329936,2,True
2021-10-16,1.0019876668992072,0.9919954823332635,-0.9972362830438675,2,True
2021-10-17,0.9919954823332635,0.9919954823332635,0.0,0,False
2021-10-18,0.9919954823332635,0.9919954823332635,0.0,0,False
2021-10-19,0.9919954823332635,0.9919954823332635,0.0,0,False
2021-10-20,0.9919954823332635,0.9919954823332635,0.0,0,False
2021-10-21,0.9919954823332635,0.9919954823332635,0.0,0,False
2021-10-22,0.9919954823332635,0.9919954823332635,0.0,0,False
2021-10-23,0.9919954823332635,0.9919954823332635,0.0,0,False
2021-10-24,0.9919954823332635,0.9919954823332635,0.0,0,False
2021-10-25,0.9919954823332635,0.9980850312933244,0.6138686182055597,1,True
2021-10-26,0.9980850312933244,0.9980850312933244,0.0,0,False
2021-10-27,0.9980850312933244,1.019072683186362,2.1027919701231967,4,True
2021-10-28,1.019072683186362,1.017694715517045,-0.13521780065857136,0,True
2021-10-29,1.017694715517045,1.017694715517045,0.0,0,False
2021-10-30,1.017694715517045,1.015895036241734,-0.17683881500717424,1,True
2021-10-31,1.015895036241734,1.0041510155579074,-1.1560269776760834,4,True
2021-11-01,1.0041510155579074,1.0105479420927004,0.6370482562564339,2,True
2021-11-02,1.0105479420927004,1.0105479420927004,0.0,0,False
2021-11-03,1.0105479420927004,1.0105479420927004,0.0,0,False
2021-11-04,1.0105479420927004,1.0090588537993637,-0.1473545421559197,1,True
2021-11-05,1.0090588537993637,1.0090588537993637,0.0,0,False
2021-11-06,1.0090588537993637,1.0090588537993637,0.0,0,False
2021-11-07,1.0090588537993637,1.0090588537993637,0.0,0,False
2021-11-08,1.0090588537993637,1.0090588537993637,0.0,0,False
2021-11-09,1.0090588537993637,1.0090588537993637,0.0,0,False
2021-11-10,1.0090588537993637,1.0090588537993637,0.0,0,False
2021-11-11,1.0090588537993637,1.029480314799995,2.023812676905745,6,True
2021-11-12,1.029480314799995,1.0243393117371233,-0.4993784717360339,1,True
2021-11-13,1.0243393117371233,1.0243393117371233,0.0,0,False
2021-11-14,1.0243393117371233,1.0243393117371233,0.0,0,False
2021-11-15,1.0243393117371233,1.0243393117371233,0.0,0,False
2021-11-16,1.0243393117371233,1.0580036228669598,3.2864413914513335,4,True
2021-11-17,1.0580036228669598,1.0580036228669598,0.0,0,False
2021-11-18,1.0580036228669598,1.052716636569781,-0.49971343981338734,1,True
2021-11-19,1.052716636569781,1.052716636569781,0.0,0,False
2021-11-20,1.052716636569781,1.052716636569781,0.0,0,False
2021-11-21,1.052716636569781,1.052716636569781,0.0,0,False
2021-11-22,1.052716636569781,1.052716636569781,0.0,0,False
2021-11-23,1.052716636569781,1.052716636569781,0.0,0,False
2021-11-24,1.052716636569781,1.052716636569781,0.0,0,False
2021-11-25,1.052716636569781,1.0474593696704029,-0.49940000155300757,1,True
2021-11-26,1.0474593696704029,1.051498390823306,0.3856017015890556,6,True
2021-11-27,1.051498390823306,1.0489272712251556,-0.2445195941895073,0,True
2021-11-28,1.0489272712251556,1.0436909642484282,-0.4992059144969474,1,True
2021-11-29,1.0436909642484282,1.0436909642484282,0.0,0,False
2021-11-30,1.0436909642484282,1.0436909642484282,0.0,0,False
2021-12-01,1.0436909642484282,1.0524210922938129,0.8364667650132773,1,True
2021-12-02,1.0524210922938129,1.054543551554418,0.20167395694996593,2,True
2021-12-03,1.054543551554418,1.043739068555807,-1.024564891861024,1,True
2021-12-04,1.043739068555807,1.029565693012617,-1.3579424178115085,13,True
2021-12-05,1.029565693012617,1.0302989163717644,0.07121676296362178,0,True
2021-12-06,1.0302989163717644,1.0302989163717644,0.0,0,False
2021-12-07,1.0302989163717644,1.0302989163717644,0.0,0,False
2021-12-08,1.0302989163717644,1.0302989163717644,0.0,0,False
2021-12-09,1.0302989163717644,1.0302989163717644,0.0,0,False
2021-12-10,1.0302989163717644,1.0302989163717644,0.0,0,False
2021-12-11,1.0302989163717644,1.0302989163717644,0.0,0,False
2021-12-12,1.0302989163717644,1.0302989163717644,0.0,0,False
2021-12-13,1.0302989163717644,1.0302989163717644,0.0,0,False
2021-12-14,1.0302989163717644,1.0302989163717644,0.0,0,False
2021-12-15,1.0302989163717644,1.0302989163717644,0.0,0,False
2021-12-16,1.0302989163717644,1.0302989163717644,0.0,0,False
2021-12-17,1.0302989163717644,1.0291832340278113,-0.1082872481203867,1,True
2021-12-18,1.0291832340278113,1.0291832340278113,0.0,0,False
2021-12-19,1.0291832340278113,1.0291832340278113,0.0,0,False
2021-12-20,1.0291832340278113,1.0291832340278113,0.0,0,False
2021-12-21,1.0291832340278113,1.0291832340278113,0.0,0,False
2021-12-22,1.0291832340278113,1.0291832340278113,0.0,0,False
2021-12-23,1.0291832340278113,1.0291832340278113,0.0,0,False
2021-12-24,1.0291832340278113,1.0291832340278113,0.0,0,False
2021-12-25,1.0291832340278113,1.0291832340278113,0.0,0,False
2021-12-26,1.0291832340278113,1.0291832340278113,0.0,0,False
2021-12-27,1.0291832340278113,1.0291832340278113,0.0,0,False
2021-12-28,1.0291832340278113,1.0291832340278113,0.0,0,False
2021-12-29,1.0291832340278113,1.0291832340278113,0.0,0,False
2021-12-30,1.0291832340278113,1.0291832340278113,0.0,0,False
2021-12-31,1.0291832340278113,1.0291832340278113,0.0,0,False
2022-01-01,1.0291832340278113,1.0291832340278113,0.0,0,False
2022-01-02,1.0291832340278113,1.0291832340278113,0.0,0,False
2022-01-03,1.0291832340278113,1.0291832340278113,0.0,0,False
2022-01-04,1.0291832340278113,1.0291832340278113,0.0,0,False
2022-01-05,1.0291832340278113,1.0291832340278113,0.0,0,False
2022-01-06,1.0291832340278113,1.024050963993446,-0.49867408102632904,1,True
2022-01-07,1.024050963993446,1.024050963993446,0.0,0,False
2022-01-08,1.024050963993446,1.024050963993446,0.0,0,False
2022-01-09,1.024050963993446,1.024050963993446,0.0,0,False
2022-01-10,1.024050963993446,1.024050963993446,0.0,0,False
2022-01-11,1.024050963993446,1.024050963993446,0.0,0,False
2022-01-12,1.024050963993446,1.024050963993446,0.0,0,False
2022-01-13,1.024050963993446,1.024050963993446,0.0,0,False
2022-01-14,1.024050963993446,1.024050963993446,0.0,0,False
2022-01-15,1.024050963993446,1.024050963993446,0.0,0,False
2022-01-16,1.024050963993446,1.024050963993446,0.0,0,False
2022-01-17,1.024050963993446,1.024050963993446,0.0,0,False
2022-01-18,1.024050963993446,1.024050963993446,0.0,0,False
2022-01-19,1.024050963993446,1.024050963993446,0.0,0,False
2022-01-20,1.024050963993446,1.024050963993446,0.0,0,False
2022-01-21,1.024050963993446,1.024050963993446,0.0,0,False
2022-01-22,1.024050963993446,1.0458352925434609,2.127269961747147,3,True
2022-01-23,1.0458352925434609,1.047725051525993,0.18069374747684552,0,True
2022-01-24,1.047725051525993,1.047725051525993,0.0,0,False
2022-01-25,1.047725051525993,1.047725051525993,0.0,0,False
2022-01-26,1.047725051525993,1.047725051525993,0.0,0,False
2022-01-27,1.047725051525993,1.047725051525993,0.0,0,False
2022-01-28,1.047725051525993,1.047725051525993,0.0,0,False
2022-01-29,1.047725051525993,1.047725051525993,0.0,0,False
2022-01-30,1.047725051525993,1.047725051525993,0.0,0,False
2022-01-31,1.047725051525993,1.0509068054596917,0.3036821472450768,1,True
2022-02-01,1.0509068054596917,1.0509068054596917,0.0,0,False
2022-02-02,1.0509068054596917,1.0509068054596917,0.0,0,False
2022-02-03,1.0509068054596917,1.0509068054596917,0.0,0,False
2022-02-04,1.0509068054596917,1.0509068054596917,0.0,0,False
2022-02-05,1.0509068054596917,1.0509068054596917,0.0,0,False
2022-02-06,1.0509068054596917,1.0509068054596917,0.0,0,False
2022-02-07,1.0509068054596917,1.0509068054596917,0.0,0,False
2022-02-08,1.0509068054596917,1.0509068054596917,0.0,0,False
2022-02-09,1.0509068054596917,1.0509068054596917,0.0,0,False
2022-02-10,1.0509068054596917,1.0520712198761129,0.11080092072595082,2,True
2022-02-11,1.0520712198761129,1.0404055592816397,-1.108828031228426,0,True
2022-02-12,1.0404055592816397,1.0404055592816397,0.0,0,False
2022-02-13,1.0404055592816397,1.0404055592816397,0.0,0,False
2022-02-14,1.0404055592816397,1.0404055592816397,0.0,0,False
2022-02-15,1.0404055592816397,1.0404055592816397,0.0,0,False
2022-02-16,1.0404055592816397,1.0404055592816397,0.0,0,False
2022-02-17,1.0404055592816397,1.0404055592816397,0.0,0,False
2022-02-18,1.0404055592816397,1.0404055592816397,0.0,0,False
2022-02-19,1.0404055592816397,1.0404055592816397,0.0,0,False
2022-02-20,1.0404055592816397,1.0404055592816397,0.0,0,False
2022-02-21,1.0404055592816397,1.0404055592816397,0.0,0,False
2022-02-22,1.0404055592816397,1.0404055592816397,0.0,0,False
2022-02-23,1.0404055592816397,1.0404055592816397,0.0,0,False
2022-02-24,1.0404055592816397,1.0404055592816397,0.0,0,False
2022-02-25,1.0404055592816397,1.0404055592816397,0.0,0,False
2022-02-26,1.0404055592816397,1.0404055592816397,0.0,0,False
2022-02-27,1.0404055592816397,1.0404055592816397,0.0,0,False
2022-02-28,1.0404055592816397,1.0404055592816397,0.0,0,False
2022-03-01,1.0404055592816397,1.0404055592816397,0.0,0,False
2022-03-02,1.0404055592816397,1.0404055592816397,0.0,0,False
2022-03-03,1.0404055592816397,1.0404055592816397,0.0,0,False
2022-03-04,1.0404055592816397,1.0404055592816397,0.0,0,False
2022-03-05,1.0404055592816397,1.0404055592816397,0.0,0,False
2022-03-06,1.0404055592816397,1.0404055592816397,0.0,0,False
2022-03-07,1.0404055592816397,1.0404055592816397,0.0,0,False
2022-03-08,1.0404055592816397,1.0404055592816397,0.0,0,False
2022-03-09,1.0404055592816397,1.0404055592816397,0.0,0,False
2022-03-10,1.0404055592816397,1.0404055592816397,0.0,0,False
2022-03-11,1.0404055592816397,1.0404055592816397,0.0,0,False
2022-03-12,1.0404055592816397,1.0404055592816397,0.0,0,False
2022-03-13,1.0404055592816397,1.0404055592816397,0.0,0,False
2022-03-14,1.0404055592816397,1.0404055592816397,0.0,0,False
2022-03-15,1.0404055592816397,1.0404055592816397,0.0,0,False
2022-03-16,1.0404055592816397,1.0404055592816397,0.0,0,False
2022-03-17,1.0404055592816397,1.0404055592816397,0.0,0,False
2022-03-18,1.0404055592816397,1.0404055592816397,0.0,0,False
2022-03-19,1.0404055592816397,1.0404055592816397,0.0,0,False
2022-03-20,1.0404055592816397,1.0404055592816397,0.0,0,False
2022-03-21,1.0404055592816397,1.0404055592816397,0.0,0,False
2022-03-22,1.0404055592816397,1.0404055592816397,0.0,0,False
2022-03-23,1.0404055592816397,1.0404055592816397,0.0,0,False
2022-03-24,1.0404055592816397,1.0404055592816397,0.0,0,False
2022-03-25,1.0404055592816397,1.0404055592816397,0.0,0,False
2022-03-26,1.0404055592816397,1.04296181430445,0.2456979396164627,1,True
2022-03-27,1.04296181430445,1.04296181430445,0.0,0,False
2022-03-28,1.04296181430445,1.0523367066506282,0.8988720600888289,1,True
2022-03-29,1.0523367066506282,1.0523367066506282,0.0,0,False
2022-03-30,1.0523367066506282,1.0470783427829249,-0.4996845434043218,1,True
2022-03-31,1.0470783427829249,1.0470783427829249,0.0,0,False
2022-04-01,1.0470783427829249,1.0447239533222403,-0.22485322869223445,1,True
2022-04-02,1.0447239533222403,1.0447239533222403,0.0,0,False
2022-04-03,1.0447239533222403,1.0437221337280058,-0.09589323486349777,1,True
2022-04-04,1.0437221337280058,1.0385121779202704,-0.49917076963064133,1,True
2022-04-05,1.0385121779202704,1.0385121779202704,0.0,0,False
2022-04-06,1.0385121779202704,1.040365185596592,0.1784290753366502,1,True
2022-04-07,1.040365185596592,1.0351733136854666,-0.4990432189585614,1,True
2022-04-08,1.0351733136854666,1.0351733136854666,0.0,0,False
2022-04-09,1.0351733136854666,1.0351733136854666,0.0,0,False
2022-04-10,1.0351733136854666,1.0351733136854666,0.0,0,False
2022-04-11,1.0351733136854666,1.0351733136854666,0.0,0,False
2022-04-12,1.0351733136854666,1.0351733136854666,0.0,0,False
2022-04-13,1.0351733136854666,1.0351733136854666,0.0,0,False
2022-04-14,1.0351733136854666,1.0351733136854666,0.0,0,False
2022-04-15,1.0351733136854666,1.0351733136854666,0.0,0,False
2022-04-16,1.0351733136854666,1.0351733136854666,0.0,0,False
2022-04-17,1.0351733136854666,1.0351733136854666,0.0,0,False
2022-04-18,1.0351733136854666,1.039233413833655,0.3922145301189728,1,True
2022-04-19,1.039233413833655,1.037120465435178,-0.20331798134574086,0,True
2022-04-20,1.037120465435178,1.037120465435178,0.0,0,False
2022-04-21,1.037120465435178,1.037120465435178,0.0,0,False
2022-04-22,1.037120465435178,1.037120465435178,0.0,0,False
2022-04-23,1.037120465435178,1.037120465435178,0.0,0,False
2022-04-24,1.037120465435178,1.037120465435178,0.0,0,False
2022-04-25,1.037120465435178,1.037120465435178,0.0,0,False
2022-04-26,1.037120465435178,1.037120465435178,0.0,0,False
2022-04-27,1.037120465435178,1.0319429537623703,-0.49921989251606735,1,True
2022-04-28,1.0319429537623703,1.0319429537623703,0.0,0,False
2022-04-29,1.0319429537623703,1.0267891476958637,-0.49942741967627935,1,True
2022-04-30,1.0267891476958637,1.0267891476958637,0.0,0,False
2022-05-01,1.0267891476958637,1.037414975193139,1.0348597393262216,4,True
2022-05-02,1.037414975193139,1.037414975193139,0.0,0,False
2022-05-03,1.037414975193139,1.037414975193139,0.0,0,False
2022-05-04,1.037414975193139,1.0322345400113975,-0.49935997702144075,1,True
2022-05-05,1.0322345400113975,1.0322345400113975,0.0,0,False
2022-05-06,1.0322345400113975,1.0219553089389959,-0.9958232043163484,2,True
2022-05-07,1.0219553089389959,1.0219553089389959,0.0,0,False
2022-05-08,1.0219553089389959,1.0219553089389959,0.0,0,False
2022-05-09,1.0219553089389959,1.0219553089389959,0.0,0,False
2022-05-10,1.0219553089389959,1.0003661725608164,-2.1125323377001237,7,True
2022-05-11,1.0003661725608164,0.9966975690475638,-0.3667260663024474,9,True
2022-05-12,0.9966975690475638,1.0260416985808423,2.944135758384503,8,True
2022-05-13,1.0260416985808423,1.0267721202918334,0.07118830667423026,0,True
2022-05-14,1.0267721202918334,1.0232253542744485,-0.34542874190787165,2,True
2022-05-15,1.0232253542744485,1.0181187977552333,-0.4990646975158497,1,True
2022-05-16,1.0181187977552333,1.0130384287454695,-0.49899569882857486,1,True
2022-05-17,1.0130384287454695,1.0130384287454695,0.0,0,False
2022-05-18,1.0130384287454695,1.0130384287454695,0.0,0,False
2022-05-19,1.0130384287454695,1.0079817367027015,-0.4991609300577182,1,True
2022-05-20,1.0079817367027015,1.002953265595399,-0.49886529926143064,1,True
2022-05-21,1.002953265595399,1.002953265595399,0.0,0,False
2022-05-22,1.002953265595399,1.002953265595399,0.0,0,False
2022-05-23,1.002953265595399,0.9979473926180138,-0.4991132836497103,1,True
2022-05-24,0.9979473926180138,0.9966359595383655,-0.13141304735592163,2,True
2022-05-25,0.9966359595383655,1.0106195887241425,1.403082946380363,1,True
2022-05-26,1.0106195887241425,1.0055730164301517,-0.4993542921884031,1,True
2022-05-27,1.0055730164301517,1.000551027917877,-0.49941559988383455,1,True
2022-05-28,1.000551027917877,1.000551027917877,0.0,0,False
2022-05-29,1.000551027917877,1.000551027917877,0.0,0,False
2022-05-30,1.000551027917877,1.000551027917877,0.0,0,False
2022-05-31,1.000551027917877,0.9855948443788343,-1.4947946803039458,3,True
2022-06-01,0.9855948443788343,0.9855948443788343,0.0,0,False
2022-06-02,0.9855948443788343,0.9806740995458231,-0.4992664948559544,1,True
2022-06-03,0.9806740995458231,0.9806740995458231,0.0,0,False
2022-06-04,0.9806740995458231,0.9806740995458231,0.0,0,False
2022-06-05,0.9806740995458231,0.9806740995458231,0.0,0,False
2022-06-06,0.9806740995458231,0.9806740995458231,0.0,0,False
2022-06-07,0.9806740995458231,0.9819119110233007,0.12622047202539566,1,True
2022-06-08,0.9819119110233007,0.9820614171796409,0.015226025335035587,1,True
2022-06-09,0.9820614171796409,0.9820614171796409,0.0,0,False
2022-06-10,0.9820614171796409,0.9890803930285387,0.7147186241218462,2,True
2022-06-11,0.9890803930285387,0.984137111120804,-0.4997856536816392,1,True
2022-06-12,0.984137111120804,0.9945759058988176,1.0607053285619061,4,True
2022-06-13,0.9945759058988176,0.9846152834166765,-1.0014944483437427,3,True
2022-06-14,0.9846152834166765,0.9871897990851718,0.261474274455864,1,True
2022-06-15,0.9871897990851718,0.9871897990851718,0.0,0,False
2022-06-16,0.9871897990851718,1.0136196106567406,2.6772776213916716,4,True
2022-06-17,1.0136196106567406,1.013253744243008,-0.03609504096862004,1,True
2022-06-18,1.013253744243008,0.9931023745062689,-1.988778215845033,4,True
2022-06-19,0.9931023745062689,0.9931023745062689,0.0,0,False
2022-06-20,0.9931023745062689,0.9931023745062689,0.0,0,False
2022-06-21,0.9931023745062689,0.9931023745062689,0.0,0,False
2022-06-22,0.9931023745062689,0.9931023745062689,0.0,0,False
2022-06-23,0.9931023745062689,0.9931023745062689,0.0,0,False
2022-06-24,0.9931023745062689,0.9931023745062689,0.0,0,False
2022-06-25,0.9931023745062689,0.9931023745062689,0.0,0,False
2022-06-26,0.9931023745062689,0.9931023745062689,0.0,0,False
2022-06-27,0.9931023745062689,0.9931023745062689,0.0,0,False
2022-06-28,0.9931023745062689,0.9952392918995638,0.21517594239539584,1,True
2022-06-29,0.9952392918995638,0.9881448437762091,-0.7128384280140176,0,True
2022-06-30,0.9881448437762091,0.9881448437762091,0.0,0,False
2022-07-01,0.9881448437762091,0.9881448437762091,0.0,0,False
2022-07-02,0.9881448437762091,0.9881448437762091,0.0,0,False
2022-07-03,0.9881448437762091,0.9862505166459938,-0.1917054106132965,1,True
2022-07-04,0.9862505166459938,0.9862505166459938,0.0,0,False
2022-07-05,0.9862505166459938,0.9862505166459938,0.0,0,False
2022-07-06,0.9862505166459938,0.9862505166459938,0.0,0,False
2022-07-07,0.9862505166459938,0.9862505166459938,0.0,0,False
2022-07-08,0.9862505166459938,0.9862505166459938,0.0,0,False
2022-07-09,0.9862505166459938,0.9862505166459938,0.0,0,False
2022-07-10,0.9862505166459938,0.9862505166459938,0.0,0,False
2022-07-11,0.9862505166459938,0.9862505166459938,0.0,0,False
2022-07-12,0.9862505166459938,0.9862505166459938,0.0,0,False
2022-07-13,0.9862505166459938,1.0016740116440517,1.5638516520639634,4,True
2022-07-14,1.0016740116440517,1.017436917346246,1.5736562513309682,0,True
2022-07-15,1.017436917346246,1.017436917346246,0.0,0,False
2022-07-16,1.017436917346246,1.017436917346246,0.0,0,False
2022-07-17,1.017436917346246,1.017436917346246,0.0,0,False
2022-07-18,1.017436917346246,1.017436917346246,0.0,0,False
2022-07-19,1.017436917346246,1.0145823328416963,-0.28056624011593145,2,True
2022-07-20,1.0145823328416963,1.0145823328416963,0.0,0,False
2022-07-21,1.0145823328416963,1.004612959071864,-0.9826086505872356,3,True
2022-07-22,1.004612959071864,1.004612959071864,0.0,0,False
2022-07-23,1.004612959071864,1.004612959071864,0.0,0,False
2022-07-24,1.004612959071864,1.0131115039445702,0.8459521446505969,1,True
2022-07-25,1.0131115039445702,1.0144332823101883,0.13046721515566073,1,True
2022-07-26,1.0144332823101883,1.0144332823101883,0.0,0,False
2022-07-27,1.0144332823101883,1.0144332823101883,0.0,0,False
2022-07-28,1.0144332823101883,1.0144332823101883,0.0,0,False
2022-07-29,1.0144332823101883,1.009366746376284,-0.49944496323760523,1,True
2022-07-30,1.009366746376284,1.009366746376284,0.0,0,False
2022-07-31,1.009366746376284,1.0043217042414572,-0.49982250286519925,1,True
2022-08-01,1.0043217042414572,1.0043217042414572,0.0,0,False
2022-08-02,1.0043217042414572,1.0043217042414572,0.0,0,False
2022-08-03,1.0043217042414572,1.002013871837897,-0.22979015526735092,1,True
2022-08-04,1.002013871837897,1.002013871837897,0.0,0,False
2022-08-05,1.002013871837897,1.002013871837897,0.0,0,False
2022-08-06,1.002013871837897,1.002013871837897,0.0,0,False
2022-08-07,1.002013871837897,1.002013871837897,0.0,0,False
2022-08-08,1.002013871837897,1.002013871837897,0.0,0,False
2022-08-09,1.002013871837897,1.0046006963890903,0.2581625488326411,1,True
2022-08-10,1.0046006963890903,1.0046006963890903,0.0,0,False
2022-08-11,1.0046006963890903,1.0046006963890903,0.0,0,False
2022-08-12,1.0046006963890903,1.0048841057137141,0.02821114156523752,1,True
2022-08-13,1.0048841057137141,1.0048841057137141,0.0,0,False
2022-08-14,1.0048841057137141,1.0048841057137141,0.0,0,False
2022-08-15,1.0048841057137141,1.0048841057137141,0.0,0,False
2022-08-16,1.0048841057137141,1.004447470915632,-0.04345125926458193,1,True
2022-08-17,1.004447470915632,1.004447470915632,0.0,0,False
2022-08-18,1.004447470915632,1.004447470915632,0.0,0,False
2022-08-19,1.004447470915632,0.9862154393412441,-1.8151304176979854,8,True
2022-08-20,0.9862154393412441,0.9926143873056603,0.6488387535983575,0,True
2022-08-21,0.9926143873056603,0.9926143873056603,0.0,0,False
2022-08-22,0.9926143873056603,0.9926143873056603,0.0,0,False
2022-08-23,0.9926143873056603,0.9926143873056603,0.0,0,False
2022-08-24,0.9926143873056603,0.9926143873056603,0.0,0,False
2022-08-25,0.9926143873056603,0.9926143873056603,0.0,0,False
2022-08-26,0.9926143873056603,0.9926143873056603,0.0,0,False
2022-08-27,0.9926143873056603,0.9876586386102116,-0.49926222698630784,1,True
2022-08-28,0.9876586386102116,0.9885754041015373,0.09282210021630544,1,True
2022-08-29,0.9885754041015373,0.9855170828121503,-0.3093665163727777,0,True
2022-08-30,0.9855170828121503,0.9855170828121503,0.0,0,False
2022-08-31,0.9855170828121503,0.9855170828121503,0.0,0,False
2022-09-01,0.9855170828121503,0.9855170828121503,0.0,0,False
2022-09-02,0.9855170828121503,0.9855170828121503,0.0,0,False
2022-09-03,0.9855170828121503,0.9855170828121503,0.0,0,False
2022-09-04,0.9855170828121503,0.9855170828121503,0.0,0,False
2022-09-05,0.9855170828121503,0.9855170828121503,0.0,0,False
2022-09-06,0.9855170828121503,0.9855170828121503,0.0,0,False
2022-09-07,0.9855170828121503,0.974760240518483,-1.0914922208119404,4,True
2022-09-08,0.974760240518483,0.974760240518483,0.0,0,False
2022-09-09,0.974760240518483,0.974760240518483,0.0,0,False
2022-09-10,0.974760240518483,0.974760240518483,0.0,0,False
2022-09-11,0.974760240518483,0.974760240518483,0.0,0,False
2022-09-12,0.974760240518483,0.974760240518483,0.0,0,False
2022-09-13,0.974760240518483,0.9648158316676919,-1.0201902413973674,4,True
2022-09-14,0.9648158316676919,0.9535238560405076,-1.170376278721097,1,True
2022-09-15,0.9535238560405076,0.9614670061315644,0.8330310815757302,1,True
2022-09-16,0.9614670061315644,0.9614670061315644,0.0,0,False
2022-09-17,0.9614670061315644,0.9614670061315644,0.0,0,False
2022-09-18,0.9614670061315644,0.9614670061315644,0.0,0,False
2022-09-19,0.9614670061315644,0.9666526249135798,0.539344433968636,5,True
2022-09-20,0.9666526249135798,0.9666526249135798,0.0,0,False
2022-09-21,0.9666526249135798,0.9666526249135798,0.0,0,False
2022-09-22,0.9666526249135798,0.9666526249135798,0.0,0,False
2022-09-23,0.9666526249135798,0.9666526249135798,0.0,0,False
2022-09-24,0.9666526249135798,0.9666526249135798,0.0,0,False
2022-09-25,0.9666526249135798,0.9666526249135798,0.0,0,False
2022-09-26,0.9666526249135798,0.9666526249135798,0.0,0,False
2022-09-27,0.9666526249135798,0.9666526249135798,0.0,0,False
2022-09-28,0.9666526249135798,0.9666526249135798,0.0,0,False
2022-09-29,0.9666526249135798,0.9666526249135798,0.0,0,False
2022-09-30,0.9666526249135798,0.9666526249135798,0.0,0,False
2022-10-01,0.9666526249135798,0.9666526249135798,0.0,0,False
2022-10-02,0.9666526249135798,0.9666526249135798,0.0,0,False
2022-10-03,0.9666526249135798,0.9666526249135798,0.0,0,False
2022-10-04,0.9666526249135798,0.9666526249135798,0.0,0,False
2022-10-05,0.9666526249135798,0.9666526249135798,0.0,0,False
2022-10-06,0.9666526249135798,0.9666526249135798,0.0,0,False
2022-10-07,0.9666526249135798,0.9666526249135798,0.0,0,False
2022-10-08,0.9666526249135798,0.9666526249135798,0.0,0,False
2022-10-09,0.9666526249135798,0.9666526249135798,0.0,0,False
2022-10-10,0.9666526249135798,0.9618259384484193,-0.49931964604058576,1,True
2022-10-11,0.9618259384484193,0.9917727740965068,3.1135400336984587,4,True
2022-10-12,0.9917727740965068,0.9917727740965068,0.0,0,False
2022-10-13,0.9917727740965068,0.9917727740965068,0.0,0,False
2022-10-14,0.9917727740965068,0.9917727740965068,0.0,0,False
2022-10-15,0.9917727740965068,0.9917727740965068,0.0,0,False
2022-10-16,0.9917727740965068,0.9917727740965068,0.0,0,False
2022-10-17,0.9917727740965068,0.9917727740965068,0.0,0,False
2022-10-18,0.9917727740965068,0.9917727740965068,0.0,0,False
2022-10-19,0.9917727740965068,0.9917727740965068,0.0,0,False
2022-10-20,0.9917727740965068,0.9972662424340298,0.5539039264843337,1,True
2022-10-21,0.9972662424340298,0.9972662424340298,0.0,0,False
2022-10-22,0.9972662424340298,0.9972662424340298,0.0,0,False
2022-10-23,0.9972662424340298,0.9972662424340298,0.0,0,False
2022-10-24,0.9972662424340298,0.9972662424340298,0.0,0,False
2022-10-25,0.9972662424340298,0.9972662424340298,0.0,0,False
2022-10-26,0.9972662424340298,0.9972662424340298,0.0,0,False
2022-10-27,0.9972662424340298,0.9972662424340298,0.0,0,False
2022-10-28,0.9972662424340298,0.9972662424340298,0.0,0,False
2022-10-29,0.9972662424340298,0.9972662424340298,0.0,0,False
2022-10-30,0.9972662424340298,0.9972662424340298,0.0,0,False
2022-10-31,0.9972662424340298,0.9972662424340298,0.0,0,False
2022-11-01,0.9972662424340298,0.9972662424340298,0.0,0,False
2022-11-02,0.9972662424340298,1.0055285245817185,0.8284931140878582,1,True
2022-11-03,1.0055285245817185,1.0043514109639298,-0.11706416963938038,3,True
2022-11-04,1.0043514109639298,0.9930247046754072,-1.127763267405757,5,True
2022-11-05,0.9930247046754072,0.9939656936778201,0.09475987837790356,1,True
2022-11-06,0.9939656936778201,0.9939656936778201,0.0,0,False
2022-11-07,0.9939656936778201,0.9901213421027537,-0.3867690403721813,2,True
2022-11-08,0.9901213421027537,0.9834705172133608,-0.6717181628736912,5,True
2022-11-09,0.9834705172133608,0.9516756346154669,-3.2329268688179758,14,True
2022-11-10,0.9516756346154669,0.9785992328961824,2.82907298468289,5,True
2022-11-11,0.9785992328961824,0.9983845531846491,2.0218001019591814,5,True
2022-11-12,0.9983845531846491,0.9960278467634005,-0.23605197153052648,2,True
2022-11-13,0.9960278467634005,0.9910568594894583,-0.4990811542162632,1,True
2022-11-14,0.9910568594894583,0.9908525982223749,-0.02061044884837937,2,True
2022-11-15,0.9908525982223749,0.9908525982223749,0.0,0,False
2022-11-16,0.9908525982223749,0.9908525982223749,0.0,0,False
2022-11-17,0.9908525982223749,0.9908525982223749,0.0,0,False
2022-11-18,0.9908525982223749,0.9908525982223749,0.0,0,False
2022-11-19,0.9908525982223749,0.9907695436447499,-0.008382132496198569,2,True
2022-11-20,0.9907695436447499,0.9867704929412804,-0.4036307665209571,1,True
2022-11-21,0.9867704929412804,0.9806660172696922,-0.6186317603997793,1,True
2022-11-22,0.9806660172696922,0.9806660172696922,0.0,0,False
2022-11-23,0.9806660172696922,0.9806660172696922,0.0,0,False
2022-11-24,0.9806660172696922,0.9806660172696922,0.0,0,False
2022-11-25,0.9806660172696922,0.9801990719140011,-0.04761512558486558,1,True
2022-11-26,0.9801990719140011,0.9801990719140011,0.0,0,False
2022-11-27,0.9801990719140011,0.9801990719140011,0.0,0,False
2022-11-28,0.9801990719140011,0.9754105261076206,-0.4885278861803122,2,True
2022-11-29,0.9754105261076206,0.9754105261076206,0.0,0,False
2022-11-30,0.9754105261076206,0.9754105261076206,0.0,0,False
2022-12-01,0.9754105261076206,0.9751024330684827,-0.0315859867093482,1,True
2022-12-02,0.9751024330684827,0.9737588522072914,-0.1377886892316771,1,True
2022-12-03,0.9737588522072914,0.9737588522072914,0.0,0,False
2022-12-04,0.9737588522072914,0.9727291655808781,-0.10574349327652222,3,True
2022-12-05,0.9727291655808781,0.9747590007518434,0.20867423767982896,1,True
2022-12-06,0.9747590007518434,0.9732555861041772,-0.15423449760469943,0,True
2022-12-07,0.9732555861041772,0.9732555861041772,0.0,0,False
2022-12-08,0.9732555861041772,0.9684017779194505,-0.4987187593914477,1,True
2022-12-09,0.9684017779194505,0.9684017779194505,0.0,0,False
2022-12-10,0.9684017779194505,0.9684017779194505,0.0,0,False
2022-12-11,0.9684017779194505,0.9684017779194505,0.0,0,False
2022-12-12,0.9684017779194505,0.9684017779194505,0.0,0,False
2022-12-13,0.9684017779194505,0.9684017779194505,0.0,0,False
2022-12-14,0.9684017779194505,0.9684017779194505,0.0,0,False
2022-12-15,0.9684017779194505,0.9684017779194505,0.0,0,False
2022-12-16,0.9684017779194505,0.9684017779194505,0.0,0,False
2022-12-17,0.9684017779194505,0.982231508995436,1.4280984805395303,4,True
2022-12-18,0.982231508995436,0.982231508995436,0.0,0,False
2022-12-19,0.982231508995436,0.982231508995436,0.0,0,False
2022-12-20,0.982231508995436,0.982231508995436,0.0,0,False
2022-12-21,0.982231508995436,0.982231508995436,0.0,0,False
2022-12-22,0.982231508995436,0.982231508995436,0.0,0,False
2022-12-23,0.982231508995436,0.982231508995436,0.0,0,False
2022-12-24,0.982231508995436,0.982231508995436,0.0,0,False
2022-12-25,0.982231508995436,0.982231508995436,0.0,0,False
2022-12-26,0.982231508995436,0.982231508995436,0.0,0,False
2022-12-27,0.982231508995436,0.982231508995436,0.0,0,False
2022-12-28,0.982231508995436,0.985456923922405,0.32837624301707,1,True
2022-12-29,0.985456923922405,0.9841207349967191,-0.13559079988676448,0,True
2022-12-30,0.9841207349967191,0.9841207349967191,0.0,0,False
2022-12-31,0.9841207349967191,0.9841207349967191,0.0,0,False
2023-01-01,0.9841207349967191,0.9841207349967191,0.0,0,False
2023-01-02,0.9841207349967191,0.9844425907591525,0.032704906114444654,1,True
2023-01-03,0.9844425907591525,0.984566908421712,0.012628228779054673,0,True
2023-01-04,0.984566908421712,0.984566908421712,0.0,0,False
2023-01-05,0.984566908421712,0.984566908421712,0.0,0,False
2023-01-06,0.984566908421712,0.984566908421712,0.0,0,False
2023-01-07,0.984566908421712,0.984566908421712,0.0,0,False
2023-01-08,0.984566908421712,0.984566908421712,0.0,0,False
2023-01-09,0.984566908421712,0.984566908421712,0.0,0,False
2023-01-10,0.984566908421712,0.9813265542782735,-0.32911467120430027,2,True
2023-01-11,0.9813265542782735,0.9822821795092717,0.09738096119298323,0,True
2023-01-12,0.9822821795092717,0.9822821795092717,0.0,0,False
2023-01-13,0.9822821795092717,0.9822821795092717,0.0,0,False
2023-01-14,0.9822821795092717,0.9767160043724316,-0.5666574486387299,3,True
2023-01-15,0.9767160043724316,0.9784658708484196,0.1791581655419261,1,True
2023-01-16,0.9784658708484196,0.9784658708484196,0.0,0,False
2023-01-17,0.9784658708484196,0.9784658708484196,0.0,0,False
2023-01-18,0.9784658708484196,0.9784658708484196,0.0,0,False
2023-01-19,0.9784658708484196,0.973581732011714,-0.4991629225115979,1,True
2023-01-20,0.973581732011714,0.973581732011714,0.0,0,False
2023-01-21,0.973581732011714,0.9751749322825543,0.16364319691457574,1,True
2023-01-22,0.9751749322825543,0.9742266259619932,-0.09724473929425548,0,True
2023-01-23,0.9742266259619932,0.9742266259619932,0.0,0,False
2023-01-24,0.9742266259619932,0.9826079908300571,0.8603095670668859,1,True
2023-01-25,0.9826079908300571,0.9961916463197804,1.3824084086929256,5,True
2023-01-26,0.9961916463197804,1.0050528827976697,0.8895112211214862,1,True
2023-01-27,1.0050528827976697,1.0050528827976697,0.0,0,False
2023-01-28,1.0050528827976697,1.0050528827976697,0.0,0,False
2023-01-29,1.0050528827976697,1.0050528827976697,0.0,0,False
2023-01-30,1.0050528827976697,1.0048085817703944,-0.024307280886071148,2,True
2023-01-31,1.0048085817703944,1.0058467641055993,0.10332140410023172,2,True
2023-02-01,1.0058467641055993,1.0058467641055993,0.0,0,False
2023-02-02,1.0058467641055993,1.0058467641055993,0.0,0,False
2023-02-03,1.0058467641055993,1.0058467641055993,0.0,0,False
2023-02-04,1.0058467641055993,1.0058467641055993,0.0,0,False
2023-02-05,1.0058467641055993,1.009045520652912,0.31801628851062524,5,True
2023-02-06,1.009045520652912,1.0233367314702217,1.4163098219852843,1,True
2023-02-07,1.0233367314702217,1.0233367314702217,0.0,0,False
2023-02-08,1.0233367314702217,1.0233367314702217,0.0,0,False
2023-02-09,1.0233367314702217,1.0233367314702217,0.0,0,False
2023-02-10,1.0233367314702217,1.0258641966859228,0.24698275142238657,1,True
2023-02-11,1.0258641966859228,1.0227970230689227,-0.2989843711193596,0,True
2023-02-12,1.0227970230689227,1.0176892340312271,-0.4993942026121245,1,True
2023-02-13,1.0176892340312271,1.0176892340312271,0.0,0,False
2023-02-14,1.0176892340312271,1.0176892340312271,0.0,0,False
2023-02-15,1.0176892340312271,1.0176892340312271,0.0,0,False
2023-02-16,1.0176892340312271,1.0176892340312271,0.0,0,False
2023-02-17,1.0176892340312271,1.0176892340312271,0.0,0,False
2023-02-18,1.0176892340312271,1.0176892340312271,0.0,0,False
2023-02-19,1.0176892340312271,1.0176892340312271,0.0,0,False
2023-02-20,1.0176892340312271,1.0176892340312271,0.0,0,False
2023-02-21,1.0176892340312271,1.0134178393238324,-0.4197150332891919,3,True
2023-02-22,1.0134178393238324,1.0103083094022265,-0.30683591712582503,2,True
2023-02-23,1.0103083094022265,1.0186252256173056,0.8232057618134503,1,True
2023-02-24,1.0186252256173056,1.0186252256173056,0.0,0,False
2023-02-25,1.0186252256173056,1.0186252256173056,0.0,0,False
2023-02-26,1.0186252256173056,1.0203196281002505,0.1663420893506684,1,True
2023-02-27,1.0203196281002505,1.0152257547445145,-0.4992429054040959,1,True
2023-02-28,1.0152257547445145,1.0152257547445145,0.0,0,False
2023-03-01,1.0152257547445145,1.0152257547445145,0.0,0,False
2023-03-02,1.0152257547445145,1.0152257547445145,0.0,0,False
2023-03-03,1.0152257547445145,1.0132031922067237,-0.19922293424281534,6,True
2023-03-04,1.0132031922067237,1.0132031922067237,0.0,0,False
2023-03-05,1.0132031922067237,1.0132031922067237,0.0,0,False
2023-03-06,1.0132031922067237,1.0132031922067237,0.0,0,False
2023-03-07,1.0132031922067237,1.0132031922067237,0.0,0,False
2023-03-08,1.0132031922067237,1.0132031922067237,0.0,0,False
2023-03-09,1.0132031922067237,1.0132031922067237,0.0,0,False
2023-03-10,1.0132031922067237,1.0081382306845246,-0.49989593017051304,1,True
2023-03-11,1.0081382306845246,1.0243541545634454,1.6085020273370887,3,True
2023-03-12,1.0243541545634454,1.0347967600653603,1.0194331184574912,0,True
2023-03-13,1.0347967600653603,1.0347967600653603,0.0,0,False
2023-03-14,1.0347967600653603,1.0347967600653603,0.0,0,False
2023-03-15,1.0347967600653603,1.0347967600653603,0.0,0,False
2023-03-16,1.0347967600653603,1.041789372675701,0.6757474395164387,5,True
2023-03-17,1.041789372675701,1.0376480860493253,-0.39751668955302355,2,True
2023-03-18,1.0376480860493253,1.035321075649453,-0.22425814986388737,0,True
2023-03-19,1.035321075649453,1.035321075649453,0.0,0,False
2023-03-20,1.035321075649453,1.035321075649453,0.0,0,False
2023-03-21,1.035321075649453,1.025011859637589,-0.9957506182704856,2,True
2023-03-22,1.025011859637589,1.025011859637589,0.0,0,False
2023-03-23,1.025011859637589,1.0352257415837498,0.9964647579562724,3,True
2023-03-24,1.0352257415837498,1.0363316613869071,0.10682885468684677,0,True
2023-03-25,1.0363316613869071,1.031159574205519,-0.4990764418474236,1,True
2023-03-26,1.031159574205519,1.031159574205519,0.0,0,False
2023-03-27,1.031159574205519,1.031159574205519,0.0,0,False
2023-03-28,1.031159574205519,1.031159574205519,0.0,0,False
2023-03-29,1.031159574205519,1.031159574205519,0.0,0,False
2023-03-30,1.031159574205519,1.031159574205519,0.0,0,False
2023-03-31,1.031159574205519,1.031159574205519,0.0,0,False
2023-04-01,1.031159574205519,1.031159574205519,0.0,0,False
2023-04-02,1.031159574205519,1.031159574205519,0.0,0,False
2023-04-03,1.031159574205519,1.031159574205519,0.0,0,False
2023-04-04,1.031159574205519,1.0260111976939088,-0.49928028991796936,1,True
2023-04-05,1.0260111976939088,1.0260111976939088,0.0,0,False
2023-04-06,1.0260111976939088,1.020891190926477,-0.4990205544481041,1,True
2023-04-07,1.020891190926477,1.015790624088062,-0.4996190469413464,1,True
2023-04-08,1.015790624088062,1.015790624088062,0.0,0,False
2023-04-09,1.015790624088062,1.015790624088062,0.0,0,False
2023-04-10,1.015790624088062,1.015790624088062,0.0,0,False
2023-04-11,1.015790624088062,1.015790624088062,0.0,0,False
2023-04-12,1.015790624088062,1.015790624088062,0.0,0,False
2023-04-13,1.015790624088062,1.015790624088062,0.0,0,False
2023-04-14,1.015790624088062,1.015790624088062,0.0,0,False
2023-04-15,1.015790624088062,1.015790624088062,0.0,0,False
2023-04-16,1.015790624088062,1.015790624088062,0.0,0,False
2023-04-17,1.015790624088062,1.0107194404711017,-0.4992351274666573,1,True
2023-04-18,1.0107194404711017,1.0107194404711017,0.0,0,False
2023-04-19,1.0107194404711017,0.995646680578317,-1.491290192831285,3,True
2023-04-20,0.995646680578317,0.995646680578317,0.0,0,False
2023-04-21,0.995646680578317,0.995646680578317,0.0,0,False
2023-04-22,0.995646680578317,0.995646680578317,0.0,0,False
2023-04-23,0.995646680578317,0.995646680578317,0.0,0,False
2023-04-24,0.995646680578317,0.995646680578317,0.0,0,False
2023-04-25,0.995646680578317,0.995646680578317,0.0,0,False
2023-04-26,0.995646680578317,0.995646680578317,0.0,0,False
2023-04-27,0.995646680578317,0.995646680578317,0.0,0,False
2023-04-28,0.995646680578317,0.995646680578317,0.0,0,False
2023-04-29,0.995646680578317,0.995646680578317,0.0,0,False
2023-04-30,0.995646680578317,0.995646680578317,0.0,0,False
2023-05-01,0.995646680578317,0.995646680578317,0.0,0,False
2023-05-02,0.995646680578317,0.995646680578317,0.0,0,False
2023-05-03,0.995646680578317,0.995646680578317,0.0,0,False
2023-05-04,0.995646680578317,0.995646680578317,0.0,0,False
2023-05-05,0.995646680578317,0.995646680578317,0.0,0,False
2023-05-06,0.995646680578317,0.995646680578317,0.0,0,False
2023-05-07,0.995646680578317,0.995646680578317,0.0,0,False
2023-05-08,0.995646680578317,0.9903342371029402,-0.5335671357123428,5,True
2023-05-09,0.9903342371029402,0.9893267492700835,-0.10173210165933533,2,True
2023-05-10,0.9893267492700835,0.9912458757720676,0.19398308025129207,1,True
2023-05-11,0.9912458757720676,0.9933231333020347,0.2095602696303045,0,True
2023-05-12,0.9933231333020347,0.9933231333020347,0.0,0,False
2023-05-13,0.9933231333020347,0.9933231333020347,0.0,0,False
2023-05-14,0.9933231333020347,0.9933231333020347,0.0,0,False
2023-05-15,0.9933231333020347,0.9933231333020347,0.0,0,False
2023-05-16,0.9933231333020347,0.9933231333020347,0.0,0,False
2023-05-17,0.9933231333020347,0.9933231333020347,0.0,0,False
2023-05-18,0.9933231333020347,0.9933231333020347,0.0,0,False
2023-05-19,0.9933231333020347,0.9933231333020347,0.0,0,False
2023-05-20,0.9933231333020347,0.9933231333020347,0.0,0,False
2023-05-21,0.9933231333020347,0.9933231333020347,0.0,0,False
2023-05-22,0.9933231333020347,0.9933231333020347,0.0,0,False
2023-05-23,0.9933231333020347,0.9933231333020347,0.0,0,False
2023-05-24,0.9933231333020347,0.9933231333020347,0.0,0,False
2023-05-25,0.9933231333020347,0.9933231333020347,0.0,0,False
2023-05-26,0.9933231333020347,0.9958249223049849,0.2518605395440243,1,True
2023-05-27,0.9958249223049849,0.9965800696283026,0.07583133404311937,1,True
2023-05-28,0.9965800696283026,0.9965800696283026,0.0,0,False
2023-05-29,0.9965800696283026,0.9965800696283026,0.0,0,False
2023-05-30,0.9965800696283026,1.0056166882171913,0.9067629249558617,1,True
2023-05-31,1.0056166882171913,1.0056166882171913,0.0,0,False
2023-06-01,1.0056166882171913,1.0056166882171913,0.0,0,False
2023-06-02,1.0056166882171913,1.0126310450933893,0.6975179467868076,3,True
2023-06-03,1.0126310450933893,1.0005845250217569,-1.1896257901634288,1,True
2023-06-04,1.0005845250217569,1.0005845250217569,0.0,0,False
2023-06-05,1.0005845250217569,1.0005845250217569,0.0,0,False
2023-06-06,1.0005845250217569,0.9807021802098597,-1.9870729873085802,4,True
2023-06-07,0.9807021802098597,0.9807021802098597,0.0,0,False
2023-06-08,0.9807021802098597,0.9758048779826298,-0.49936691546682566,1,True
2023-06-09,0.9758048779826298,0.9758048779826298,0.0,0,False
2023-06-10,0.9758048779826298,0.9997060202298307,2.4493772050631524,5,True
2023-06-11,0.9997060202298307,0.9998777634369915,0.017179371103659413,0,True
2023-06-12,0.9998777634369915,0.9998777634369915,0.0,0,False
2023-06-13,0.9998777634369915,0.9948843589757946,-0.49940149124153566,1,True
2023-06-14,0.9948843589757946,0.9948843589757946,0.0,0,False
2023-06-15,0.9948843589757946,0.9948843589757946,0.0,0,False
2023-06-16,0.9948843589757946,0.9948843589757946,0.0,0,False
2023-06-17,0.9948843589757946,0.9948843589757946,0.0,0,False
2023-06-18,0.9948843589757946,0.9948843589757946,0.0,0,False
2023-06-19,0.9948843589757946,1.0035385595561572,0.869870000697559,1,True
2023-06-20,1.0035385595561572,1.0035385595561572,0.0,0,False
2023-06-21,1.0035385595561572,1.0035385595561572,0.0,0,False
2023-06-22,1.0035385595561572,1.0076281380242182,0.4075158277794255,2,True
2023-06-23,1.0076281380242182,1.0076281380242182,0.0,0,False
2023-06-24,1.0076281380242182,1.0076281380242182,0.0,0,False
2023-06-25,1.0076281380242182,1.0025943731845066,-0.4995657276484877,1,True
2023-06-26,1.0025943731845066,1.0025943731845066,0.0,0,False
2023-06-27,1.0025943731845066,1.0025943731845066,0.0,0,False
2023-06-28,1.0025943731845066,1.0025943731845066,0.0,0,False
2023-06-29,1.0025943731845066,1.0025943731845066,0.0,0,False
2023-06-30,1.0025943731845066,0.9826391182133684,-1.9903617559467346,4,True
2023-07-01,0.9826391182133684,0.9777343880037963,-0.49913850554716976,1,True
2023-07-02,0.9777343880037963,0.9777343880037963,0.0,0,False
2023-07-03,0.9777343880037963,0.9777343880037963,0.0,0,False
2023-07-04,0.9777343880037963,0.9777343880037963,0.0,0,False
2023-07-05,0.9777343880037963,0.9728512099798982,-0.49943809727996946,1,True
2023-07-06,0.9728512099798982,0.9728512099798982,0.0,0,False
2023-07-07,0.9728512099798982,0.9728512099798982,0.0,0,False
2023-07-08,0.9728512099798982,0.9728512099798982,0.0,0,False
2023-07-09,0.9728512099798982,0.9728512099798982,0.0,0,False
2023-07-10,0.9728512099798982,0.9728512099798982,0.0,0,False
2023-07-11,0.9728512099798982,0.9728512099798982,0.0,0,False
2023-07-12,0.9728512099798982,0.9728512099798982,0.0,0,False
2023-07-13,0.9728512099798982,0.9728512099798982,0.0,0,False
2023-07-14,0.9728512099798982,0.9728512099798982,0.0,0,False
2023-07-15,0.9728512099798982,0.9728512099798982,0.0,0,False
2023-07-16,0.9728512099798982,0.9728512099798982,0.0,0,False
2023-07-17,0.9728512099798982,0.9728512099798982,0.0,0,False
2023-07-18,0.9728512099798982,0.9728512099798982,0.0,0,False
2023-07-19,0.9728512099798982,0.9728512099798982,0.0,0,False
2023-07-20,0.9728512099798982,0.9728512099798982,0.0,0,False
2023-07-21,0.9728512099798982,0.9728512099798982,0.0,0,False
2023-07-22,0.9728512099798982,0.9728512099798982,0.0,0,False
2023-07-23,0.9728512099798982,0.9728512099798982,0.0,0,False
2023-07-24,0.9728512099798982,0.9683638244277843,-0.461261239753874,2,True
2023-07-25,0.9683638244277843,0.968144192408672,-0.022680733580904278,0,True
2023-07-26,0.968144192408672,0.968144192408672,0.0,0,False
2023-07-27,0.968144192408672,0.968144192408672,0.0,0,False
2023-07-28,0.968144192408672,0.968144192408672,0.0,0,False
2023-07-29,0.968144192408672,0.968144192408672,0.0,0,False
2023-07-30,0.968144192408672,0.968144192408672,0.0,0,False
2023-07-31,0.968144192408672,0.968144192408672,0.0,0,False
2023-08-01,0.968144192408672,0.968144192408672,0.0,0,False
2023-08-02,0.968144192408672,0.968144192408672,0.0,0,False
2023-08-03,0.968144192408672,0.968144192408672,0.0,0,False
2023-08-04,0.968144192408672,0.968144192408672,0.0,0,False
2023-08-05,0.968144192408672,0.968144192408672,0.0,0,False
2023-08-06,0.968144192408672,0.968144192408672,0.0,0,False
2023-08-07,0.968144192408672,0.968144192408672,0.0,0,False
2023-08-08,0.968144192408672,0.968144192408672,0.0,0,False
2023-08-09,0.968144192408672,0.968144192408672,0.0,0,False
2023-08-10,0.968144192408672,0.968144192408672,0.0,0,False
2023-08-11,0.968144192408672,0.968144192408672,0.0,0,False
2023-08-12,0.968144192408672,0.968144192408672,0.0,0,False
2023-08-13,0.968144192408672,0.9766953658869898,0.8832541211700295,1,True
2023-08-14,0.9766953658869898,0.9770344951225935,0.03472210962072175,1,True
2023-08-15,0.9770344951225935,0.977423137971101,0.03977780216026794,0,True
2023-08-16,0.977423137971101,0.9922345614513383,1.5153542928175723,4,True
2023-08-17,0.9922345614513383,0.9893365343996027,-0.2920707627334207,1,True
2023-08-18,0.9893365343996027,1.0219977897314152,3.3013291429325076,4,True
2023-08-19,1.0219977897314152,1.0406093325048058,1.8210942293996446,2,True
2023-08-20,1.0406093325048058,1.0406093325048058,0.0,0,False
2023-08-21,1.0406093325048058,1.0406093325048058,0.0,0,False
2023-08-22,1.0406093325048058,1.0406093325048058,0.0,0,False
2023-08-23,1.0406093325048058,1.0406093325048058,0.0,0,False
2023-08-24,1.0406093325048058,1.0406093325048058,0.0,0,False
2023-08-25,1.0406093325048058,1.0343347272559802,-0.6029741472452721,5,True
2023-08-26,1.0343347272559802,1.0350167060569182,0.0659340523881724,0,True
2023-08-27,1.0350167060569182,1.0350167060569182,0.0,0,False
2023-08-28,1.0350167060569182,1.0350167060569182,0.0,0,False
2023-08-29,1.0350167060569182,1.0360839160050184,0.10311040796295856,1,True
2023-08-30,1.0360839160050184,1.0360839160050184,0.0,0,False
2023-08-31,1.0360839160050184,1.0360839160050184,0.0,0,False
2023-09-01,1.0360839160050184,1.0360839160050184,0.0,0,False
2023-09-02,1.0360839160050184,1.057162542871201,2.034451702277029,3,True
2023-09-03,1.057162542871201,1.0580219182901038,0.08129075558889198,0,True
2023-09-04,1.0580219182901038,1.0571276511311447,-0.08452255510966733,1,True
2023-09-05,1.0571276511311447,1.0617570805707406,0.43792530018889053,2,True
2023-09-06,1.0617570805707406,1.0622768042703916,0.04894939804607201,1,True
2023-09-07,1.0622768042703916,1.0622768042703916,0.0,0,False
2023-09-08,1.0622768042703916,1.065772112962003,0.32903934996604267,3,True
2023-09-09,1.065772112962003,1.0589221209069468,-0.6427257733380376,1,True
2023-09-10,1.0589221209069468,1.0510720770467084,-0.7413240034607083,3,True
2023-09-11,1.0510720770467084,1.0467645102704084,-0.40982601197087076,1,True
2023-09-12,1.0467645102704084,1.0467645102704084,0.0,0,False
2023-09-13,1.0467645102704084,1.0415385501355632,-0.49924888392473,1,True
2023-09-14,1.0415385501355632,1.0415385501355632,0.0,0,False
2023-09-15,1.0415385501355632,1.0415385501355632,0.0,0,False
2023-09-16,1.0415385501355632,1.051068902123756,0.9150263316660245,1,True
2023-09-17,1.051068902123756,1.0607059070608962,0.9168766117680693,1,True
2023-09-18,1.0607059070608962,1.0448949707685689,-1.4906050948785388,3,True
2023-09-19,1.0448949707685689,1.0448949707685689,0.0,0,False
2023-09-20,1.0448949707685689,1.0483895745388474,0.3344454579686795,1,True
2023-09-21,1.0483895745388474,1.0539534119555989,0.5307032377920073,0,True
2023-09-22,1.0539534119555989,1.0539534119555989,0.0,0,False
2023-09-23,1.0539534119555989,1.0539534119555989,0.0,0,False
2023-09-24,1.0539534119555989,1.0539534119555989,0.0,0,False
2023-09-25,1.0539534119555989,1.0539534119555989,0.0,0,False
2023-09-26,1.0539534119555989,1.0551318259111853,0.11180892269231357,1,True
2023-09-27,1.0551318259111853,1.0479102020621318,-0.6844285871878686,1,True
2023-09-28,1.0479102020621318,1.0479102020621318,0.0,0,False
2023-09-29,1.0479102020621318,1.0479102020621318,0.0,0,False
2023-09-30,1.0479102020621318,1.0479102020621318,0.0,0,False
2023-10-01,1.0479102020621318,1.0479102020621318,0.0,0,False
2023-10-02,1.0479102020621318,1.0479102020621318,0.0,0,False
2023-10-03,1.0479102020621318,1.0481922560341832,0.02691585323784107,1,True
2023-10-04,1.0481922560341832,1.0426737984904477,-0.5264737944749243,0,True
2023-10-05,1.0426737984904477,1.0426737984904477,0.0,0,False
2023-10-06,1.0426737984904477,1.0426737984904477,0.0,0,False
2023-10-07,1.0426737984904477,1.0426737984904477,0.0,0,False
2023-10-08,1.0426737984904477,1.0426737984904477,0.0,0,False
2023-10-09,1.0426737984904477,1.0374627496416355,-0.49977748135193734,1,True
2023-10-10,1.0374627496416355,1.0374627496416355,0.0,0,False
2023-10-11,1.0374627496416355,1.0374627496416355,0.0,0,False
2023-10-12,1.0374627496416355,1.0374627496416355,0.0,0,False
2023-10-13,1.0374627496416355,1.0374627496416355,0.0,0,False
2023-10-14,1.0374627496416355,1.0374627496416355,0.0,0,False
2023-10-15,1.0374627496416355,1.037336384926268,-0.012180168917985679,1,True
2023-10-16,1.037336384926268,1.0383368862711944,0.09644907471335618,1,True
2023-10-17,1.0383368862711944,1.0324554371796824,-0.5664297560142639,1,True
2023-10-18,1.0324554371796824,1.0324554371796824,0.0,0,False
2023-10-19,1.0324554371796824,1.0221787540646048,-0.9953633585532695,2,True
2023-10-20,1.0221787540646048,1.0221787540646048,0.0,0,False
2023-10-21,1.0221787540646048,1.0232848284482123,0.10820753016136386,1,True
2023-10-22,1.0232848284482123,1.0232848284482123,0.0,0,False
2023-10-23,1.0232848284482123,1.0232848284482123,0.0,0,False
2023-10-24,1.0232848284482123,1.0181757881159472,-0.4992784208491474,1,True
2023-10-25,1.0181757881159472,1.0185245376849024,0.03425239266399149,1,True
2023-10-26,1.0185245376849024,1.036243522116981,1.7396718268912537,5,True
2023-10-27,1.036243522116981,1.0331966084445505,-0.29403452059278967,2,True
2023-10-28,1.0331966084445505,1.0393244577816303,0.5930961529485801,1,True
2023-10-29,1.0393244577816303,1.0393244577816303,0.0,0,False
2023-10-30,1.0393244577816303,1.0393244577816303,0.0,0,False
2023-10-31,1.0393244577816303,1.0393244577816303,0.0,0,False
2023-11-01,1.0393244577816303,1.0393244577816303,0.0,0,False
2023-11-02,1.0393244577816303,1.0393244577816303,0.0,0,False
2023-11-03,1.0393244577816303,1.0341358723635046,-0.49922672167269644,1,True
2023-11-04,1.0341358723635046,1.0341358723635046,0.0,0,False
2023-11-05,1.0341358723635046,1.0434411389817355,0.8998108340409816,1,True
2023-11-06,1.0434411389817355,1.0454798222192843,0.19538076096350387,1,True
2023-11-07,1.0454798222192843,1.0394020571519325,-0.581337385780456,1,True
2023-11-08,1.0394020571519325,1.0394020571519325,0.0,0,False
2023-11-09,1.0394020571519325,1.0366351118534103,-0.26620548607569905,4,True
2023-11-10,1.0366351118534103,1.0477904267268987,1.0761081450872068,4,True
2023-11-11,1.0477904267268987,1.0477904267268987,0.0,0,False
2023-11-12,1.0477904267268987,1.0477904267268987,0.0,0,False
2023-11-13,1.0477904267268987,1.0467331041696524,-0.10090973636295297,1,True
2023-11-14,1.0467331041696524,1.056769256391247,0.9588071860549441,2,True
2023-11-15,1.056769256391247,1.0662999679388288,0.9018725223071122,0,True
2023-11-16,1.0662999679388288,1.0662999679388288,0.0,0,False
2023-11-17,1.0662999679388288,1.0642849166799808,-0.18897602170456773,1,True
2023-11-18,1.0642849166799808,1.056322469150612,-0.7481499929744007,2,True
2023-11-19,1.056322469150612,1.0568197505801475,0.0470766687312274,0,True
2023-11-20,1.0568197505801475,1.0591944511294917,0.22470251412698428,1,True
2023-11-21,1.0591944511294917,1.0538836025015226,-0.5014044987023736,0,True
2023-11-22,1.0538836025015226,1.0486200377045878,-0.49944460511968103,1,True
2023-11-23,1.0486200377045878,1.0486200377045878,0.0,0,False
2023-11-24,1.0486200377045878,1.0486200377045878,0.0,0,False
2023-11-25,1.0486200377045878,1.0575580775975486,0.8523621113063928,1,True
2023-11-26,1.0575580775975486,1.0575580775975486,0.0,0,False
2023-11-27,1.0575580775975486,1.0492485935589055,-0.7857236604461137,2,True
2023-11-28,1.0492485935589055,1.0440084618548509,-0.499417558071813,1,True
2023-11-29,1.0440084618548509,1.0335671453421142,-1.0001179965712037,2,True
2023-11-30,1.0335671453421142,1.0313292606313231,-0.21652049611642354,1,True
2023-12-01,1.0313292606313231,1.0313292606313231,0.0,0,False
2023-12-02,1.0313292606313231,1.0407263156187452,0.9111595439142084,1,True
2023-12-03,1.0407263156187452,1.0416616501952862,0.0898732512577105,1,True
2023-12-04,1.0416616501952862,1.0568839340684617,1.461346289394605,5,True
2023-12-05,1.0568839340684617,1.0617399696342893,0.45946725172880676,1,True
2023-12-06,1.0617399696342893,1.055458424615194,-0.5916274416285838,0,True
2023-12-07,1.055458424615194,1.0501897945557859,-0.49917930792289233,1,True
2023-12-08,1.0501897945557859,1.0501897945557859,0.0,0,False
2023-12-09,1.0501897945557859,1.0501897945557859,0.0,0,False
2023-12-10,1.0501897945557859,1.0501897945557859,0.0,0,False
2023-12-11,1.0501897945557859,1.0664874734193672,1.5518793791435614,4,True
2023-12-12,1.0664874734193672,1.0664874734193672,0.0,0,False
2023-12-13,1.0664874734193672,1.0653764096259437,-0.10417973216892973,1,True
2023-12-14,1.0653764096259437,1.0653764096259437,0.0,0,False
2023-12-15,1.0653764096259437,1.0653764096259437,0.0,0,False
2023-12-16,1.0653764096259437,1.0632535025688405,-0.19926356899985231,1,True
2023-12-17,1.0632535025688405,1.0579453390080227,-0.4992378156284727,1,True
2023-12-18,1.0579453390080227,1.0632077240122721,0.49741558568459077,1,True
2023-12-19,1.0632077240122721,1.059408607543584,-0.3573258905937293,0,True
2023-12-20,1.059408607543584,1.059408607543584,0.0,0,False
2023-12-21,1.059408607543584,1.0541190395152729,-0.4992944167761526,1,True
2023-12-22,1.0541190395152729,1.0541190395152729,0.0,0,False
2023-12-23,1.0541190395152729,1.0541190395152729,0.0,0,False
2023-12-24,1.0541190395152729,1.0517851152637576,-0.2214099322775276,1,True
2023-12-25,1.0517851152637576,1.0488603994945915,-0.2780716067114719,0,True
2023-12-26,1.0488603994945915,1.0488603994945915,0.0,0,False
2023-12-27,1.0488603994945915,1.0399727023229444,-0.8473670257671873,2,True
2023-12-28,1.0399727023229444,1.0420451471399623,0.19927877072050126,1,True
2023-12-29,1.0420451471399623,1.034945925820426,-0.6812777103776146,1,True
2023-12-30,1.034945925820426,1.039168008655258,0.4079520223711164,2,True
2023-12-31,1.039168008655258,1.03397857253447,-0.49938374522359164,1,True
