day,start_equity,end_equity,return_pct,entries,active
2021-09-02,1.0,1.0,0.0,0,False
2021-09-03,1.0,1.0,0.0,0,False
2021-09-04,1.0,1.0,0.0,0,False
2021-09-05,1.0,1.0,0.0,0,False
2021-09-06,1.0,1.0,0.0,0,False
2021-09-07,1.0,1.0,0.0,0,False
2021-09-08,1.0,1.0,0.0,0,False
2021-09-09,1.0,1.0,0.0,0,False
2021-09-10,1.0,1.0,0.0,0,False
2021-09-11,1.0,1.0,0.0,0,False
2021-09-12,1.0,1.0,0.0,0,False
2021-09-13,1.0,1.0,0.0,0,False
2021-09-14,1.0,1.0,0.0,0,False
2021-09-15,1.0,1.0,0.0,0,False
2021-09-16,1.0,1.0,0.0,0,False
2021-09-17,1.0,1.0,0.0,0,False
2021-09-18,1.0,1.0,0.0,0,False
2021-09-19,1.0,1.0,0.0,0,False
2021-09-20,1.0,1.0,0.0,0,False
2021-09-21,1.0,1.0,0.0,0,False
2021-09-22,1.0,1.0,0.0,0,False
2021-09-23,1.0,1.0,0.0,0,False
2021-09-24,1.0,1.0,0.0,0,False
2021-09-25,1.0,1.0,0.0,0,False
2021-09-26,1.0,1.0,0.0,0,False
2021-09-27,1.0,1.0,0.0,0,False
2021-09-28,1.0,1.0,0.0,0,False
2021-09-29,1.0,1.0,0.0,0,False
2021-09-30,1.0,1.0,0.0,0,False
2021-10-01,1.0,1.0,0.0,0,False
2021-10-02,1.0,1.0,0.0,0,False
2021-10-03,1.0,1.0,0.0,0,False
2021-10-04,1.0,1.0,0.0,0,False
2021-10-05,1.0,0.9993073753491394,-0.06926246508606182,1,True
2021-10-06,0.9993073753491394,1.0068745832603865,0.7572452778709104,5,True
2021-10-07,1.0068745832603865,0.98492131529901,-2.1803378818332164,2,True
2021-10-08,0.98492131529901,0.9842532688187107,-0.0678273959475062,1,True
2021-10-09,0.9842532688187107,0.9865047380094009,0.2287489675693255,3,True
2021-10-10,0.9865047380094009,0.974068240313092,-1.2606627436380635,1,True
2021-10-11,0.974068240313092,0.9715294351363071,-0.2606393547919139,0,True
2021-10-12,0.9715294351363071,0.9715294351363071,0.0,0,False
2021-10-13,0.9715294351363071,0.996967409956123,2.618343191655015,4,True
2021-10-14,0.996967409956123,1.0253105324172993,2.8429336985472453,1,True
2021-10-15,1.0253105324172993,1.0295436678178547,0.412863739005509,6,True
2021-10-16,1.0295436678178547,1.0758049585831415,4.493378203504372,2,True
2021-10-17,1.0758049585831415,1.0760412287652852,0.021962176346068674,0,True
2021-10-18,1.0760412287652852,1.065295609509733,-0.998625235566708,2,True
2021-10-19,1.065295609509733,1.065295609509733,0.0,0,False
2021-10-20,1.065295609509733,1.065295609509733,0.0,0,False
2021-10-21,1.065295609509733,1.065295609509733,0.0,0,False
2021-10-22,1.065295609509733,1.065295609509733,0.0,0,False
2021-10-23,1.065295609509733,1.065295609509733,0.0,0,False
2021-10-24,1.065295609509733,1.0698430806700918,0.4268741107880558,1,True
2021-10-25,1.0698430806700918,1.0612877041692903,-0.7996851739642818,2,True
2021-10-26,1.0612877041692903,1.0679054225733224,0.6235555521876268,0,True
2021-10-27,1.0679054225733224,1.0779251494697224,0.9382597638895263,7,True
2021-10-28,1.0779251494697224,1.077487625289442,-0.04058947696837789,3,True
2021-10-29,1.077487625289442,1.0730621799389815,-0.4107189026205105,2,True
2021-10-30,1.0730621799389815,1.13587335929694,5.853451974379564,2,True
2021-10-31,1.13587335929694,1.1590730890822956,2.042457426742983,9,True
2021-11-01,1.1590730890822956,1.1355830752216227,-2.026620588635286,6,True
2021-11-02,1.1355830752216227,1.1484188900412902,1.1303281195136128,3,True
2021-11-03,1.1484188900412902,1.1388762056409707,-0.8309410863118427,2,True
2021-11-04,1.1388762056409707,1.159668917422375,1.82572185444001,5,True
2021-11-05,1.159668917422375,1.135325332897413,-2.0991840135778705,2,True
2021-11-06,1.135325332897413,1.131899256330071,-0.3017704677300448,3,True
2021-11-07,1.131899256330071,1.1278923808934784,-0.35399576545211975,0,True
2021-11-08,1.1278923808934784,1.1278923808934784,0.0,0,False
2021-11-09,1.1278923808934784,1.135248021294148,0.652158000645664,1,True
2021-11-10,1.135248021294148,1.1610685800838079,2.2744420871330995,0,True
2021-11-11,1.1610685800838079,1.1370560875151257,-2.068137315967067,8,True
2021-11-12,1.1370560875151257,1.1090053722239013,-2.4669596864412613,6,True
2021-11-13,1.1090053722239013,1.1078957633530186,-0.10005441801039794,1,True
2021-11-14,1.1078957633530186,1.1072091524369472,-0.06197432455138374,2,True
2021-11-15,1.1072091524369472,1.1061526177900876,-0.09542322193907271,0,True
2021-11-16,1.1061526177900876,1.1211682778088374,1.3574672949514532,9,True
2021-11-17,1.1211682778088374,1.1094421819667712,-1.045881878230015,1,True
2021-11-18,1.1094421819667712,1.1032328102897715,-0.5596841167506361,4,True
2021-11-19,1.1032328102897715,1.1096442907711617,0.5811538980341036,7,True
2021-11-20,1.1096442907711617,1.1146494069819708,0.45105591516456656,0,True
2021-11-21,1.1146494069819708,1.1091564181394562,-0.4927996918230537,3,True
2021-11-22,1.1091564181394562,1.1048518842738395,-0.38809078640479333,9,True
2021-11-23,1.1048518842738395,1.1030288758583848,-0.16500025400715268,0,True
2021-11-24,1.1030288758583848,1.0951187494711108,-0.7171277706685908,4,True
2021-11-25,1.0951187494711108,1.103878790974172,0.7999170416260304,7,True
2021-11-26,1.103878790974172,1.0881122071828329,-1.4282894028089133,13,True
2021-11-27,1.0881122071828329,1.0929602191111414,0.445543382043323,5,True
2021-11-28,1.0929602191111414,1.071046266930351,-2.0050091300314654,10,True
2021-11-29,1.071046266930351,1.0695762273725458,-0.1372526662194118,2,True
2021-11-30,1.0695762273725458,1.0637845905946557,-0.5414889214691576,3,True
2021-12-01,1.0637845905946557,1.0592803066794698,-0.4234206769876181,1,True
2021-12-02,1.0592803066794698,1.0567436615287713,-0.23946873501784482,1,True
2021-12-03,1.0567436615287713,1.0567436615287713,0.0,0,False
2021-12-04,1.0567436615287713,1.0567436615287713,0.0,0,False
2021-12-05,1.0567436615287713,1.0567436615287713,0.0,0,False
2021-12-06,1.0567436615287713,1.0567436615287713,0.0,0,False
2021-12-07,1.0567436615287713,1.0567436615287713,0.0,0,False
2021-12-08,1.0567436615287713,1.0567436615287713,0.0,0,False
2021-12-09,1.0567436615287713,1.0567436615287713,0.0,0,False
2021-12-10,1.0567436615287713,1.0567436615287713,0.0,0,False
2021-12-11,1.0567436615287713,1.0567436615287713,0.0,0,False
2021-12-12,1.0567436615287713,1.0567436615287713,0.0,0,False
2021-12-13,1.0567436615287713,1.0567436615287713,0.0,0,False
2021-12-14,1.0567436615287713,1.0567436615287713,0.0,0,False
2021-12-15,1.0567436615287713,1.0567436615287713,0.0,0,False
2021-12-16,1.0567436615287713,1.0567436615287713,0.0,0,False
2021-12-17,1.0567436615287713,1.0567436615287713,0.0,0,False
2021-12-18,1.0567436615287713,1.0567436615287713,0.0,0,False
2021-12-19,1.0567436615287713,1.0567436615287713,0.0,0,False
2021-12-20,1.0567436615287713,1.0567436615287713,0.0,0,False
2021-12-21,1.0567436615287713,1.0567436615287713,0.0,0,False
2021-12-22,1.0567436615287713,1.0567436615287713,0.0,0,False
2021-12-23,1.0567436615287713,1.0567436615287713,0.0,0,False
2021-12-24,1.0567436615287713,1.0567436615287713,0.0,0,False
2021-12-25,1.0567436615287713,1.0567436615287713,0.0,0,False
2021-12-26,1.0567436615287713,1.0567436615287713,0.0,0,False
2021-12-27,1.0567436615287713,1.0567436615287713,0.0,0,False
2021-12-28,1.0567436615287713,1.0567436615287713,0.0,0,False
2021-12-29,1.0567436615287713,1.0567436615287713,0.0,0,False
2021-12-30,1.0567436615287713,1.0567436615287713,0.0,0,False
2021-12-31,1.0567436615287713,1.0567436615287713,0.0,0,False
2022-01-01,1.0567436615287713,1.0567436615287713,0.0,0,False
2022-01-02,1.0567436615287713,1.0567436615287713,0.0,0,False
2022-01-03,1.0567436615287713,1.0567436615287713,0.0,0,False
2022-01-04,1.0567436615287713,1.0567436615287713,0.0,0,False
2022-01-05,1.0567436615287713,1.0567436615287713,0.0,0,False
2022-01-06,1.0567436615287713,1.0567436615287713,0.0,0,False
2022-01-07,1.0567436615287713,1.0567436615287713,0.0,0,False
2022-01-08,1.0567436615287713,1.0567436615287713,0.0,0,False
2022-01-09,1.0567436615287713,1.0567436615287713,0.0,0,False
2022-01-10,1.0567436615287713,1.0567436615287713,0.0,0,False
2022-01-11,1.0567436615287713,1.0567436615287713,0.0,0,False
2022-01-12,1.0567436615287713,1.0567436615287713,0.0,0,False
2022-01-13,1.0567436615287713,1.0567436615287713,0.0,0,False
2022-01-14,1.0567436615287713,1.0567436615287713,0.0,0,False
2022-01-15,1.0567436615287713,1.0567436615287713,0.0,0,False
2022-01-16,1.0567436615287713,1.0567436615287713,0.0,0,False
2022-01-17,1.0567436615287713,1.0567436615287713,0.0,0,False
2022-01-18,1.0567436615287713,1.0567436615287713,0.0,0,False
2022-01-19,1.0567436615287713,1.0567436615287713,0.0,0,False
2022-01-20,1.0567436615287713,1.0567436615287713,0.0,0,False
2022-01-21,1.0567436615287713,1.0567436615287713,0.0,0,False
2022-01-22,1.0567436615287713,1.0567436615287713,0.0,0,False
2022-01-23,1.0567436615287713,1.0567436615287713,0.0,0,False
2022-01-24,1.0567436615287713,1.0567436615287713,0.0,0,False
2022-01-25,1.0567436615287713,1.0567436615287713,0.0,0,False
2022-01-26,1.0567436615287713,1.0567436615287713,0.0,0,False
2022-01-27,1.0567436615287713,1.0567436615287713,0.0,0,False
2022-01-28,1.0567436615287713,1.0567436615287713,0.0,0,False
2022-01-29,1.0567436615287713,1.0567436615287713,0.0,0,False
2022-01-30,1.0567436615287713,1.0567436615287713,0.0,0,False
2022-01-31,1.0567436615287713,1.0567436615287713,0.0,0,False
2022-02-01,1.0567436615287713,1.0567436615287713,0.0,0,False
2022-02-02,1.0567436615287713,1.0567436615287713,0.0,0,False
2022-02-03,1.0567436615287713,1.0567436615287713,0.0,0,False
2022-02-04,1.0567436615287713,1.0567436615287713,0.0,0,False
2022-02-05,1.0567436615287713,1.0567436615287713,0.0,0,False
2022-02-06,1.0567436615287713,1.0567436615287713,0.0,0,False
2022-02-07,1.0567436615287713,1.0567436615287713,0.0,0,False
2022-02-08,1.0567436615287713,1.0567436615287713,0.0,0,False
2022-02-09,1.0567436615287713,1.0567436615287713,0.0,0,False
2022-02-10,1.0567436615287713,1.0567436615287713,0.0,0,False
2022-02-11,1.0567436615287713,1.0567436615287713,0.0,0,False
2022-02-12,1.0567436615287713,1.0567436615287713,0.0,0,False
2022-02-13,1.0567436615287713,1.0567436615287713,0.0,0,False
2022-02-14,1.0567436615287713,1.0567436615287713,0.0,0,False
2022-02-15,1.0567436615287713,1.0567436615287713,0.0,0,False
2022-02-16,1.0567436615287713,1.0567436615287713,0.0,0,False
2022-02-17,1.0567436615287713,1.0567436615287713,0.0,0,False
2022-02-18,1.0567436615287713,1.0567436615287713,0.0,0,False
2022-02-19,1.0567436615287713,1.0567436615287713,0.0,0,False
2022-02-20,1.0567436615287713,1.0567436615287713,0.0,0,False
2022-02-21,1.0567436615287713,1.0567436615287713,0.0,0,False
2022-02-22,1.0567436615287713,1.0567436615287713,0.0,0,False
2022-02-23,1.0567436615287713,1.0567436615287713,0.0,0,False
2022-02-24,1.0567436615287713,1.0567436615287713,0.0,0,False
2022-02-25,1.0567436615287713,1.0567436615287713,0.0,0,False
2022-02-26,1.0567436615287713,1.0567436615287713,0.0,0,False
2022-02-27,1.0567436615287713,1.0567436615287713,0.0,0,False
2022-02-28,1.0567436615287713,1.0567436615287713,0.0,0,False
2022-03-01,1.0567436615287713,1.0567436615287713,0.0,0,False
2022-03-02,1.0567436615287713,1.0567436615287713,0.0,0,False
2022-03-03,1.0567436615287713,1.0567436615287713,0.0,0,False
2022-03-04,1.0567436615287713,1.0567436615287713,0.0,0,False
2022-03-05,1.0567436615287713,1.0567436615287713,0.0,0,False
2022-03-06,1.0567436615287713,1.0567436615287713,0.0,0,False
2022-03-07,1.0567436615287713,1.0567436615287713,0.0,0,False
2022-03-08,1.0567436615287713,1.0567436615287713,0.0,0,False
2022-03-09,1.0567436615287713,1.0567436615287713,0.0,0,False
2022-03-10,1.0567436615287713,1.0567436615287713,0.0,0,False
2022-03-11,1.0567436615287713,1.0567436615287713,0.0,0,False
2022-03-12,1.0567436615287713,1.0567436615287713,0.0,0,False
2022-03-13,1.0567436615287713,1.0567436615287713,0.0,0,False
2022-03-14,1.0567436615287713,1.0567436615287713,0.0,0,False
2022-03-15,1.0567436615287713,1.0567436615287713,0.0,0,False
2022-03-16,1.0567436615287713,1.0567436615287713,0.0,0,False
2022-03-17,1.0567436615287713,1.0567436615287713,0.0,0,False
2022-03-18,1.0567436615287713,1.0567436615287713,0.0,0,False
2022-03-19,1.0567436615287713,1.0567436615287713,0.0,0,False
2022-03-20,1.0567436615287713,1.0567436615287713,0.0,0,False
2022-03-21,1.0567436615287713,1.0567436615287713,0.0,0,False
2022-03-22,1.0567436615287713,1.0567436615287713,0.0,0,False
2022-03-23,1.0567436615287713,1.0567436615287713,0.0,0,False
2022-03-24,1.0567436615287713,1.0567436615287713,0.0,0,False
2022-03-25,1.0567436615287713,1.0567436615287713,0.0,0,False
2022-03-26,1.0567436615287713,1.0567436615287713,0.0,0,False
2022-03-27,1.0567436615287713,1.0567436615287713,0.0,0,False
2022-03-28,1.0567436615287713,1.0567436615287713,0.0,0,False
2022-03-29,1.0567436615287713,1.0567436615287713,0.0,0,False
2022-03-30,1.0567436615287713,1.0567436615287713,0.0,0,False
2022-03-31,1.0567436615287713,1.0567436615287713,0.0,0,False
2022-04-01,1.0567436615287713,1.0567436615287713,0.0,0,False
2022-04-02,1.0567436615287713,1.0567436615287713,0.0,0,False
2022-04-03,1.0567436615287713,1.0567436615287713,0.0,0,False
2022-04-04,1.0567436615287713,1.0567436615287713,0.0,0,False
2022-04-05,1.0567436615287713,1.0567436615287713,0.0,0,False
2022-04-06,1.0567436615287713,1.0567436615287713,0.0,0,False
2022-04-07,1.0567436615287713,1.0567436615287713,0.0,0,False
2022-04-08,1.0567436615287713,1.0567436615287713,0.0,0,False
2022-04-09,1.0567436615287713,1.0567436615287713,0.0,0,False
2022-04-10,1.0567436615287713,1.0567436615287713,0.0,0,False
2022-04-11,1.0567436615287713,1.0567436615287713,0.0,0,False
2022-04-12,1.0567436615287713,1.0567436615287713,0.0,0,False
2022-04-13,1.0567436615287713,1.0567436615287713,0.0,0,False
2022-04-14,1.0567436615287713,1.0567436615287713,0.0,0,False
2022-04-15,1.0567436615287713,1.0567436615287713,0.0,0,False
2022-04-16,1.0567436615287713,1.0567436615287713,0.0,0,False
2022-04-17,1.0567436615287713,1.0567436615287713,0.0,0,False
2022-04-18,1.0567436615287713,1.0567436615287713,0.0,0,False
2022-04-19,1.0567436615287713,1.0567436615287713,0.0,0,False
2022-04-20,1.0567436615287713,1.0567436615287713,0.0,0,False
2022-04-21,1.0567436615287713,1.0567436615287713,0.0,0,False
2022-04-22,1.0567436615287713,1.0567436615287713,0.0,0,False
2022-04-23,1.0567436615287713,1.0567436615287713,0.0,0,False
2022-04-24,1.0567436615287713,1.0567436615287713,0.0,0,False
2022-04-25,1.0567436615287713,1.0567436615287713,0.0,0,False
2022-04-26,1.0567436615287713,1.0567436615287713,0.0,0,False
2022-04-27,1.0567436615287713,1.0567436615287713,0.0,0,False
2022-04-28,1.0567436615287713,1.0567436615287713,0.0,0,False
2022-04-29,1.0567436615287713,1.0567436615287713,0.0,0,False
2022-04-30,1.0567436615287713,1.0567436615287713,0.0,0,False
2022-05-01,1.0567436615287713,1.0567436615287713,0.0,0,False
2022-05-02,1.0567436615287713,1.0567436615287713,0.0,0,False
2022-05-03,1.0567436615287713,1.0567436615287713,0.0,0,False
2022-05-04,1.0567436615287713,1.0567436615287713,0.0,0,False
2022-05-05,1.0567436615287713,1.0567436615287713,0.0,0,False
2022-05-06,1.0567436615287713,1.0567436615287713,0.0,0,False
2022-05-07,1.0567436615287713,1.0567436615287713,0.0,0,False
2022-05-08,1.0567436615287713,1.0567436615287713,0.0,0,False
2022-05-09,1.0567436615287713,1.0567436615287713,0.0,0,False
2022-05-10,1.0567436615287713,1.0567436615287713,0.0,0,False
2022-05-11,1.0567436615287713,1.0567436615287713,0.0,0,False
2022-05-12,1.0567436615287713,1.0567436615287713,0.0,0,False
2022-05-13,1.0567436615287713,1.0567436615287713,0.0,0,False
2022-05-14,1.0567436615287713,1.0567436615287713,0.0,0,False
2022-05-15,1.0567436615287713,1.0567436615287713,0.0,0,False
2022-05-16,1.0567436615287713,1.0567436615287713,0.0,0,False
2022-05-17,1.0567436615287713,1.0567436615287713,0.0,0,False
2022-05-18,1.0567436615287713,1.0567436615287713,0.0,0,False
2022-05-19,1.0567436615287713,1.0567436615287713,0.0,0,False
2022-05-20,1.0567436615287713,1.0567436615287713,0.0,0,False
2022-05-21,1.0567436615287713,1.0567436615287713,0.0,0,False
2022-05-22,1.0567436615287713,1.0567436615287713,0.0,0,False
2022-05-23,1.0567436615287713,1.0567436615287713,0.0,0,False
2022-05-24,1.0567436615287713,1.0567436615287713,0.0,0,False
2022-05-25,1.0567436615287713,1.0567436615287713,0.0,0,False
2022-05-26,1.0567436615287713,1.0567436615287713,0.0,0,False
2022-05-27,1.0567436615287713,1.0567436615287713,0.0,0,False
2022-05-28,1.0567436615287713,1.0567436615287713,0.0,0,False
2022-05-29,1.0567436615287713,1.0567436615287713,0.0,0,False
2022-05-30,1.0567436615287713,1.0567436615287713,0.0,0,False
2022-05-31,1.0567436615287713,1.0567436615287713,0.0,0,False
2022-06-01,1.0567436615287713,1.0567436615287713,0.0,0,False
2022-06-02,1.0567436615287713,1.0567436615287713,0.0,0,False
2022-06-03,1.0567436615287713,1.0567436615287713,0.0,0,False
2022-06-04,1.0567436615287713,1.0567436615287713,0.0,0,False
2022-06-05,1.0567436615287713,1.0567436615287713,0.0,0,False
2022-06-06,1.0567436615287713,1.0567436615287713,0.0,0,False
2022-06-07,1.0567436615287713,1.0567436615287713,0.0,0,False
2022-06-08,1.0567436615287713,1.0567436615287713,0.0,0,False
2022-06-09,1.0567436615287713,1.0567436615287713,0.0,0,False
2022-06-10,1.0567436615287713,1.0567436615287713,0.0,0,False
2022-06-11,1.0567436615287713,1.0567436615287713,0.0,0,False
2022-06-12,1.0567436615287713,1.0567436615287713,0.0,0,False
2022-06-13,1.0567436615287713,1.0567436615287713,0.0,0,False
2022-06-14,1.0567436615287713,1.0567436615287713,0.0,0,False
2022-06-15,1.0567436615287713,1.0567436615287713,0.0,0,False
2022-06-16,1.0567436615287713,1.0567436615287713,0.0,0,False
2022-06-17,1.0567436615287713,1.0567436615287713,0.0,0,False
2022-06-18,1.0567436615287713,1.0567436615287713,0.0,0,False
2022-06-19,1.0567436615287713,1.0567436615287713,0.0,0,False
2022-06-20,1.0567436615287713,1.0567436615287713,0.0,0,False
2022-06-21,1.0567436615287713,1.0567436615287713,0.0,0,False
2022-06-22,1.0567436615287713,1.0567436615287713,0.0,0,False
2022-06-23,1.0567436615287713,1.0567436615287713,0.0,0,False
2022-06-24,1.0567436615287713,1.0567436615287713,0.0,0,False
2022-06-25,1.0567436615287713,1.0567436615287713,0.0,0,False
2022-06-26,1.0567436615287713,1.0567436615287713,0.0,0,False
2022-06-27,1.0567436615287713,1.0567436615287713,0.0,0,False
2022-06-28,1.0567436615287713,1.0567436615287713,0.0,0,False
2022-06-29,1.0567436615287713,1.0567436615287713,0.0,0,False
2022-06-30,1.0567436615287713,1.0567436615287713,0.0,0,False
2022-07-01,1.0567436615287713,1.0567436615287713,0.0,0,False
2022-07-02,1.0567436615287713,1.0567436615287713,0.0,0,False
2022-07-03,1.0567436615287713,1.0567436615287713,0.0,0,False
2022-07-04,1.0567436615287713,1.0567436615287713,0.0,0,False
2022-07-05,1.0567436615287713,1.0567436615287713,0.0,0,False
2022-07-06,1.0567436615287713,1.0567436615287713,0.0,0,False
2022-07-07,1.0567436615287713,1.0567436615287713,0.0,0,False
2022-07-08,1.0567436615287713,1.0567436615287713,0.0,0,False
2022-07-09,1.0567436615287713,1.0567436615287713,0.0,0,False
2022-07-10,1.0567436615287713,1.0567436615287713,0.0,0,False
2022-07-11,1.0567436615287713,1.0567436615287713,0.0,0,False
2022-07-12,1.0567436615287713,1.0567436615287713,0.0,0,False
2022-07-13,1.0567436615287713,1.0567436615287713,0.0,0,False
2022-07-14,1.0567436615287713,1.0567436615287713,0.0,0,False
2022-07-15,1.0567436615287713,1.0567436615287713,0.0,0,False
2022-07-16,1.0567436615287713,1.0567436615287713,0.0,0,False
2022-07-17,1.0567436615287713,1.0567436615287713,0.0,0,False
2022-07-18,1.0567436615287713,1.0567436615287713,0.0,0,False
2022-07-19,1.0567436615287713,1.0567436615287713,0.0,0,False
2022-07-20,1.0567436615287713,1.0567436615287713,0.0,0,False
2022-07-21,1.0567436615287713,1.0567436615287713,0.0,0,False
2022-07-22,1.0567436615287713,1.0567436615287713,0.0,0,False
2022-07-23,1.0567436615287713,1.0567436615287713,0.0,0,False
2022-07-24,1.0567436615287713,1.0567436615287713,0.0,0,False
2022-07-25,1.0567436615287713,1.0567436615287713,0.0,0,False
2022-07-26,1.0567436615287713,1.0567436615287713,0.0,0,False
2022-07-27,1.0567436615287713,1.0567436615287713,0.0,0,False
2022-07-28,1.0567436615287713,1.0567436615287713,0.0,0,False
2022-07-29,1.0567436615287713,1.0567436615287713,0.0,0,False
2022-07-30,1.0567436615287713,1.0567436615287713,0.0,0,False
2022-07-31,1.0567436615287713,1.0567436615287713,0.0,0,False
2022-08-01,1.0567436615287713,1.0567436615287713,0.0,0,False
2022-08-02,1.0567436615287713,1.0567436615287713,0.0,0,False
2022-08-03,1.0567436615287713,1.0567436615287713,0.0,0,False
2022-08-04,1.0567436615287713,1.0567436615287713,0.0,0,False
2022-08-05,1.0567436615287713,1.0567436615287713,0.0,0,False
2022-08-06,1.0567436615287713,1.0567436615287713,0.0,0,False
2022-08-07,1.0567436615287713,1.0567436615287713,0.0,0,False
2022-08-08,1.0567436615287713,1.0567436615287713,0.0,0,False
2022-08-09,1.0567436615287713,1.0567436615287713,0.0,0,False
2022-08-10,1.0567436615287713,1.0567436615287713,0.0,0,False
2022-08-11,1.0567436615287713,1.0567436615287713,0.0,0,False
2022-08-12,1.0567436615287713,1.0567436615287713,0.0,0,False
2022-08-13,1.0567436615287713,1.0567436615287713,0.0,0,False
2022-08-14,1.0567436615287713,1.0567436615287713,0.0,0,False
2022-08-15,1.0567436615287713,1.0567436615287713,0.0,0,False
2022-08-16,1.0567436615287713,1.0567436615287713,0.0,0,False
2022-08-17,1.0567436615287713,1.0567436615287713,0.0,0,False
2022-08-18,1.0567436615287713,1.0567436615287713,0.0,0,False
2022-08-19,1.0567436615287713,1.0567436615287713,0.0,0,False
2022-08-20,1.0567436615287713,1.0567436615287713,0.0,0,False
2022-08-21,1.0567436615287713,1.0567436615287713,0.0,0,False
2022-08-22,1.0567436615287713,1.0567436615287713,0.0,0,False
2022-08-23,1.0567436615287713,1.0567436615287713,0.0,0,False
2022-08-24,1.0567436615287713,1.0567436615287713,0.0,0,False
2022-08-25,1.0567436615287713,1.0567436615287713,0.0,0,False
2022-08-26,1.0567436615287713,1.0567436615287713,0.0,0,False
2022-08-27,1.0567436615287713,1.0567436615287713,0.0,0,False
2022-08-28,1.0567436615287713,1.0567436615287713,0.0,0,False
2022-08-29,1.0567436615287713,1.0567436615287713,0.0,0,False
2022-08-30,1.0567436615287713,1.0567436615287713,0.0,0,False
2022-08-31,1.0567436615287713,1.0567436615287713,0.0,0,False
2022-09-01,1.0567436615287713,1.0567436615287713,0.0,0,False
2022-09-02,1.0567436615287713,1.0567436615287713,0.0,0,False
2022-09-03,1.0567436615287713,1.0567436615287713,0.0,0,False
2022-09-04,1.0567436615287713,1.0567436615287713,0.0,0,False
2022-09-05,1.0567436615287713,1.0567436615287713,0.0,0,False
2022-09-06,1.0567436615287713,1.0567436615287713,0.0,0,False
2022-09-07,1.0567436615287713,1.0567436615287713,0.0,0,False
2022-09-08,1.0567436615287713,1.0567436615287713,0.0,0,False
2022-09-09,1.0567436615287713,1.0567436615287713,0.0,0,False
2022-09-10,1.0567436615287713,1.0567436615287713,0.0,0,False
2022-09-11,1.0567436615287713,1.0567436615287713,0.0,0,False
2022-09-12,1.0567436615287713,1.0567436615287713,0.0,0,False
2022-09-13,1.0567436615287713,1.0567436615287713,0.0,0,False
2022-09-14,1.0567436615287713,1.0567436615287713,0.0,0,False
2022-09-15,1.0567436615287713,1.0567436615287713,0.0,0,False
2022-09-16,1.0567436615287713,1.0567436615287713,0.0,0,False
2022-09-17,1.0567436615287713,1.0567436615287713,0.0,0,False
2022-09-18,1.0567436615287713,1.0567436615287713,0.0,0,False
2022-09-19,1.0567436615287713,1.0567436615287713,0.0,0,False
2022-09-20,1.0567436615287713,1.0567436615287713,0.0,0,False
2022-09-21,1.0567436615287713,1.0567436615287713,0.0,0,False
2022-09-22,1.0567436615287713,1.0567436615287713,0.0,0,False
2022-09-23,1.0567436615287713,1.0567436615287713,0.0,0,False
2022-09-24,1.0567436615287713,1.0567436615287713,0.0,0,False
2022-09-25,1.0567436615287713,1.0567436615287713,0.0,0,False
2022-09-26,1.0567436615287713,1.0567436615287713,0.0,0,False
2022-09-27,1.0567436615287713,1.0567436615287713,0.0,0,False
2022-09-28,1.0567436615287713,1.0567436615287713,0.0,0,False
2022-09-29,1.0567436615287713,1.0567436615287713,0.0,0,False
2022-09-30,1.0567436615287713,1.0567436615287713,0.0,0,False
2022-10-01,1.0567436615287713,1.0567436615287713,0.0,0,False
2022-10-02,1.0567436615287713,1.0567436615287713,0.0,0,False
2022-10-03,1.0567436615287713,1.0567436615287713,0.0,0,False
2022-10-04,1.0567436615287713,1.0567436615287713,0.0,0,False
2022-10-05,1.0567436615287713,1.0567436615287713,0.0,0,False
2022-10-06,1.0567436615287713,1.0567436615287713,0.0,0,False
2022-10-07,1.0567436615287713,1.0567436615287713,0.0,0,False
2022-10-08,1.0567436615287713,1.0567436615287713,0.0,0,False
2022-10-09,1.0567436615287713,1.0567436615287713,0.0,0,False
2022-10-10,1.0567436615287713,1.0567436615287713,0.0,0,False
2022-10-11,1.0567436615287713,1.0567436615287713,0.0,0,False
2022-10-12,1.0567436615287713,1.0567436615287713,0.0,0,False
2022-10-13,1.0567436615287713,1.0567436615287713,0.0,0,False
2022-10-14,1.0567436615287713,1.0567436615287713,0.0,0,False
2022-10-15,1.0567436615287713,1.0567436615287713,0.0,0,False
2022-10-16,1.0567436615287713,1.0567436615287713,0.0,0,False
2022-10-17,1.0567436615287713,1.0567436615287713,0.0,0,False
2022-10-18,1.0567436615287713,1.0567436615287713,0.0,0,False
2022-10-19,1.0567436615287713,1.0567436615287713,0.0,0,False
2022-10-20,1.0567436615287713,1.0567436615287713,0.0,0,False
2022-10-21,1.0567436615287713,1.0567436615287713,0.0,0,False
2022-10-22,1.0567436615287713,1.0567436615287713,0.0,0,False
2022-10-23,1.0567436615287713,1.0567436615287713,0.0,0,False
2022-10-24,1.0567436615287713,1.0567436615287713,0.0,0,False
2022-10-25,1.0567436615287713,1.0567436615287713,0.0,0,False
2022-10-26,1.0567436615287713,1.0567436615287713,0.0,0,False
2022-10-27,1.0567436615287713,1.0567436615287713,0.0,0,False
2022-10-28,1.0567436615287713,1.0567436615287713,0.0,0,False
2022-10-29,1.0567436615287713,1.0567436615287713,0.0,0,False
2022-10-30,1.0567436615287713,1.0567436615287713,0.0,0,False
2022-10-31,1.0567436615287713,1.0567436615287713,0.0,0,False
2022-11-01,1.0567436615287713,1.0567436615287713,0.0,0,False
2022-11-02,1.0567436615287713,1.0567436615287713,0.0,0,False
2022-11-03,1.0567436615287713,1.0567436615287713,0.0,0,False
2022-11-04,1.0567436615287713,1.0567436615287713,0.0,0,False
2022-11-05,1.0567436615287713,1.0567436615287713,0.0,0,False
2022-11-06,1.0567436615287713,1.0567436615287713,0.0,0,False
2022-11-07,1.0567436615287713,1.0567436615287713,0.0,0,False
2022-11-08,1.0567436615287713,1.0567436615287713,0.0,0,False
2022-11-09,1.0567436615287713,1.0567436615287713,0.0,0,False
2022-11-10,1.0567436615287713,1.0567436615287713,0.0,0,False
2022-11-11,1.0567436615287713,1.0567436615287713,0.0,0,False
2022-11-12,1.0567436615287713,1.0567436615287713,0.0,0,False
2022-11-13,1.0567436615287713,1.0567436615287713,0.0,0,False
2022-11-14,1.0567436615287713,1.0567436615287713,0.0,0,False
2022-11-15,1.0567436615287713,1.0567436615287713,0.0,0,False
2022-11-16,1.0567436615287713,1.0567436615287713,0.0,0,False
2022-11-17,1.0567436615287713,1.0567436615287713,0.0,0,False
2022-11-18,1.0567436615287713,1.0567436615287713,0.0,0,False
2022-11-19,1.0567436615287713,1.0567436615287713,0.0,0,False
2022-11-20,1.0567436615287713,1.0567436615287713,0.0,0,False
2022-11-21,1.0567436615287713,1.0567436615287713,0.0,0,False
2022-11-22,1.0567436615287713,1.0567436615287713,0.0,0,False
2022-11-23,1.0567436615287713,1.0567436615287713,0.0,0,False
2022-11-24,1.0567436615287713,1.0567436615287713,0.0,0,False
2022-11-25,1.0567436615287713,1.0567436615287713,0.0,0,False
2022-11-26,1.0567436615287713,1.0567436615287713,0.0,0,False
2022-11-27,1.0567436615287713,1.0567436615287713,0.0,0,False
2022-11-28,1.0567436615287713,1.0567436615287713,0.0,0,False
2022-11-29,1.0567436615287713,1.0567436615287713,0.0,0,False
2022-11-30,1.0567436615287713,1.0567436615287713,0.0,0,False
2022-12-01,1.0567436615287713,1.0567436615287713,0.0,0,False
2022-12-02,1.0567436615287713,1.0567436615287713,0.0,0,False
2022-12-03,1.0567436615287713,1.0567436615287713,0.0,0,False
2022-12-04,1.0567436615287713,1.0567436615287713,0.0,0,False
2022-12-05,1.0567436615287713,1.0567436615287713,0.0,0,False
2022-12-06,1.0567436615287713,1.0567436615287713,0.0,0,False
2022-12-07,1.0567436615287713,1.0567436615287713,0.0,0,False
2022-12-08,1.0567436615287713,1.0567436615287713,0.0,0,False
2022-12-09,1.0567436615287713,1.0567436615287713,0.0,0,False
2022-12-10,1.0567436615287713,1.0567436615287713,0.0,0,False
2022-12-11,1.0567436615287713,1.0567436615287713,0.0,0,False
2022-12-12,1.0567436615287713,1.0567436615287713,0.0,0,False
2022-12-13,1.0567436615287713,1.0567436615287713,0.0,0,False
2022-12-14,1.0567436615287713,1.0567436615287713,0.0,0,False
2022-12-15,1.0567436615287713,1.0567436615287713,0.0,0,False
2022-12-16,1.0567436615287713,1.0567436615287713,0.0,0,False
2022-12-17,1.0567436615287713,1.0567436615287713,0.0,0,False
2022-12-18,1.0567436615287713,1.0567436615287713,0.0,0,False
2022-12-19,1.0567436615287713,1.0567436615287713,0.0,0,False
2022-12-20,1.0567436615287713,1.0567436615287713,0.0,0,False
2022-12-21,1.0567436615287713,1.0567436615287713,0.0,0,False
2022-12-22,1.0567436615287713,1.0567436615287713,0.0,0,False
2022-12-23,1.0567436615287713,1.0567436615287713,0.0,0,False
2022-12-24,1.0567436615287713,1.0567436615287713,0.0,0,False
2022-12-25,1.0567436615287713,1.0567436615287713,0.0,0,False
2022-12-26,1.0567436615287713,1.0567436615287713,0.0,0,False
2022-12-27,1.0567436615287713,1.0567436615287713,0.0,0,False
2022-12-28,1.0567436615287713,1.0567436615287713,0.0,0,False
2022-12-29,1.0567436615287713,1.0567436615287713,0.0,0,False
2022-12-30,1.0567436615287713,1.0567436615287713,0.0,0,False
2022-12-31,1.0567436615287713,1.0567436615287713,0.0,0,False
2023-01-01,1.0567436615287713,1.0567436615287713,0.0,0,False
2023-01-02,1.0567436615287713,1.0567436615287713,0.0,0,False
2023-01-03,1.0567436615287713,1.0567436615287713,0.0,0,False
2023-01-04,1.0567436615287713,1.0567436615287713,0.0,0,False
2023-01-05,1.0567436615287713,1.0567436615287713,0.0,0,False
2023-01-06,1.0567436615287713,1.0567436615287713,0.0,0,False
2023-01-07,1.0567436615287713,1.0567436615287713,0.0,0,False
2023-01-08,1.0567436615287713,1.0567436615287713,0.0,0,False
2023-01-09,1.0567436615287713,1.0567436615287713,0.0,0,False
2023-01-10,1.0567436615287713,1.0567436615287713,0.0,0,False
2023-01-11,1.0567436615287713,1.0567436615287713,0.0,0,False
2023-01-12,1.0567436615287713,1.0567436615287713,0.0,0,False
2023-01-13,1.0567436615287713,1.0567436615287713,0.0,0,False
2023-01-14,1.0567436615287713,1.0567436615287713,0.0,0,False
2023-01-15,1.0567436615287713,1.0567436615287713,0.0,0,False
2023-01-16,1.0567436615287713,1.0567436615287713,0.0,0,False
2023-01-17,1.0567436615287713,1.0567436615287713,0.0,0,False
2023-01-18,1.0567436615287713,1.0567436615287713,0.0,0,False
2023-01-19,1.0567436615287713,1.0567436615287713,0.0,0,False
2023-01-20,1.0567436615287713,1.0567436615287713,0.0,0,False
2023-01-21,1.0567436615287713,1.0567436615287713,0.0,0,False
2023-01-22,1.0567436615287713,1.0567436615287713,0.0,0,False
2023-01-23,1.0567436615287713,1.0567436615287713,0.0,0,False
2023-01-24,1.0567436615287713,1.0567436615287713,0.0,0,False
2023-01-25,1.0567436615287713,1.0567436615287713,0.0,0,False
2023-01-26,1.0567436615287713,1.0567436615287713,0.0,0,False
2023-01-27,1.0567436615287713,1.0567436615287713,0.0,0,False
2023-01-28,1.0567436615287713,1.0567436615287713,0.0,0,False
2023-01-29,1.0567436615287713,1.0567436615287713,0.0,0,False
2023-01-30,1.0567436615287713,1.0567436615287713,0.0,0,False
2023-01-31,1.0567436615287713,1.0567436615287713,0.0,0,False
2023-02-01,1.0567436615287713,1.0567436615287713,0.0,0,False
2023-02-02,1.0567436615287713,1.0567436615287713,0.0,0,False
2023-02-03,1.0567436615287713,1.0567436615287713,0.0,0,False
2023-02-04,1.0567436615287713,1.0567436615287713,0.0,0,False
2023-02-05,1.0567436615287713,1.0567436615287713,0.0,0,False
2023-02-06,1.0567436615287713,1.0567436615287713,0.0,0,False
2023-02-07,1.0567436615287713,1.0567436615287713,0.0,0,False
2023-02-08,1.0567436615287713,1.0567436615287713,0.0,0,False
2023-02-09,1.0567436615287713,1.0567436615287713,0.0,0,False
2023-02-10,1.0567436615287713,1.0567436615287713,0.0,0,False
2023-02-11,1.0567436615287713,1.0567436615287713,0.0,0,False
2023-02-12,1.0567436615287713,1.0567436615287713,0.0,0,False
2023-02-13,1.0567436615287713,1.0567436615287713,0.0,0,False
2023-02-14,1.0567436615287713,1.0567436615287713,0.0,0,False
2023-02-15,1.0567436615287713,1.0567436615287713,0.0,0,False
2023-02-16,1.0567436615287713,1.0567436615287713,0.0,0,False
2023-02-17,1.0567436615287713,1.0567436615287713,0.0,0,False
2023-02-18,1.0567436615287713,1.0567436615287713,0.0,0,False
2023-02-19,1.0567436615287713,1.0567436615287713,0.0,0,False
2023-02-20,1.0567436615287713,1.0567436615287713,0.0,0,False
2023-02-21,1.0567436615287713,1.0567436615287713,0.0,0,False
2023-02-22,1.0567436615287713,1.0567436615287713,0.0,0,False
2023-02-23,1.0567436615287713,1.0567436615287713,0.0,0,False
2023-02-24,1.0567436615287713,1.0567436615287713,0.0,0,False
2023-02-25,1.0567436615287713,1.0567436615287713,0.0,0,False
2023-02-26,1.0567436615287713,1.0567436615287713,0.0,0,False
2023-02-27,1.0567436615287713,1.0567436615287713,0.0,0,False
2023-02-28,1.0567436615287713,1.0567436615287713,0.0,0,False
2023-03-01,1.0567436615287713,1.0567436615287713,0.0,0,False
2023-03-02,1.0567436615287713,1.0567436615287713,0.0,0,False
2023-03-03,1.0567436615287713,1.0567436615287713,0.0,0,False
2023-03-04,1.0567436615287713,1.0567436615287713,0.0,0,False
2023-03-05,1.0567436615287713,1.0567436615287713,0.0,0,False
2023-03-06,1.0567436615287713,1.0567436615287713,0.0,0,False
2023-03-07,1.0567436615287713,1.0567436615287713,0.0,0,False
2023-03-08,1.0567436615287713,1.0567436615287713,0.0,0,False
2023-03-09,1.0567436615287713,1.0567436615287713,0.0,0,False
2023-03-10,1.0567436615287713,1.0567436615287713,0.0,0,False
2023-03-11,1.0567436615287713,1.0567436615287713,0.0,0,False
2023-03-12,1.0567436615287713,1.0567436615287713,0.0,0,False
2023-03-13,1.0567436615287713,1.0567436615287713,0.0,0,False
2023-03-14,1.0567436615287713,1.0567436615287713,0.0,0,False
2023-03-15,1.0567436615287713,1.0567436615287713,0.0,0,False
2023-03-16,1.0567436615287713,1.0567436615287713,0.0,0,False
2023-03-17,1.0567436615287713,1.0567436615287713,0.0,0,False
2023-03-18,1.0567436615287713,1.0567436615287713,0.0,0,False
2023-03-19,1.0567436615287713,1.0567436615287713,0.0,0,False
2023-03-20,1.0567436615287713,1.0567436615287713,0.0,0,False
2023-03-21,1.0567436615287713,1.0567436615287713,0.0,0,False
2023-03-22,1.0567436615287713,1.0567436615287713,0.0,0,False
2023-03-23,1.0567436615287713,1.0567436615287713,0.0,0,False
2023-03-24,1.0567436615287713,1.0567436615287713,0.0,0,False
2023-03-25,1.0567436615287713,1.0567436615287713,0.0,0,False
2023-03-26,1.0567436615287713,1.0567436615287713,0.0,0,False
2023-03-27,1.0567436615287713,1.0567436615287713,0.0,0,False
2023-03-28,1.0567436615287713,1.0567436615287713,0.0,0,False
2023-03-29,1.0567436615287713,1.0567436615287713,0.0,0,False
2023-03-30,1.0567436615287713,1.0567436615287713,0.0,0,False
2023-03-31,1.0567436615287713,1.0567436615287713,0.0,0,False
2023-04-01,1.0567436615287713,1.0567436615287713,0.0,0,False
2023-04-02,1.0567436615287713,1.0567436615287713,0.0,0,False
2023-04-03,1.0567436615287713,1.0567436615287713,0.0,0,False
2023-04-04,1.0567436615287713,1.0567436615287713,0.0,0,False
2023-04-05,1.0567436615287713,1.0567436615287713,0.0,0,False
2023-04-06,1.0567436615287713,1.0567436615287713,0.0,0,False
2023-04-07,1.0567436615287713,1.0567436615287713,0.0,0,False
2023-04-08,1.0567436615287713,1.0567436615287713,0.0,0,False
2023-04-09,1.0567436615287713,1.0567436615287713,0.0,0,False
2023-04-10,1.0567436615287713,1.0567436615287713,0.0,0,False
2023-04-11,1.0567436615287713,1.0567436615287713,0.0,0,False
2023-04-12,1.0567436615287713,1.0567436615287713,0.0,0,False
2023-04-13,1.0567436615287713,1.0567436615287713,0.0,0,False
2023-04-14,1.0567436615287713,1.0567436615287713,0.0,0,False
2023-04-15,1.0567436615287713,1.0567436615287713,0.0,0,False
2023-04-16,1.0567436615287713,1.0567436615287713,0.0,0,False
2023-04-17,1.0567436615287713,1.0567436615287713,0.0,0,False
2023-04-18,1.0567436615287713,1.0567436615287713,0.0,0,False
2023-04-19,1.0567436615287713,1.0567436615287713,0.0,0,False
2023-04-20,1.0567436615287713,1.0567436615287713,0.0,0,False
2023-04-21,1.0567436615287713,1.0567436615287713,0.0,0,False
2023-04-22,1.0567436615287713,1.0567436615287713,0.0,0,False
2023-04-23,1.0567436615287713,1.0567436615287713,0.0,0,False
2023-04-24,1.0567436615287713,1.0567436615287713,0.0,0,False
2023-04-25,1.0567436615287713,1.0567436615287713,0.0,0,False
2023-04-26,1.0567436615287713,1.0567436615287713,0.0,0,False
2023-04-27,1.0567436615287713,1.0567436615287713,0.0,0,False
2023-04-28,1.0567436615287713,1.0567436615287713,0.0,0,False
2023-04-29,1.0567436615287713,1.0567436615287713,0.0,0,False
2023-04-30,1.0567436615287713,1.0567436615287713,0.0,0,False
2023-05-01,1.0567436615287713,1.0567436615287713,0.0,0,False
2023-05-02,1.0567436615287713,1.0567436615287713,0.0,0,False
2023-05-03,1.0567436615287713,1.0567436615287713,0.0,0,False
2023-05-04,1.0567436615287713,1.0567436615287713,0.0,0,False
2023-05-05,1.0567436615287713,1.0567436615287713,0.0,0,False
2023-05-06,1.0567436615287713,1.0567436615287713,0.0,0,False
2023-05-07,1.0567436615287713,1.0567436615287713,0.0,0,False
2023-05-08,1.0567436615287713,1.0567436615287713,0.0,0,False
2023-05-09,1.0567436615287713,1.0567436615287713,0.0,0,False
2023-05-10,1.0567436615287713,1.0567436615287713,0.0,0,False
2023-05-11,1.0567436615287713,1.0567436615287713,0.0,0,False
2023-05-12,1.0567436615287713,1.0567436615287713,0.0,0,False
2023-05-13,1.0567436615287713,1.0567436615287713,0.0,0,False
2023-05-14,1.0567436615287713,1.0567436615287713,0.0,0,False
2023-05-15,1.0567436615287713,1.0567436615287713,0.0,0,False
2023-05-16,1.0567436615287713,1.0567436615287713,0.0,0,False
2023-05-17,1.0567436615287713,1.0567436615287713,0.0,0,False
2023-05-18,1.0567436615287713,1.0567436615287713,0.0,0,False
2023-05-19,1.0567436615287713,1.0567436615287713,0.0,0,False
2023-05-20,1.0567436615287713,1.0567436615287713,0.0,0,False
2023-05-21,1.0567436615287713,1.0567436615287713,0.0,0,False
2023-05-22,1.0567436615287713,1.0567436615287713,0.0,0,False
2023-05-23,1.0567436615287713,1.0567436615287713,0.0,0,False
2023-05-24,1.0567436615287713,1.0567436615287713,0.0,0,False
2023-05-25,1.0567436615287713,1.0567436615287713,0.0,0,False
2023-05-26,1.0567436615287713,1.0567436615287713,0.0,0,False
2023-05-27,1.0567436615287713,1.0567436615287713,0.0,0,False
2023-05-28,1.0567436615287713,1.0567436615287713,0.0,0,False
2023-05-29,1.0567436615287713,1.0567436615287713,0.0,0,False
2023-05-30,1.0567436615287713,1.0567436615287713,0.0,0,False
2023-05-31,1.0567436615287713,1.0567436615287713,0.0,0,False
2023-06-01,1.0567436615287713,1.0567436615287713,0.0,0,False
2023-06-02,1.0567436615287713,1.0567436615287713,0.0,0,False
2023-06-03,1.0567436615287713,1.0567436615287713,0.0,0,False
2023-06-04,1.0567436615287713,1.0567436615287713,0.0,0,False
2023-06-05,1.0567436615287713,1.0567436615287713,0.0,0,False
2023-06-06,1.0567436615287713,1.0567436615287713,0.0,0,False
2023-06-07,1.0567436615287713,1.0567436615287713,0.0,0,False
2023-06-08,1.0567436615287713,1.0567436615287713,0.0,0,False
2023-06-09,1.0567436615287713,1.0567436615287713,0.0,0,False
2023-06-10,1.0567436615287713,1.0567436615287713,0.0,0,False
2023-06-11,1.0567436615287713,1.0567436615287713,0.0,0,False
2023-06-12,1.0567436615287713,1.0567436615287713,0.0,0,False
2023-06-13,1.0567436615287713,1.0567436615287713,0.0,0,False
2023-06-14,1.0567436615287713,1.0567436615287713,0.0,0,False
2023-06-15,1.0567436615287713,1.0567436615287713,0.0,0,False
2023-06-16,1.0567436615287713,1.0567436615287713,0.0,0,False
2023-06-17,1.0567436615287713,1.0567436615287713,0.0,0,False
2023-06-18,1.0567436615287713,1.0567436615287713,0.0,0,False
2023-06-19,1.0567436615287713,1.0567436615287713,0.0,0,False
2023-06-20,1.0567436615287713,1.0567436615287713,0.0,0,False
2023-06-21,1.0567436615287713,1.0567436615287713,0.0,0,False
2023-06-22,1.0567436615287713,1.0567436615287713,0.0,0,False
2023-06-23,1.0567436615287713,1.0567436615287713,0.0,0,False
2023-06-24,1.0567436615287713,1.0567436615287713,0.0,0,False
2023-06-25,1.0567436615287713,1.0567436615287713,0.0,0,False
2023-06-26,1.0567436615287713,1.0567436615287713,0.0,0,False
2023-06-27,1.0567436615287713,1.0567436615287713,0.0,0,False
2023-06-28,1.0567436615287713,1.0567436615287713,0.0,0,False
2023-06-29,1.0567436615287713,1.0567436615287713,0.0,0,False
2023-06-30,1.0567436615287713,1.0567436615287713,0.0,0,False
2023-07-01,1.0567436615287713,1.0567436615287713,0.0,0,False
2023-07-02,1.0567436615287713,1.0567436615287713,0.0,0,False
2023-07-03,1.0567436615287713,1.0567436615287713,0.0,0,False
2023-07-04,1.0567436615287713,1.0567436615287713,0.0,0,False
2023-07-05,1.0567436615287713,1.0567436615287713,0.0,0,False
2023-07-06,1.0567436615287713,1.0567436615287713,0.0,0,False
2023-07-07,1.0567436615287713,1.0567436615287713,0.0,0,False
2023-07-08,1.0567436615287713,1.0567436615287713,0.0,0,False
2023-07-09,1.0567436615287713,1.0567436615287713,0.0,0,False
2023-07-10,1.0567436615287713,1.0567436615287713,0.0,0,False
2023-07-11,1.0567436615287713,1.0567436615287713,0.0,0,False
2023-07-12,1.0567436615287713,1.0567436615287713,0.0,0,False
2023-07-13,1.0567436615287713,1.0567436615287713,0.0,0,False
2023-07-14,1.0567436615287713,1.0567436615287713,0.0,0,False
2023-07-15,1.0567436615287713,1.0567436615287713,0.0,0,False
2023-07-16,1.0567436615287713,1.0567436615287713,0.0,0,False
2023-07-17,1.0567436615287713,1.0567436615287713,0.0,0,False
2023-07-18,1.0567436615287713,1.0567436615287713,0.0,0,False
2023-07-19,1.0567436615287713,1.0567436615287713,0.0,0,False
2023-07-20,1.0567436615287713,1.0567436615287713,0.0,0,False
2023-07-21,1.0567436615287713,1.0567436615287713,0.0,0,False
2023-07-22,1.0567436615287713,1.0567436615287713,0.0,0,False
2023-07-23,1.0567436615287713,1.0567436615287713,0.0,0,False
2023-07-24,1.0567436615287713,1.0567436615287713,0.0,0,False
2023-07-25,1.0567436615287713,1.0567436615287713,0.0,0,False
2023-07-26,1.0567436615287713,1.0567436615287713,0.0,0,False
2023-07-27,1.0567436615287713,1.0567436615287713,0.0,0,False
2023-07-28,1.0567436615287713,1.0567436615287713,0.0,0,False
2023-07-29,1.0567436615287713,1.0567436615287713,0.0,0,False
2023-07-30,1.0567436615287713,1.0567436615287713,0.0,0,False
2023-07-31,1.0567436615287713,1.0567436615287713,0.0,0,False
2023-08-01,1.0567436615287713,1.0567436615287713,0.0,0,False
2023-08-02,1.0567436615287713,1.0567436615287713,0.0,0,False
2023-08-03,1.0567436615287713,1.0567436615287713,0.0,0,False
2023-08-04,1.0567436615287713,1.0567436615287713,0.0,0,False
2023-08-05,1.0567436615287713,1.0567436615287713,0.0,0,False
2023-08-06,1.0567436615287713,1.0567436615287713,0.0,0,False
2023-08-07,1.0567436615287713,1.0567436615287713,0.0,0,False
2023-08-08,1.0567436615287713,1.0567436615287713,0.0,0,False
2023-08-09,1.0567436615287713,1.0567436615287713,0.0,0,False
2023-08-10,1.0567436615287713,1.0567436615287713,0.0,0,False
2023-08-11,1.0567436615287713,1.0567436615287713,0.0,0,False
2023-08-12,1.0567436615287713,1.0567436615287713,0.0,0,False
2023-08-13,1.0567436615287713,1.0567436615287713,0.0,0,False
2023-08-14,1.0567436615287713,1.0567436615287713,0.0,0,False
2023-08-15,1.0567436615287713,1.0567436615287713,0.0,0,False
2023-08-16,1.0567436615287713,1.0567436615287713,0.0,0,False
2023-08-17,1.0567436615287713,1.0567436615287713,0.0,0,False
2023-08-18,1.0567436615287713,1.0567436615287713,0.0,0,False
2023-08-19,1.0567436615287713,1.0567436615287713,0.0,0,False
2023-08-20,1.0567436615287713,1.0567436615287713,0.0,0,False
2023-08-21,1.0567436615287713,1.0567436615287713,0.0,0,False
2023-08-22,1.0567436615287713,1.0567436615287713,0.0,0,False
2023-08-23,1.0567436615287713,1.0567436615287713,0.0,0,False
2023-08-24,1.0567436615287713,1.0567436615287713,0.0,0,False
2023-08-25,1.0567436615287713,1.0567436615287713,0.0,0,False
2023-08-26,1.0567436615287713,1.0567436615287713,0.0,0,False
2023-08-27,1.0567436615287713,1.0567436615287713,0.0,0,False
2023-08-28,1.0567436615287713,1.0567436615287713,0.0,0,False
2023-08-29,1.0567436615287713,1.0567436615287713,0.0,0,False
2023-08-30,1.0567436615287713,1.0567436615287713,0.0,0,False
2023-08-31,1.0567436615287713,1.0567436615287713,0.0,0,False
2023-09-01,1.0567436615287713,1.0567436615287713,0.0,0,False
2023-09-02,1.0567436615287713,1.0567436615287713,0.0,0,False
2023-09-03,1.0567436615287713,1.0567436615287713,0.0,0,False
2023-09-04,1.0567436615287713,1.0567436615287713,0.0,0,False
2023-09-05,1.0567436615287713,1.0567436615287713,0.0,0,False
2023-09-06,1.0567436615287713,1.0567436615287713,0.0,0,False
2023-09-07,1.0567436615287713,1.0567436615287713,0.0,0,False
2023-09-08,1.0567436615287713,1.0567436615287713,0.0,0,False
2023-09-09,1.0567436615287713,1.0567436615287713,0.0,0,False
2023-09-10,1.0567436615287713,1.0567436615287713,0.0,0,False
2023-09-11,1.0567436615287713,1.0567436615287713,0.0,0,False
2023-09-12,1.0567436615287713,1.0567436615287713,0.0,0,False
2023-09-13,1.0567436615287713,1.0567436615287713,0.0,0,False
2023-09-14,1.0567436615287713,1.0567436615287713,0.0,0,False
2023-09-15,1.0567436615287713,1.0567436615287713,0.0,0,False
2023-09-16,1.0567436615287713,1.0567436615287713,0.0,0,False
2023-09-17,1.0567436615287713,1.0567436615287713,0.0,0,False
2023-09-18,1.0567436615287713,1.0567436615287713,0.0,0,False
2023-09-19,1.0567436615287713,1.0567436615287713,0.0,0,False
2023-09-20,1.0567436615287713,1.0567436615287713,0.0,0,False
2023-09-21,1.0567436615287713,1.0567436615287713,0.0,0,False
2023-09-22,1.0567436615287713,1.0567436615287713,0.0,0,False
2023-09-23,1.0567436615287713,1.0567436615287713,0.0,0,False
2023-09-24,1.0567436615287713,1.0567436615287713,0.0,0,False
2023-09-25,1.0567436615287713,1.0567436615287713,0.0,0,False
2023-09-26,1.0567436615287713,1.0567436615287713,0.0,0,False
2023-09-27,1.0567436615287713,1.0567436615287713,0.0,0,False
2023-09-28,1.0567436615287713,1.0567436615287713,0.0,0,False
2023-09-29,1.0567436615287713,1.0567436615287713,0.0,0,False
2023-09-30,1.0567436615287713,1.0567436615287713,0.0,0,False
2023-10-01,1.0567436615287713,1.0567436615287713,0.0,0,False
2023-10-02,1.0567436615287713,1.0567436615287713,0.0,0,False
2023-10-03,1.0567436615287713,1.0567436615287713,0.0,0,False
2023-10-04,1.0567436615287713,1.0567436615287713,0.0,0,False
2023-10-05,1.0567436615287713,1.0567436615287713,0.0,0,False
2023-10-06,1.0567436615287713,1.0567436615287713,0.0,0,False
2023-10-07,1.0567436615287713,1.0567436615287713,0.0,0,False
2023-10-08,1.0567436615287713,1.0567436615287713,0.0,0,False
2023-10-09,1.0567436615287713,1.0567436615287713,0.0,0,False
2023-10-10,1.0567436615287713,1.0567436615287713,0.0,0,False
2023-10-11,1.0567436615287713,1.0567436615287713,0.0,0,False
2023-10-12,1.0567436615287713,1.0567436615287713,0.0,0,False
2023-10-13,1.0567436615287713,1.0567436615287713,0.0,0,False
2023-10-14,1.0567436615287713,1.0567436615287713,0.0,0,False
2023-10-15,1.0567436615287713,1.0567436615287713,0.0,0,False
2023-10-16,1.0567436615287713,1.0567436615287713,0.0,0,False
2023-10-17,1.0567436615287713,1.0567436615287713,0.0,0,False
2023-10-18,1.0567436615287713,1.0567436615287713,0.0,0,False
2023-10-19,1.0567436615287713,1.0567436615287713,0.0,0,False
2023-10-20,1.0567436615287713,1.0567436615287713,0.0,0,False
2023-10-21,1.0567436615287713,1.0567436615287713,0.0,0,False
2023-10-22,1.0567436615287713,1.0567436615287713,0.0,0,False
2023-10-23,1.0567436615287713,1.0567436615287713,0.0,0,False
2023-10-24,1.0567436615287713,1.0567436615287713,0.0,0,False
2023-10-25,1.0567436615287713,1.0567436615287713,0.0,0,False
2023-10-26,1.0567436615287713,1.0567436615287713,0.0,0,False
2023-10-27,1.0567436615287713,1.0567436615287713,0.0,0,False
2023-10-28,1.0567436615287713,1.0567436615287713,0.0,0,False
2023-10-29,1.0567436615287713,1.0567436615287713,0.0,0,False
2023-10-30,1.0567436615287713,1.0567436615287713,0.0,0,False
2023-10-31,1.0567436615287713,1.0567436615287713,0.0,0,False
2023-11-01,1.0567436615287713,1.0567436615287713,0.0,0,False
2023-11-02,1.0567436615287713,1.0567436615287713,0.0,0,False
2023-11-03,1.0567436615287713,1.0567436615287713,0.0,0,False
2023-11-04,1.0567436615287713,1.0567436615287713,0.0,0,False
2023-11-05,1.0567436615287713,1.0567436615287713,0.0,0,False
2023-11-06,1.0567436615287713,1.0567436615287713,0.0,0,False
2023-11-07,1.0567436615287713,1.0567436615287713,0.0,0,False
2023-11-08,1.0567436615287713,1.0567436615287713,0.0,0,False
2023-11-09,1.0567436615287713,1.0567436615287713,0.0,0,False
2023-11-10,1.0567436615287713,1.0567436615287713,0.0,0,False
2023-11-11,1.0567436615287713,1.0567436615287713,0.0,0,False
2023-11-12,1.0567436615287713,1.0567436615287713,0.0,0,False
2023-11-13,1.0567436615287713,1.0567436615287713,0.0,0,False
2023-11-14,1.0567436615287713,1.0567436615287713,0.0,0,False
2023-11-15,1.0567436615287713,1.0567436615287713,0.0,0,False
2023-11-16,1.0567436615287713,1.0567436615287713,0.0,0,False
2023-11-17,1.0567436615287713,1.0567436615287713,0.0,0,False
2023-11-18,1.0567436615287713,1.0567436615287713,0.0,0,False
2023-11-19,1.0567436615287713,1.0567436615287713,0.0,0,False
2023-11-20,1.0567436615287713,1.0567436615287713,0.0,0,False
2023-11-21,1.0567436615287713,1.0567436615287713,0.0,0,False
2023-11-22,1.0567436615287713,1.0567436615287713,0.0,0,False
2023-11-23,1.0567436615287713,1.0567436615287713,0.0,0,False
2023-11-24,1.0567436615287713,1.0567436615287713,0.0,0,False
2023-11-25,1.0567436615287713,1.0567436615287713,0.0,0,False
2023-11-26,1.0567436615287713,1.0567436615287713,0.0,0,False
2023-11-27,1.0567436615287713,1.0567436615287713,0.0,0,False
2023-11-28,1.0567436615287713,1.0567436615287713,0.0,0,False
2023-11-29,1.0567436615287713,1.0567436615287713,0.0,0,False
2023-11-30,1.0567436615287713,1.0567436615287713,0.0,0,False
2023-12-01,1.0567436615287713,1.0567436615287713,0.0,0,False
2023-12-02,1.0567436615287713,1.0567436615287713,0.0,0,False
2023-12-03,1.0567436615287713,1.0567436615287713,0.0,0,False
2023-12-04,1.0567436615287713,1.0567436615287713,0.0,0,False
2023-12-05,1.0567436615287713,1.0567436615287713,0.0,0,False
2023-12-06,1.0567436615287713,1.0567436615287713,0.0,0,False
2023-12-07,1.0567436615287713,1.0567436615287713,0.0,0,False
2023-12-08,1.0567436615287713,1.0567436615287713,0.0,0,False
2023-12-09,1.0567436615287713,1.0567436615287713,0.0,0,False
2023-12-10,1.0567436615287713,1.0567436615287713,0.0,0,False
2023-12-11,1.0567436615287713,1.0567436615287713,0.0,0,False
2023-12-12,1.0567436615287713,1.0567436615287713,0.0,0,False
2023-12-13,1.0567436615287713,1.0567436615287713,0.0,0,False
2023-12-14,1.0567436615287713,1.0567436615287713,0.0,0,False
2023-12-15,1.0567436615287713,1.0567436615287713,0.0,0,False
2023-12-16,1.0567436615287713,1.0567436615287713,0.0,0,False
2023-12-17,1.0567436615287713,1.0567436615287713,0.0,0,False
2023-12-18,1.0567436615287713,1.0567436615287713,0.0,0,False
2023-12-19,1.0567436615287713,1.0567436615287713,0.0,0,False
2023-12-20,1.0567436615287713,1.0567436615287713,0.0,0,False
2023-12-21,1.0567436615287713,1.0567436615287713,0.0,0,False
2023-12-22,1.0567436615287713,1.0567436615287713,0.0,0,False
2023-12-23,1.0567436615287713,1.0567436615287713,0.0,0,False
2023-12-24,1.0567436615287713,1.0567436615287713,0.0,0,False
2023-12-25,1.0567436615287713,1.0567436615287713,0.0,0,False
2023-12-26,1.0567436615287713,1.0567436615287713,0.0,0,False
2023-12-27,1.0567436615287713,1.0567436615287713,0.0,0,False
2023-12-28,1.0567436615287713,1.0567436615287713,0.0,0,False
2023-12-29,1.0567436615287713,1.0567436615287713,0.0,0,False
2023-12-30,1.0567436615287713,1.0567436615287713,0.0,0,False
2023-12-31,1.0567436615287713,1.0567436615287713,0.0,0,False
