day,start_equity,end_equity,return_pct,entries,active
2021-09-02,1.0,1.0,0.0,0,False
2021-09-03,1.0,1.0,0.0,0,False
2021-09-04,1.0,1.0,0.0,0,False
2021-09-05,1.0,1.0,0.0,0,False
2021-09-06,1.0,1.0,0.0,0,False
2021-09-07,1.0,1.0,0.0,0,False
2021-09-08,1.0,1.0,0.0,0,False
2021-09-09,1.0,1.0,0.0,0,False
2021-09-10,1.0,1.0,0.0,0,False
2021-09-11,1.0,1.0,0.0,0,False
2021-09-12,1.0,1.0,0.0,0,False
2021-09-13,1.0,1.0,0.0,0,False
2021-09-14,1.0,1.0,0.0,0,False
2021-09-15,1.0,1.0,0.0,0,False
2021-09-16,1.0,1.0,0.0,0,False
2021-09-17,1.0,1.0,0.0,0,False
2021-09-18,1.0,1.0,0.0,0,False
2021-09-19,1.0,1.0,0.0,0,False
2021-09-20,1.0,1.0,0.0,0,False
2021-09-21,1.0,1.0,0.0,0,False
2021-09-22,1.0,1.0,0.0,0,False
2021-09-23,1.0,1.0,0.0,0,False
2021-09-24,1.0,1.0,0.0,0,False
2021-09-25,1.0,1.0,0.0,0,False
2021-09-26,1.0,1.0,0.0,0,False
2021-09-27,1.0,1.0,0.0,0,False
2021-09-28,1.0,1.0,0.0,0,False
2021-09-29,1.0,1.0,0.0,0,False
2021-09-30,1.0,1.0,0.0,0,False
2021-10-01,1.0,1.0,0.0,0,False
2021-10-02,1.0,1.0,0.0,0,False
2021-10-03,1.0,1.0,0.0,0,False
2021-10-04,1.0,1.0,0.0,0,False
2021-10-05,1.0,1.0,0.0,0,False
2021-10-06,1.0,0.9900198357748151,-0.9980164225184884,2,True
2021-10-07,0.9900198357748151,0.9900198357748151,0.0,0,False
2021-10-08,0.9900198357748151,0.9900198357748151,0.0,0,False
2021-10-09,0.9900198357748151,0.9900198357748151,0.0,0,False
2021-10-10,0.9900198357748151,0.9900198357748151,0.0,0,False
2021-10-11,0.9900198357748151,0.9900198357748151,0.0,0,False
2021-10-12,0.9900198357748151,0.9900198357748151,0.0,0,False
2021-10-13,0.9900198357748151,0.9981921307374012,0.8254678004699034,1,True
2021-10-14,0.9981921307374012,0.9981921307374012,0.0,0,False
2021-10-15,0.9981921307374012,1.0019876668992072,0.38024104227329936,2,True
2021-10-16,1.0019876668992072,0.9919954823332635,-0.9972362830438675,2,True
2021-10-17,0.9919954823332635,0.9919954823332635,0.0,0,False
2021-10-18,0.9919954823332635,0.9919954823332635,0.0,0,False
2021-10-19,0.9919954823332635,0.9919954823332635,0.0,0,False
2021-10-20,0.9919954823332635,0.9919954823332635,0.0,0,False
2021-10-21,0.9919954823332635,0.9919954823332635,0.0,0,False
2021-10-22,0.9919954823332635,0.9919954823332635,0.0,0,False
2021-10-23,0.9919954823332635,0.9919954823332635,0.0,0,False
2021-10-24,0.9919954823332635,0.9919954823332635,0.0,0,False
2021-10-25,0.9919954823332635,0.9980850312933244,0.6138686182055597,1,True
2021-10-26,0.9980850312933244,0.9980850312933244,0.0,0,False
2021-10-27,0.9980850312933244,1.019072683186362,2.1027919701231967,4,True
2021-10-28,1.019072683186362,1.017694715517045,-0.13521780065857136,0,True
2021-10-29,1.017694715517045,1.017694715517045,0.0,0,False
2021-10-30,1.017694715517045,1.015895036241734,-0.17683881500717424,1,True
2021-10-31,1.015895036241734,1.0041510155579074,-1.1560269776760834,4,True
2021-11-01,1.0041510155579074,1.0105479420927004,0.6370482562564339,2,True
2021-11-02,1.0105479420927004,1.0105479420927004,0.0,0,False
2021-11-03,1.0105479420927004,1.0105479420927004,0.0,0,False
2021-11-04,1.0105479420927004,1.0090588537993637,-0.1473545421559197,1,True
2021-11-05,1.0090588537993637,1.0090588537993637,0.0,0,False
2021-11-06,1.0090588537993637,1.0090588537993637,0.0,0,False
2021-11-07,1.0090588537993637,1.0090588537993637,0.0,0,False
2021-11-08,1.0090588537993637,1.0090588537993637,0.0,0,False
2021-11-09,1.0090588537993637,1.0090588537993637,0.0,0,False
2021-11-10,1.0090588537993637,1.0090588537993637,0.0,0,False
2021-11-11,1.0090588537993637,1.029480314799995,2.023812676905745,6,True
2021-11-12,1.029480314799995,1.0243393117371233,-0.4993784717360339,1,True
2021-11-13,1.0243393117371233,1.0243393117371233,0.0,0,False
2021-11-14,1.0243393117371233,1.0243393117371233,0.0,0,False
2021-11-15,1.0243393117371233,1.0243393117371233,0.0,0,False
2021-11-16,1.0243393117371233,1.0580036228669598,3.2864413914513335,4,True
2021-11-17,1.0580036228669598,1.0580036228669598,0.0,0,False
2021-11-18,1.0580036228669598,1.052716636569781,-0.49971343981338734,1,True
2021-11-19,1.052716636569781,1.052716636569781,0.0,0,False
2021-11-20,1.052716636569781,1.052716636569781,0.0,0,False
2021-11-21,1.052716636569781,1.052716636569781,0.0,0,False
2021-11-22,1.052716636569781,1.052716636569781,0.0,0,False
2021-11-23,1.052716636569781,1.052716636569781,0.0,0,False
2021-11-24,1.052716636569781,1.052716636569781,0.0,0,False
2021-11-25,1.052716636569781,1.0474593696704029,-0.49940000155300757,1,True
2021-11-26,1.0474593696704029,1.051498390823306,0.3856017015890556,6,True
2021-11-27,1.051498390823306,1.0489272712251556,-0.2445195941895073,0,True
2021-11-28,1.0489272712251556,1.0436909642484282,-0.4992059144969474,1,True
2021-11-29,1.0436909642484282,1.0436909642484282,0.0,0,False
2021-11-30,1.0436909642484282,1.0436909642484282,0.0,0,False
2021-12-01,1.0436909642484282,1.0524210922938129,0.8364667650132773,1,True
2021-12-02,1.0524210922938129,1.054543551554418,0.20167395694996593,2,True
2021-12-03,1.054543551554418,1.043739068555807,-1.024564891861024,1,True
2021-12-04,1.043739068555807,1.0178434803681606,-2.481040421671421,5,True
2021-12-05,1.0178434803681606,1.0178434803681606,0.0,0,False
2021-12-06,1.0178434803681606,1.0178434803681606,0.0,0,False
2021-12-07,1.0178434803681606,1.0178434803681606,0.0,0,False
2021-12-08,1.0178434803681606,1.0178434803681606,0.0,0,False
2021-12-09,1.0178434803681606,1.0178434803681606,0.0,0,False
2021-12-10,1.0178434803681606,1.0178434803681606,0.0,0,False
2021-12-11,1.0178434803681606,1.0178434803681606,0.0,0,False
2021-12-12,1.0178434803681606,1.0178434803681606,0.0,0,False
2021-12-13,1.0178434803681606,1.0178434803681606,0.0,0,False
2021-12-14,1.0178434803681606,1.0178434803681606,0.0,0,False
2021-12-15,1.0178434803681606,1.0178434803681606,0.0,0,False
2021-12-16,1.0178434803681606,1.0178434803681606,0.0,0,False
2021-12-17,1.0178434803681606,1.016741285673097,-0.1082872481203978,1,True
2021-12-18,1.016741285673097,1.016741285673097,0.0,0,False
2021-12-19,1.016741285673097,1.016741285673097,0.0,0,False
2021-12-20,1.016741285673097,1.016741285673097,0.0,0,False
2021-12-21,1.016741285673097,1.016741285673097,0.0,0,False
2021-12-22,1.016741285673097,1.016741285673097,0.0,0,False
2021-12-23,1.016741285673097,1.016741285673097,0.0,0,False
2021-12-24,1.016741285673097,1.016741285673097,0.0,0,False
2021-12-25,1.016741285673097,1.016741285673097,0.0,0,False
2021-12-26,1.016741285673097,1.016741285673097,0.0,0,False
2021-12-27,1.016741285673097,1.016741285673097,0.0,0,False
2021-12-28,1.016741285673097,1.016741285673097,0.0,0,False
2021-12-29,1.016741285673097,1.016741285673097,0.0,0,False
2021-12-30,1.016741285673097,1.016741285673097,0.0,0,False
2021-12-31,1.016741285673097,1.016741285673097,0.0,0,False
2022-01-01,1.016741285673097,1.016741285673097,0.0,0,False
2022-01-02,1.016741285673097,1.016741285673097,0.0,0,False
2022-01-03,1.016741285673097,1.016741285673097,0.0,0,False
2022-01-04,1.016741285673097,1.016741285673097,0.0,0,False
2022-01-05,1.016741285673097,1.016741285673097,0.0,0,False
2022-01-06,1.016741285673097,1.0116710604103514,-0.49867408102634014,1,True
2022-01-07,1.0116710604103514,1.0116710604103514,0.0,0,False
2022-01-08,1.0116710604103514,1.0116710604103514,0.0,0,False
2022-01-09,1.0116710604103514,1.0116710604103514,0.0,0,False
2022-01-10,1.0116710604103514,1.0116710604103514,0.0,0,False
2022-01-11,1.0116710604103514,1.0116710604103514,0.0,0,False
2022-01-12,1.0116710604103514,1.0116710604103514,0.0,0,False
2022-01-13,1.0116710604103514,1.0116710604103514,0.0,0,False
2022-01-14,1.0116710604103514,1.0116710604103514,0.0,0,False
2022-01-15,1.0116710604103514,1.0116710604103514,0.0,0,False
2022-01-16,1.0116710604103514,1.0116710604103514,0.0,0,False
2022-01-17,1.0116710604103514,1.0116710604103514,0.0,0,False
2022-01-18,1.0116710604103514,1.0116710604103514,0.0,0,False
2022-01-19,1.0116710604103514,1.0116710604103514,0.0,0,False
2022-01-20,1.0116710604103514,1.0116710604103514,0.0,0,False
2022-01-21,1.0116710604103514,1.0116710604103514,0.0,0,False
2022-01-22,1.0116710604103514,1.0331920349901498,2.127269961747169,3,True
2022-01-23,1.0331920349901498,1.0350589483968058,0.18069374747684552,0,True
2022-01-24,1.0350589483968058,1.0350589483968058,0.0,0,False
2022-01-25,1.0350589483968058,1.0350589483968058,0.0,0,False
2022-01-26,1.0350589483968058,1.0350589483968058,0.0,0,False
2022-01-27,1.0350589483968058,1.0350589483968058,0.0,0,False
2022-01-28,1.0350589483968058,1.0350589483968058,0.0,0,False
2022-01-29,1.0350589483968058,1.0350589483968058,0.0,0,False
2022-01-30,1.0350589483968058,1.0350589483968058,0.0,0,False
2022-01-31,1.0350589483968058,1.0382022376365496,0.3036821472450768,1,True
2022-02-01,1.0382022376365496,1.0382022376365496,0.0,0,False
2022-02-02,1.0382022376365496,1.0382022376365496,0.0,0,False
2022-02-03,1.0382022376365496,1.0382022376365496,0.0,0,False
2022-02-04,1.0382022376365496,1.0382022376365496,0.0,0,False
2022-02-05,1.0382022376365496,1.0382022376365496,0.0,0,False
2022-02-06,1.0382022376365496,1.0382022376365496,0.0,0,False
2022-02-07,1.0382022376365496,1.0382022376365496,0.0,0,False
2022-02-08,1.0382022376365496,1.0382022376365496,0.0,0,False
2022-02-09,1.0382022376365496,1.0382022376365496,0.0,0,False
2022-02-10,1.0382022376365496,1.0393525752748487,0.11080092072599523,2,True
2022-02-11,1.0393525752748487,1.0278279425769064,-1.1088280312284593,0,True
2022-02-12,1.0278279425769064,1.0278279425769064,0.0,0,False
2022-02-13,1.0278279425769064,1.0278279425769064,0.0,0,False
2022-02-14,1.0278279425769064,1.0278279425769064,0.0,0,False
2022-02-15,1.0278279425769064,1.0278279425769064,0.0,0,False
2022-02-16,1.0278279425769064,1.0278279425769064,0.0,0,False
2022-02-17,1.0278279425769064,1.0278279425769064,0.0,0,False
2022-02-18,1.0278279425769064,1.0278279425769064,0.0,0,False
2022-02-19,1.0278279425769064,1.0278279425769064,0.0,0,False
2022-02-20,1.0278279425769064,1.0278279425769064,0.0,0,False
2022-02-21,1.0278279425769064,1.0278279425769064,0.0,0,False
2022-02-22,1.0278279425769064,1.0278279425769064,0.0,0,False
2022-02-23,1.0278279425769064,1.0278279425769064,0.0,0,False
2022-02-24,1.0278279425769064,1.0278279425769064,0.0,0,False
2022-02-25,1.0278279425769064,1.0278279425769064,0.0,0,False
2022-02-26,1.0278279425769064,1.0278279425769064,0.0,0,False
2022-02-27,1.0278279425769064,1.0278279425769064,0.0,0,False
2022-02-28,1.0278279425769064,1.0278279425769064,0.0,0,False
2022-03-01,1.0278279425769064,1.0278279425769064,0.0,0,False
2022-03-02,1.0278279425769064,1.0278279425769064,0.0,0,False
2022-03-03,1.0278279425769064,1.0278279425769064,0.0,0,False
2022-03-04,1.0278279425769064,1.0278279425769064,0.0,0,False
2022-03-05,1.0278279425769064,1.0278279425769064,0.0,0,False
2022-03-06,1.0278279425769064,1.0278279425769064,0.0,0,False
2022-03-07,1.0278279425769064,1.0278279425769064,0.0,0,False
2022-03-08,1.0278279425769064,1.0278279425769064,0.0,0,False
2022-03-09,1.0278279425769064,1.0278279425769064,0.0,0,False
2022-03-10,1.0278279425769064,1.0278279425769064,0.0,0,False
2022-03-11,1.0278279425769064,1.0278279425769064,0.0,0,False
2022-03-12,1.0278279425769064,1.0278279425769064,0.0,0,False
2022-03-13,1.0278279425769064,1.0278279425769064,0.0,0,False
2022-03-14,1.0278279425769064,1.0278279425769064,0.0,0,False
2022-03-15,1.0278279425769064,1.0278279425769064,0.0,0,False
2022-03-16,1.0278279425769064,1.0278279425769064,0.0,0,False
2022-03-17,1.0278279425769064,1.0278279425769064,0.0,0,False
2022-03-18,1.0278279425769064,1.0278279425769064,0.0,0,False
2022-03-19,1.0278279425769064,1.0278279425769064,0.0,0,False
2022-03-20,1.0278279425769064,1.0278279425769064,0.0,0,False
2022-03-21,1.0278279425769064,1.0278279425769064,0.0,0,False
2022-03-22,1.0278279425769064,1.0278279425769064,0.0,0,False
2022-03-23,1.0278279425769064,1.0278279425769064,0.0,0,False
2022-03-24,1.0278279425769064,1.0278279425769064,0.0,0,False
2022-03-25,1.0278279425769064,1.0278279425769064,0.0,0,False
2022-03-26,1.0278279425769064,1.03035329465462,0.2456979396164627,1,True
2022-03-27,1.03035329465462,1.03035329465462,0.0,0,False
2022-03-28,1.03035329465462,1.0396148525404751,0.8988720600888289,1,True
2022-03-29,1.0396148525404751,1.0396148525404751,0.0,0,False
2022-03-30,1.0396148525404751,1.0344200578113947,-0.4996845434043329,1,True
2022-03-31,1.0344200578113947,1.0344200578113947,0.0,0,False
2022-04-01,1.0344200578113947,1.0320941309131655,-0.22485322869225666,1,True
2022-04-02,1.0320941309131655,1.0320941309131655,0.0,0,False
2022-04-03,1.0320941309131655,1.0311044224641965,-0.09589323486349777,1,True
2022-04-04,1.0311044224641965,1.0259574505828863,-0.49917076963065243,1,True
2022-04-05,1.0259574505828863,1.0259574505828863,0.0,0,False
2022-04-06,1.0259574505828863,1.0277880569753088,0.1784290753366502,1,True
2022-04-07,1.0277880569753088,1.0226589503717074,-0.4990432189585836,1,True
2022-04-08,1.0226589503717074,1.0226589503717074,0.0,0,False
2022-04-09,1.0226589503717074,1.0226589503717074,0.0,0,False
2022-04-10,1.0226589503717074,1.0226589503717074,0.0,0,False
2022-04-11,1.0226589503717074,1.0226589503717074,0.0,0,False
2022-04-12,1.0226589503717074,1.0226589503717074,0.0,0,False
2022-04-13,1.0226589503717074,1.0226589503717074,0.0,0,False
2022-04-14,1.0226589503717074,1.0226589503717074,0.0,0,False
2022-04-15,1.0226589503717074,1.0226589503717074,0.0,0,False
2022-04-16,1.0226589503717074,1.0226589503717074,0.0,0,False
2022-04-17,1.0226589503717074,1.0226589503717074,0.0,0,False
2022-04-18,1.0226589503717074,1.0266699673686273,0.3922145301189506,1,True
2022-04-19,1.0266699673686273,1.0245825627158904,-0.20331798134574086,0,True
2022-04-20,1.0245825627158904,1.0245825627158904,0.0,0,False
2022-04-21,1.0245825627158904,1.0245825627158904,0.0,0,False
2022-04-22,1.0245825627158904,1.0245825627158904,0.0,0,False
2022-04-23,1.0245825627158904,1.0245825627158904,0.0,0,False
2022-04-24,1.0245825627158904,1.0245825627158904,0.0,0,False
2022-04-25,1.0245825627158904,1.0245825627158904,0.0,0,False
2022-04-26,1.0245825627158904,1.0245825627158904,0.0,0,False
2022-04-27,1.0245825627158904,1.019467642747562,-0.49921989251605625,1,True
2022-04-28,1.019467642747562,1.019467642747562,0.0,0,False
2022-04-29,1.019467642747562,1.0143761418049533,-0.49942741967627935,1,True
2022-04-30,1.0143761418049533,1.0143761418049533,0.0,0,False
2022-05-01,1.0143761418049533,1.0248735121018233,1.0348597393262216,4,True
2022-05-02,1.0248735121018233,1.0248735121018233,0.0,0,False
2022-05-03,1.0248735121018233,1.0248735121018233,0.0,0,False
2022-05-04,1.0248735121018233,1.0197557039672929,-0.49935997702144075,1,True
2022-05-05,1.0197557039672929,1.0197557039672929,0.0,0,False
2022-05-06,1.0197557039672929,1.009600740039847,-0.9958232043163484,2,True
2022-05-07,1.009600740039847,1.009600740039847,0.0,0,False
2022-05-08,1.009600740039847,1.009600740039847,0.0,0,False
2022-05-09,1.009600740039847,1.009600740039847,0.0,0,False
2022-05-10,1.009600740039847,0.9890643904943248,-2.034106031331917,5,True
2022-05-11,0.9890643904943248,0.9645063500869557,-2.4829566854686957,5,True
2022-05-12,0.9645063500869557,0.9929027264317553,2.944135758384525,8,True
2022-05-13,0.9929027264317553,0.9936095570696243,0.07118830667423026,0,True
2022-05-14,0.9936095570696243,0.9901773440771623,-0.34542874190787165,2,True
2022-05-15,0.9901773440771623,0.9852357185100732,-0.4990646975158386,1,True
2022-05-16,0.9852357185100732,0.9803194346513848,-0.49899569882860817,1,True
2022-05-17,0.9803194346513848,0.9803194346513848,0.0,0,False
2022-05-18,0.9803194346513848,0.9803194346513848,0.0,0,False
2022-05-19,0.9803194346513848,0.9754260630438424,-0.4991609300577182,1,True
2022-05-20,0.9754260630438424,0.9705600008953646,-0.49886529926144174,1,True
2022-05-21,0.9705600008953646,0.9705600008953646,0.0,0,False
2022-05-22,0.9705600008953646,0.9705600008953646,0.0,0,False
2022-05-23,0.9705600008953646,0.9657158070051053,-0.4991132836496992,1,True
2022-05-24,0.9657158070051053,0.9644467304343219,-0.13141304735593273,2,True
2022-05-25,0.9644467304343219,0.9779787180359688,1.403082946380363,1,True
2022-05-26,0.9779787180359688,0.9730951393307671,-0.4993542921884031,1,True
2022-05-27,0.9730951393307671,0.9682353504032378,-0.49941559988384565,1,True
2022-05-28,0.9682353504032378,0.9682353504032378,0.0,0,False
2022-05-29,0.9682353504032378,0.9682353504032378,0.0,0,False
2022-05-30,0.9682353504032378,0.9682353504032378,0.0,0,False
2022-05-31,0.9682353504032378,0.9537622198925879,-1.4947946803039458,3,True
2022-06-01,0.9537622198925879,0.9537622198925879,0.0,0,False
2022-06-02,0.9537622198925879,0.9490004046880699,-0.4992664948559544,1,True
2022-06-03,0.9490004046880699,0.9490004046880699,0.0,0,False
2022-06-04,0.9490004046880699,0.9490004046880699,0.0,0,False
2022-06-05,0.9490004046880699,0.9490004046880699,0.0,0,False
2022-06-06,0.9490004046880699,0.9490004046880699,0.0,0,False
2022-06-07,0.9490004046880699,0.9495993210832301,0.06311023601270893,1,True
2022-06-08,0.9495993210832301,0.9496716141998349,0.007613012667539998,1,True
2022-06-09,0.9496716141998349,0.9496716141998349,0.0,0,False
2022-06-10,0.9496716141998349,0.9530679577573168,0.35763347105446375,2,True
2022-06-11,0.9530679577573168,0.9506863092959629,-0.24989282684082514,1,True
2022-06-12,0.9506863092959629,0.9557404227464178,0.5316278777799832,4,True
2022-06-13,0.9557404227464178,0.9509483323850666,-0.5014008246695956,3,True
2022-06-14,0.9509483323850666,0.9521916098548088,0.13074080130346388,1,True
2022-06-15,0.9521916098548088,0.9521916098548088,0.0,0,False
2022-06-16,0.9521916098548088,0.9649393943804846,1.3387835382859148,4,True
2022-06-17,0.9649393943804846,0.9647702661637605,-0.017527340857781404,1,True
2022-06-18,0.9647702661637605,0.9551626627711506,-0.9958436458466835,4,True
2022-06-19,0.9551626627711506,0.9551626627711506,0.0,0,False
2022-06-20,0.9551626627711506,0.9551626627711506,0.0,0,False
2022-06-21,0.9551626627711506,0.9551626627711506,0.0,0,False
2022-06-22,0.9551626627711506,0.9551626627711506,0.0,0,False
2022-06-23,0.9551626627711506,0.9551626627711506,0.0,0,False
2022-06-24,0.9551626627711506,0.9551626627711506,0.0,0,False
2022-06-25,0.9551626627711506,0.9551626627711506,0.0,0,False
2022-06-26,0.9551626627711506,0.9551626627711506,0.0,0,False
2022-06-27,0.9551626627711506,0.9551626627711506,0.0,0,False
2022-06-28,0.9551626627711506,0.956190302901664,0.10758797119769792,1,True
2022-06-29,0.956190302901664,0.9527785942327747,-0.35680226609035026,0,True
2022-06-30,0.9527785942327747,0.9527785942327747,0.0,0,False
2022-07-01,0.9527785942327747,0.9527785942327747,0.0,0,False
2022-07-02,0.9527785942327747,0.9527785942327747,0.0,0,False
2022-07-03,0.9527785942327747,0.9518653301746198,-0.0958527053066538,1,True
2022-07-04,0.9518653301746198,0.9518653301746198,0.0,0,False
2022-07-05,0.9518653301746198,0.9518653301746198,0.0,0,False
2022-07-06,0.9518653301746198,0.9518653301746198,0.0,0,False
2022-07-07,0.9518653301746198,0.9518653301746198,0.0,0,False
2022-07-08,0.9518653301746198,0.9518653301746198,0.0,0,False
2022-07-09,0.9518653301746198,0.9518653301746198,0.0,0,False
2022-07-10,0.9518653301746198,0.9518653301746198,0.0,0,False
2022-07-11,0.9518653301746198,0.9518653301746198,0.0,0,False
2022-07-12,0.9518653301746198,0.9518653301746198,0.0,0,False
2022-07-13,0.9518653301746198,0.9593177116073673,0.7829239280498168,4,True
2022-07-14,0.9593177116073673,0.9669363497173585,0.7941725684628365,0,True
2022-07-15,0.9669363497173585,0.9669363497173585,0.0,0,False
2022-07-16,0.9669363497173585,0.9669363497173585,0.0,0,False
2022-07-17,0.9669363497173585,0.9669363497173585,0.0,0,False
2022-07-18,0.9669363497173585,0.9669363497173585,0.0,0,False
2022-07-19,0.9669363497173585,0.9655825564029576,-0.1400085243249527,2,True
2022-07-20,0.9655825564029576,0.9655825564029576,0.0,0,False
2022-07-21,0.9655825564029576,0.9608367980774903,-0.4914917211373937,3,True
2022-07-22,0.9608367980774903,0.9608367980774903,0.0,0,False
2022-07-23,0.9608367980774903,0.9608367980774903,0.0,0,False
2022-07-24,0.9608367980774903,0.9649009078274546,0.42297607232528733,1,True
2022-07-25,0.9649009078274546,0.9655303474991817,0.06523360757781926,1,True
2022-07-26,0.9655303474991817,0.9655303474991817,0.0,0,False
2022-07-27,0.9655303474991817,0.9655303474991817,0.0,0,False
2022-07-28,0.9655303474991817,0.9655303474991817,0.0,0,False
2022-07-29,0.9655303474991817,0.9631192011546241,-0.24972248161879707,1,True
2022-07-30,0.9631192011546241,0.9631192011546241,0.0,0,False
2022-07-31,0.9631192011546241,0.9607122579062309,-0.24991125143259962,1,True
2022-08-01,0.9607122579062309,0.9607122579062309,0.0,0,False
2022-08-02,0.9607122579062309,0.9607122579062309,0.0,0,False
2022-08-03,0.9607122579062309,0.9596084468116732,-0.11489507763368101,1,True
2022-08-04,0.9596084468116732,0.9596084468116732,0.0,0,False
2022-08-05,0.9596084468116732,0.9596084468116732,0.0,0,False
2022-08-06,0.9596084468116732,0.9596084468116732,0.0,0,False
2022-08-07,0.9596084468116732,0.9596084468116732,0.0,0,False
2022-08-08,0.9596084468116732,0.9596084468116732,0.0,0,False
2022-08-09,0.9596084468116732,0.9608471216242244,0.12908127441630945,1,True
2022-08-10,0.9608471216242244,0.9608471216242244,0.0,0,False
2022-08-11,0.9608471216242244,0.9608471216242244,0.0,0,False
2022-08-12,0.9608471216242244,0.9609826545950778,0.014105570782607657,1,True
2022-08-13,0.9609826545950778,0.9609826545950778,0.0,0,False
2022-08-14,0.9609826545950778,0.9609826545950778,0.0,0,False
2022-08-15,0.9609826545950778,0.9609826545950778,0.0,0,False
2022-08-16,0.9609826545950778,0.9607738750627098,-0.021725629632296517,1,True
2022-08-17,0.9607738750627098,0.9607738750627098,0.0,0,False
2022-08-18,0.9607738750627098,0.9607738750627098,0.0,0,False
2022-08-19,0.9607738750627098,0.9520529333789277,-0.9076997106330476,8,True
2022-08-20,0.9520529333789277,0.9551494293486318,0.32524409737537674,0,True
2022-08-21,0.9551494293486318,0.9551494293486318,0.0,0,False
2022-08-22,0.9551494293486318,0.9551494293486318,0.0,0,False
2022-08-23,0.9551494293486318,0.9551494293486318,0.0,0,False
2022-08-24,0.9551494293486318,0.9551494293486318,0.0,0,False
2022-08-25,0.9551494293486318,0.9551494293486318,0.0,0,False
2022-08-26,0.9551494293486318,0.9551494293486318,0.0,0,False
2022-08-27,0.9551494293486318,0.9527650791926254,-0.24963111349314282,1,True
2022-08-28,0.9527650791926254,0.9532072674709424,0.046411050108141616,1,True
2022-08-29,0.9532072674709424,0.9517321314211128,-0.1547550150077459,0,True
2022-08-30,0.9517321314211128,0.9517321314211128,0.0,0,False
2022-08-31,0.9517321314211128,0.9517321314211128,0.0,0,False
2022-09-01,0.9517321314211128,0.9517321314211128,0.0,0,False
2022-09-02,0.9517321314211128,0.9517321314211128,0.0,0,False
2022-09-03,0.9517321314211128,0.9517321314211128,0.0,0,False
2022-09-04,0.9517321314211128,0.9517321314211128,0.0,0,False
2022-09-05,0.9517321314211128,0.9517321314211128,0.0,0,False
2022-09-06,0.9517321314211128,0.9517321314211128,0.0,0,False
2022-09-07,0.9517321314211128,0.9465244712921179,-0.5471770845036916,4,True
2022-09-08,0.9465244712921179,0.9465244712921179,0.0,0,False
2022-09-09,0.9465244712921179,0.9465244712921179,0.0,0,False
2022-09-10,0.9465244712921179,0.9465244712921179,0.0,0,False
2022-09-11,0.9465244712921179,0.9465244712921179,0.0,0,False
2022-09-12,0.9465244712921179,0.9465244712921179,0.0,0,False
2022-09-13,0.9465244712921179,0.9416928773408972,-0.5104563165308273,4,True
2022-09-14,0.9416928773408972,0.9361861463737062,-0.5847693127658204,1,True
2022-09-15,0.9361861463737062,0.9400855071640558,0.4165155407878762,1,True
2022-09-16,0.9400855071640558,0.9400855071640558,0.0,0,False
2022-09-17,0.9400855071640558,0.9400855071640558,0.0,0,False
2022-09-18,0.9400855071640558,0.9400855071640558,0.0,0,False
2022-09-19,0.9400855071640558,0.942631237471394,0.27079773998621715,5,True
2022-09-20,0.942631237471394,0.942631237471394,0.0,0,False
2022-09-21,0.942631237471394,0.942631237471394,0.0,0,False
2022-09-22,0.942631237471394,0.942631237471394,0.0,0,False
2022-09-23,0.942631237471394,0.942631237471394,0.0,0,False
2022-09-24,0.942631237471394,0.942631237471394,0.0,0,False
2022-09-25,0.942631237471394,0.942631237471394,0.0,0,False
2022-09-26,0.942631237471394,0.942631237471394,0.0,0,False
2022-09-27,0.942631237471394,0.942631237471394,0.0,0,False
2022-09-28,0.942631237471394,0.942631237471394,0.0,0,False
2022-09-29,0.942631237471394,0.942631237471394,0.0,0,False
2022-09-30,0.942631237471394,0.942631237471394,0.0,0,False
2022-10-01,0.942631237471394,0.942631237471394,0.0,0,False
2022-10-02,0.942631237471394,0.942631237471394,0.0,0,False
2022-10-03,0.942631237471394,0.942631237471394,0.0,0,False
2022-10-04,0.942631237471394,0.942631237471394,0.0,0,False
2022-10-05,0.942631237471394,0.942631237471394,0.0,0,False
2022-10-06,0.942631237471394,0.942631237471394,0.0,0,False
2022-10-07,0.942631237471394,0.942631237471394,0.0,0,False
2022-10-08,0.942631237471394,0.942631237471394,0.0,0,False
2022-10-09,0.942631237471394,0.942631237471394,0.0,0,False
2022-10-10,0.942631237471394,0.940277865992189,-0.24965982302028733,1,True
2022-10-11,0.940277865992189,0.9549354359359636,1.5588551505791193,4,True
2022-10-12,0.9549354359359636,0.9549354359359636,0.0,0,False
2022-10-13,0.9549354359359636,0.9549354359359636,0.0,0,False
2022-10-14,0.9549354359359636,0.9549354359359636,0.0,0,False
2022-10-15,0.9549354359359636,0.9549354359359636,0.0,0,False
2022-10-16,0.9549354359359636,0.9549354359359636,0.0,0,False
2022-10-17,0.9549354359359636,0.9549354359359636,0.0,0,False
2022-10-18,0.9549354359359636,0.9549354359359636,0.0,0,False
2022-10-19,0.9549354359359636,0.9549354359359636,0.0,0,False
2022-10-20,0.9549354359359636,0.9575801483734834,0.27695196324215576,1,True
2022-10-21,0.9575801483734834,0.9575801483734834,0.0,0,False
2022-10-22,0.9575801483734834,0.9575801483734834,0.0,0,False
2022-10-23,0.9575801483734834,0.9575801483734834,0.0,0,False
2022-10-24,0.9575801483734834,0.9575801483734834,0.0,0,False
2022-10-25,0.9575801483734834,0.9575801483734834,0.0,0,False
2022-10-26,0.9575801483734834,0.9575801483734834,0.0,0,False
2022-10-27,0.9575801483734834,0.9575801483734834,0.0,0,False
2022-10-28,0.9575801483734834,0.9575801483734834,0.0,0,False
2022-10-29,0.9575801483734834,0.9575801483734834,0.0,0,False
2022-10-30,0.9575801483734834,0.9575801483734834,0.0,0,False
2022-10-31,0.9575801483734834,0.9575801483734834,0.0,0,False
2022-11-01,0.9575801483734834,0.9575801483734834,0.0,0,False
2022-11-02,0.9575801483734834,0.9615468911690567,0.414246557043918,1,True
2022-11-03,0.9615468911690567,0.9609993195513108,-0.0569469490021568,3,True
2022-11-04,0.9609993195513108,0.9555894761369764,-0.5629393595054988,5,True
2022-11-05,0.9555894761369764,0.9560422338496661,0.04737993918895178,1,True
2022-11-06,0.9560422338496661,0.9560422338496661,0.0,0,False
2022-11-07,0.9560422338496661,0.9541950209827541,-0.19321456746465016,2,True
2022-11-08,0.9541950209827541,0.9509921912388446,-0.3356577715749154,5,True
2022-11-09,0.9509921912388446,0.9355507173269219,-1.6237224715596632,14,True
2022-11-10,0.9355507173269219,0.9488340168318878,1.419837456051476,5,True
2022-11-11,0.9488340168318878,0.9584688016240406,1.0154341666968048,5,True
2022-11-12,0.9584688016240406,0.9574024123065882,-0.11125967956865379,2,True
2022-11-13,0.9574024123065882,0.9550133048016711,-0.2495405771081316,1,True
2022-11-14,0.9550133048016711,0.9549154834451821,-0.010242931276160938,2,True
2022-11-15,0.9549154834451821,0.9549154834451821,0.0,0,False
2022-11-16,0.9549154834451821,0.9549154834451821,0.0,0,False
2022-11-17,0.9549154834451821,0.9549154834451821,0.0,0,False
2022-11-18,0.9549154834451821,0.9549154834451821,0.0,0,False
2022-11-19,0.9549154834451821,0.9548757901884949,-0.004156729823245886,2,True
2022-11-20,0.9548757901884949,0.9529487882155192,-0.20180655879811216,1,True
2022-11-21,0.9529487882155192,0.949999459007036,-0.30949503739924333,1,True
2022-11-22,0.949999459007036,0.949999459007036,0.0,0,False
2022-11-23,0.949999459007036,0.949999459007036,0.0,0,False
2022-11-24,0.949999459007036,0.949999459007036,0.0,0,False
2022-11-25,0.949999459007036,0.9497732872893051,-0.02380756279243279,1,True
2022-11-26,0.9497732872893051,0.9497732872893051,0.0,0,False
2022-11-27,0.9497732872893051,0.9497732872893051,0.0,0,False
2022-11-28,0.9497732872893051,0.9474533497081501,-0.2442622478650902,2,True
2022-11-29,0.9474533497081501,0.9474533497081501,0.0,0,False
2022-11-30,0.9474533497081501,0.9474533497081501,0.0,0,False
2022-12-01,0.9474533497081501,0.9473037184635921,-0.01579299335466855,1,True
2022-12-02,0.9473037184635921,0.9466510797752351,-0.0688943446158441,1,True
2022-12-03,0.9466510797752351,0.9466510797752351,0.0,0,False
2022-12-04,0.9466510797752351,0.9461658466860577,-0.05125786042441405,3,True
2022-12-05,0.9461658466860577,0.9471530488699373,0.10433711883992558,1,True
2022-12-06,0.9471530488699373,0.9464218691935369,-0.07719762685374221,0,True
2022-12-07,0.9464218691935369,0.9464218691935369,0.0,0,False
2022-12-08,0.9464218691935369,0.9440618774912112,-0.24935937969572386,1,True
2022-12-09,0.9440618774912112,0.9440618774912112,0.0,0,False
2022-12-10,0.9440618774912112,0.9440618774912112,0.0,0,False
2022-12-11,0.9440618774912112,0.9440618774912112,0.0,0,False
2022-12-12,0.9440618774912112,0.9440618774912112,0.0,0,False
2022-12-13,0.9440618774912112,0.9440618774912112,0.0,0,False
2022-12-14,0.9440618774912112,0.9440618774912112,0.0,0,False
2022-12-15,0.9440618774912112,0.9440618774912112,0.0,0,False
2022-12-16,0.9440618774912112,0.9440618774912112,0.0,0,False
2022-12-17,0.9440618774912112,0.9508202046948568,0.715877567432921,4,True
2022-12-18,0.9508202046948568,0.9508202046948568,0.0,0,False
2022-12-19,0.9508202046948568,0.9508202046948568,0.0,0,False
2022-12-20,0.9508202046948568,0.9508202046948568,0.0,0,False
2022-12-21,0.9508202046948568,0.9508202046948568,0.0,0,False
2022-12-22,0.9508202046948568,0.9508202046948568,0.0,0,False
2022-12-23,0.9508202046948568,0.9508202046948568,0.0,0,False
2022-12-24,0.9508202046948568,0.9508202046948568,0.0,0,False
2022-12-25,0.9508202046948568,0.9508202046948568,0.0,0,False
2022-12-26,0.9508202046948568,0.9508202046948568,0.0,0,False
2022-12-27,0.9508202046948568,0.9508202046948568,0.0,0,False
2022-12-28,0.9508202046948568,0.952381338527869,0.164188121508535,1,True
2022-12-29,0.952381338527869,0.9517346094135021,-0.06790652947553655,0,True
2022-12-30,0.9517346094135021,0.9517346094135021,0.0,0,False
2022-12-31,0.9517346094135021,0.9517346094135021,0.0,0,False
2023-01-01,0.9517346094135021,0.9517346094135021,0.0,0,False
2023-01-02,0.9517346094135021,0.9518902413687357,0.016352453057222327,1,True
2023-01-03,0.9518902413687357,0.9519503546342182,0.006315146733304466,0,True
2023-01-04,0.9519503546342182,0.9519503546342182,0.0,0,False
2023-01-05,0.9519503546342182,0.9519503546342182,0.0,0,False
2023-01-06,0.9519503546342182,0.9519503546342182,0.0,0,False
2023-01-07,0.9519503546342182,0.9519503546342182,0.0,0,False
2023-01-08,0.9519503546342182,0.9519503546342182,0.0,0,False
2023-01-09,0.9519503546342182,0.9519503546342182,0.0,0,False
2023-01-10,0.9519503546342182,0.9503823388875923,-0.16471612610811093,2,True
2023-01-11,0.9503823388875923,0.9508444122416977,0.048619732837873464,0,True
2023-01-12,0.9508444122416977,0.9508444122416977,0.0,0,False
2023-01-13,0.9508444122416977,0.9508444122416977,0.0,0,False
2023-01-14,0.9508444122416977,0.9481509809535239,-0.283267299412715,3,True
2023-01-15,0.9481509809535239,0.9490013427826689,0.08968633120960412,1,True
2023-01-16,0.9490013427826689,0.9490013427826689,0.0,0,False
2023-01-17,0.9490013427826689,0.9490013427826689,0.0,0,False
2023-01-18,0.9490013427826689,0.9490013427826689,0.0,0,False
2023-01-19,0.9490013427826689,0.9466328113640148,-0.24958146125579894,1,True
2023-01-20,0.9466328113640148,0.9466328113640148,0.0,0,False
2023-01-21,0.9466328113640148,0.9474073614617939,0.08182159845728787,1,True
2023-01-22,0.9474073614617939,0.9469463329478283,-0.04866212072220932,0,True
2023-01-23,0.9469463329478283,0.9469463329478283,0.0,0,False
2023-01-24,0.9469463329478283,0.9510196678964978,0.43015478353343184,1,True
2023-01-25,0.9510196678964978,0.9576252503414546,0.6945789522489365,5,True
2023-01-26,0.9576252503414546,0.9618843423704946,0.4447556105607431,1,True
2023-01-27,0.9618843423704946,0.9618843423704946,0.0,0,False
2023-01-28,0.9618843423704946,0.9618843423704946,0.0,0,False
2023-01-29,0.9618843423704946,0.9618843423704946,0.0,0,False
2023-01-30,0.9618843423704946,0.9617671386037784,-0.01218480866705951,2,True
2023-01-31,0.9617671386037784,0.9622900681869776,0.05437174573861281,2,True
2023-02-01,0.9622900681869776,0.9622900681869776,0.0,0,False
2023-02-02,0.9622900681869776,0.9622900681869776,0.0,0,False
2023-02-03,0.9622900681869776,0.9622900681869776,0.0,0,False
2023-02-04,0.9622900681869776,0.9622900681869776,0.0,0,False
2023-02-05,0.9622900681869776,0.9638425076141589,0.1613275953378901,5,True
2023-02-06,0.9638425076141589,0.9707161196361839,0.7131468022757659,1,True
2023-02-07,0.9707161196361839,0.9707161196361839,0.0,0,False
2023-02-08,0.9707161196361839,0.9707161196361839,0.0,0,False
2023-02-09,0.9707161196361839,0.9707161196361839,0.0,0,False
2023-02-10,0.9707161196361839,0.9719148703265729,0.12349137571119329,1,True
2023-02-11,0.9719148703265729,0.9704601415065357,-0.14967656782001182,0,True
2023-02-12,0.9704601415065357,0.9680369306638631,-0.24969710130606781,1,True
2023-02-13,0.9680369306638631,0.9680369306638631,0.0,0,False
2023-02-14,0.9680369306638631,0.9680369306638631,0.0,0,False
2023-02-15,0.9680369306638631,0.9680369306638631,0.0,0,False
2023-02-16,0.9680369306638631,0.9680369306638631,0.0,0,False
2023-02-17,0.9680369306638631,0.9680369306638631,0.0,0,False
2023-02-18,0.9680369306638631,0.9680369306638631,0.0,0,False
2023-02-19,0.9680369306638631,0.9680369306638631,0.0,0,False
2023-02-20,0.9680369306638631,0.9680369306638631,0.0,0,False
2023-02-21,0.9680369306638631,0.9660134023017204,-0.20903421120049837,3,True
2023-02-22,0.9660134023017204,0.9645328705311247,-0.15326203208652078,2,True
2023-02-23,0.9645328705311247,0.9685029156135231,0.41160288090671404,1,True
2023-02-24,0.9685029156135231,0.9685029156135231,0.0,0,False
2023-02-25,0.9685029156135231,0.9685029156135231,0.0,0,False
2023-02-26,0.9685029156135231,0.96930842960615,0.08317104467534531,1,True
2023-02-27,0.96930842960615,0.9668888278230037,-0.2496214527020535,1,True
2023-02-28,0.9668888278230037,0.9668888278230037,0.0,0,False
2023-03-01,0.9668888278230037,0.9668888278230037,0.0,0,False
2023-03-02,0.9668888278230037,0.9668888278230037,0.0,0,False
2023-03-03,0.9668888278230037,0.965940786711487,-0.09805068423960339,6,True
2023-03-04,0.965940786711487,0.965940786711487,0.0,0,False
2023-03-05,0.965940786711487,0.965940786711487,0.0,0,False
2023-03-06,0.965940786711487,0.965940786711487,0.0,0,False
2023-03-07,0.965940786711487,0.965940786711487,0.0,0,False
2023-03-08,0.965940786711487,0.965940786711487,0.0,0,False
2023-03-09,0.965940786711487,0.965940786711487,0.0,0,False
2023-03-10,0.965940786711487,0.963526437371173,-0.24994796508526207,1,True
2023-03-11,0.963526437371173,0.9712830201688237,0.8050202357512193,3,True
2023-03-12,0.9712830201688237,0.9762739114274342,0.5138452083454537,0,True
2023-03-13,0.9762739114274342,0.9762739114274342,0.0,0,False
2023-03-14,0.9762739114274342,0.9762739114274342,0.0,0,False
2023-03-15,0.9762739114274342,0.9762739114274342,0.0,0,False
2023-03-16,0.9762739114274342,0.9795912263526566,0.3397934623052601,5,True
2023-03-17,0.9795912263526566,0.9776454979439798,-0.1986265654829733,2,True
2023-03-18,0.9776454979439798,0.9765486733291273,-0.11219042251604527,0,True
2023-03-19,0.9765486733291273,0.9765486733291273,0.0,0,False
2023-03-20,0.9765486733291273,0.9765486733291273,0.0,0,False
2023-03-21,0.9765486733291273,0.971680596616962,-0.49849811331673655,2,True
2023-03-22,0.971680596616962,0.971680596616962,0.0,0,False
2023-03-23,0.971680596616962,0.9765205658991681,0.49810290532270596,3,True
2023-03-24,0.9765205658991681,0.9770438879823036,0.05359048251620813,0,True
2023-03-25,0.9770438879823036,0.9746057900465886,-0.24953822092371736,1,True
2023-03-26,0.9746057900465886,0.9746057900465886,0.0,0,False
2023-03-27,0.9746057900465886,0.9746057900465886,0.0,0,False
2023-03-28,0.9746057900465886,0.9746057900465886,0.0,0,False
2023-03-29,0.9746057900465886,0.9746057900465886,0.0,0,False
2023-03-30,0.9746057900465886,0.9746057900465886,0.0,0,False
2023-03-31,0.9746057900465886,0.9746057900465886,0.0,0,False
2023-04-01,0.9746057900465886,0.9746057900465886,0.0,0,False
2023-04-02,0.9746057900465886,0.9746057900465886,0.0,0,False
2023-04-03,0.9746057900465886,0.9746057900465886,0.0,0,False
2023-04-04,0.9746057900465886,0.9721727827395376,-0.24964014495899578,1,True
2023-04-05,0.9721727827395376,0.9721727827395376,0.0,0,False
2023-04-06,0.9721727827395376,0.9697471117342273,-0.24951027722405206,1,True
2023-04-07,0.9697471117342273,0.9673245910955334,-0.24980952347067875,1,True
2023-04-08,0.9673245910955334,0.9673245910955334,0.0,0,False
2023-04-09,0.9673245910955334,0.9673245910955334,0.0,0,False
2023-04-10,0.9673245910955334,0.9673245910955334,0.0,0,False
2023-04-11,0.9673245910955334,0.9673245910955334,0.0,0,False
2023-04-12,0.9673245910955334,0.9673245910955334,0.0,0,False
2023-04-13,0.9673245910955334,0.9673245910955334,0.0,0,False
2023-04-14,0.9673245910955334,0.9673245910955334,0.0,0,False
2023-04-15,0.9673245910955334,0.9673245910955334,0.0,0,False
2023-04-16,0.9673245910955334,0.9673245910955334,0.0,0,False
2023-04-17,0.9673245910955334,0.9649099790178474,-0.24961756373332866,1,True
2023-04-18,0.9649099790178474,0.9649099790178474,0.0,0,False
2023-04-19,0.9649099790178474,0.957702274605543,-0.7469820572941765,3,True
2023-04-20,0.957702274605543,0.957702274605543,0.0,0,False
2023-04-21,0.957702274605543,0.957702274605543,0.0,0,False
2023-04-22,0.957702274605543,0.957702274605543,0.0,0,False
2023-04-23,0.957702274605543,0.957702274605543,0.0,0,False
2023-04-24,0.957702274605543,0.957702274605543,0.0,0,False
2023-04-25,0.957702274605543,0.957702274605543,0.0,0,False
2023-04-26,0.957702274605543,0.957702274605543,0.0,0,False
2023-04-27,0.957702274605543,0.957702274605543,0.0,0,False
2023-04-28,0.957702274605543,0.957702274605543,0.0,0,False
2023-04-29,0.957702274605543,0.957702274605543,0.0,0,False
2023-04-30,0.957702274605543,0.957702274605543,0.0,0,False
2023-05-01,0.957702274605543,0.957702274605543,0.0,0,False
2023-05-02,0.957702274605543,0.957702274605543,0.0,0,False
2023-05-03,0.957702274605543,0.957702274605543,0.0,0,False
2023-05-04,0.957702274605543,0.957702274605543,0.0,0,False
2023-05-05,0.957702274605543,0.957702274605543,0.0,0,False
2023-05-06,0.957702274605543,0.957702274605543,0.0,0,False
2023-05-07,0.957702274605543,0.957702274605543,0.0,0,False
2023-05-08,0.957702274605543,0.9551371585947367,-0.2678406514031617,5,True
2023-05-09,0.9551371585947367,0.9546560660004434,-0.050368953816126716,2,True
2023-05-10,0.9546560660004434,0.9555820016217601,0.09699154012563493,1,True
2023-05-11,0.9555820016217601,0.956584231927921,0.10488166420672407,0,True
2023-05-12,0.956584231927921,0.956584231927921,0.0,0,False
2023-05-13,0.956584231927921,0.956584231927921,0.0,0,False
2023-05-14,0.956584231927921,0.956584231927921,0.0,0,False
2023-05-15,0.956584231927921,0.956584231927921,0.0,0,False
2023-05-16,0.956584231927921,0.956584231927921,0.0,0,False
2023-05-17,0.956584231927921,0.956584231927921,0.0,0,False
2023-05-18,0.956584231927921,0.956584231927921,0.0,0,False
2023-05-19,0.956584231927921,0.956584231927921,0.0,0,False
2023-05-20,0.956584231927921,0.956584231927921,0.0,0,False
2023-05-21,0.956584231927921,0.956584231927921,0.0,0,False
2023-05-22,0.956584231927921,0.956584231927921,0.0,0,False
2023-05-23,0.956584231927921,0.956584231927921,0.0,0,False
2023-05-24,0.956584231927921,0.956584231927921,0.0,0,False
2023-05-25,0.956584231927921,0.956584231927921,0.0,0,False
2023-05-26,0.956584231927921,0.9577888610317843,0.12593026977201216,1,True
2023-05-27,0.9577888610317843,0.9581624003323475,0.03900017172477899,1,True
2023-05-28,0.9581624003323475,0.9581624003323475,0.0,0,False
2023-05-29,0.9581624003323475,0.9581624003323475,0.0,0,False
2023-05-30,0.9581624003323475,0.9625065310358879,0.4533814624779309,1,True
2023-05-31,0.9625065310358879,0.9625065310358879,0.0,0,False
2023-06-01,0.9625065310358879,0.9625065310358879,0.0,0,False
2023-06-02,0.9625065310358879,0.9658708763563587,0.34953999915718903,3,True
2023-06-03,0.9658708763563587,0.9601118223429805,-0.5962550641451791,1,True
2023-06-04,0.9601118223429805,0.9601118223429805,0.0,0,False
2023-06-05,0.9601118223429805,0.9601118223429805,0.0,0,False
2023-06-06,0.9601118223429805,0.9505572828535254,-0.9951486136415943,4,True
2023-06-07,0.9505572828535254,0.9505572828535254,0.0,0,False
2023-06-08,0.9505572828535254,0.94818389856196,-0.24968345773340728,1,True
2023-06-09,0.94818389856196,0.94818389856196,0.0,0,False
2023-06-10,0.94818389856196,0.9598436714612096,1.2296953066734506,5,True
2023-06-11,0.9598436714612096,0.9599277614849882,0.00876080410578961,0,True
2023-06-12,0.9599277614849882,0.9599277614849882,0.0,0,False
2023-06-13,0.9599277614849882,0.9575308147071394,-0.24970074562076228,1,True
2023-06-14,0.9575308147071394,0.9575308147071394,0.0,0,False
2023-06-15,0.9575308147071394,0.9575308147071394,0.0,0,False
2023-06-16,0.9575308147071394,0.9575308147071394,0.0,0,False
2023-06-17,0.9575308147071394,0.9575308147071394,0.0,0,False
2023-06-18,0.9575308147071394,0.9575308147071394,0.0,0,False
2023-06-19,0.9575308147071394,0.9616954513594256,0.4349350003487906,1,True
2023-06-20,0.9616954513594256,0.9616954513594256,0.0,0,False
2023-06-21,0.9616954513594256,0.9616954513594256,0.0,0,False
2023-06-22,0.9616954513594256,0.9636659446540129,0.20489784908537256,2,True
2023-06-23,0.9636659446540129,0.9636659446540129,0.0,0,False
2023-06-24,0.9636659446540129,0.9636659446540129,0.0,0,False
2023-06-25,0.9636659446540129,0.961258872259757,-0.24978286382425496,1,True
2023-06-26,0.961258872259757,0.961258872259757,0.0,0,False
2023-06-27,0.961258872259757,0.961258872259757,0.0,0,False
2023-06-28,0.961258872259757,0.961258872259757,0.0,0,False
2023-06-29,0.961258872259757,0.961258872259757,0.0,0,False
2023-06-30,0.961258872259757,0.951681043535183,-0.9963839087443915,4,True
2023-07-01,0.951681043535183,0.9493059402660444,-0.24956925277358488,1,True
2023-07-02,0.9493059402660444,0.9493059402660444,0.0,0,False
2023-07-03,0.9493059402660444,0.9493059402660444,0.0,0,False
2023-07-04,0.9493059402660444,0.9493059402660444,0.0,0,False
2023-07-05,0.9493059402660444,0.9469353425033292,-0.24971904863998473,1,True
2023-07-06,0.9469353425033292,0.9469353425033292,0.0,0,False
2023-07-07,0.9469353425033292,0.9469353425033292,0.0,0,False
2023-07-08,0.9469353425033292,0.9469353425033292,0.0,0,False
2023-07-09,0.9469353425033292,0.9469353425033292,0.0,0,False
2023-07-10,0.9469353425033292,0.9469353425033292,0.0,0,False
2023-07-11,0.9469353425033292,0.9469353425033292,0.0,0,False
2023-07-12,0.9469353425033292,0.9469353425033292,0.0,0,False
2023-07-13,0.9469353425033292,0.9469353425033292,0.0,0,False
2023-07-14,0.9469353425033292,0.9469353425033292,0.0,0,False
2023-07-15,0.9469353425033292,0.9469353425033292,0.0,0,False
2023-07-16,0.9469353425033292,0.9469353425033292,0.0,0,False
2023-07-17,0.9469353425033292,0.9469353425033292,0.0,0,False
2023-07-18,0.9469353425033292,0.9469353425033292,0.0,0,False
2023-07-19,0.9469353425033292,0.9469353425033292,0.0,0,False
2023-07-20,0.9469353425033292,0.9469353425033292,0.0,0,False
2023-07-21,0.9469353425033292,0.9469353425033292,0.0,0,False
2023-07-22,0.9469353425033292,0.9469353425033292,0.0,0,False
2023-07-23,0.9469353425033292,0.9469353425033292,0.0,0,False
2023-07-24,0.9469353425033292,0.9447507223761734,-0.2307042549896332,2,True
2023-07-25,0.9447507223761734,0.9446437174050919,-0.011326265071531783,0,True
2023-07-26,0.9446437174050919,0.9446437174050919,0.0,0,False
2023-07-27,0.9446437174050919,0.9446437174050919,0.0,0,False
2023-07-28,0.9446437174050919,0.9446437174050919,0.0,0,False
2023-07-29,0.9446437174050919,0.9446437174050919,0.0,0,False
2023-07-30,0.9446437174050919,0.9446437174050919,0.0,0,False
2023-07-31,0.9446437174050919,0.9446437174050919,0.0,0,False
2023-08-01,0.9446437174050919,0.9446437174050919,0.0,0,False
2023-08-02,0.9446437174050919,0.9446437174050919,0.0,0,False
2023-08-03,0.9446437174050919,0.9446437174050919,0.0,0,False
2023-08-04,0.9446437174050919,0.9446437174050919,0.0,0,False
2023-08-05,0.9446437174050919,0.9446437174050919,0.0,0,False
2023-08-06,0.9446437174050919,0.9446437174050919,0.0,0,False
2023-08-07,0.9446437174050919,0.9446437174050919,0.0,0,False
2023-08-08,0.9446437174050919,0.9446437174050919,0.0,0,False
2023-08-09,0.9446437174050919,0.9446437174050919,0.0,0,False
2023-08-10,0.9446437174050919,0.9446437174050919,0.0,0,False
2023-08-11,0.9446437174050919,0.9446437174050919,0.0,0,False
2023-08-12,0.9446437174050919,0.9446437174050919,0.0,0,False
2023-08-13,0.9446437174050919,0.948815519687269,0.4416270605850148,1,True
2023-08-14,0.948815519687269,0.9489802440696911,0.017361054810360876,1,True
2023-08-15,0.9489802440696911,0.9491690185735736,0.019892353403805352,0,True
2023-08-16,0.9491690185735736,0.9563647550608753,0.758109077149971,4,True
2023-08-17,0.9563647550608753,0.9549681241435652,-0.1460353813667159,1,True
2023-08-18,0.9549681241435652,0.9707511712320648,1.652730252400203,4,True
2023-08-19,0.9707511712320648,0.9795703786541459,0.9084931013668474,2,True
2023-08-20,0.9795703786541459,0.9795703786541459,0.0,0,False
2023-08-21,0.9795703786541459,0.9795703786541459,0.0,0,False
2023-08-22,0.9795703786541459,0.9795703786541459,0.0,0,False
2023-08-23,0.9795703786541459,0.9795703786541459,0.0,0,False
2023-08-24,0.9795703786541459,0.9795703786541459,0.0,0,False
2023-08-25,0.9795703786541459,0.9766363213503815,-0.29952491088955924,5,True
2023-08-26,0.9766363213503815,0.9769582896220538,0.03296705893829355,0,True
2023-08-27,0.9769582896220538,0.9769582896220538,0.0,0,False
2023-08-28,0.9769582896220538,0.9769582896220538,0.0,0,False
2023-08-29,0.9769582896220538,0.9774619624610825,0.051555203981501485,1,True
2023-08-30,0.9774619624610825,0.9774619624610825,0.0,0,False
2023-08-31,0.9774619624610825,0.9774619624610825,0.0,0,False
2023-09-01,0.9774619624610825,0.9774619624610825,0.0,0,False
2023-09-02,0.9774619624610825,0.9873754958183175,1.01421167656226,3,True
2023-09-03,0.9873754958183175,0.9877791041105274,0.040876879557893986,0,True
2023-09-04,0.9877791041105274,0.9873616560417106,-0.042261277554833665,1,True
2023-09-05,0.9873616560417106,0.9895345117542682,0.22006685182291985,2,True
2023-09-06,0.9895345117542682,0.9897766973477491,0.024474699023024904,1,True
2023-09-07,0.9897766973477491,0.9897766973477491,0.0,0,False
2023-09-08,0.9897766973477491,0.9914170870226612,0.16573330927145413,3,True
2023-09-09,0.9914170870226612,0.9882295305932575,-0.3215151797490545,1,True
2023-09-10,0.9882295305932575,0.9845648414304614,-0.3708338042272441,3,True
2023-09-11,0.9845648414304614,0.9825491365988189,-0.2047305313801262,1,True
2023-09-12,0.9825491365988189,0.9825491365988189,0.0,0,False
2023-09-13,0.9825491365988189,0.9800964537995781,-0.24962444196235944,1,True
2023-09-14,0.9800964537995781,0.9800964537995781,0.0,0,False
2023-09-15,0.9800964537995781,0.9800964537995781,0.0,0,False
2023-09-16,0.9800964537995781,0.9845805241135736,0.45751316583300117,1,True
2023-09-17,0.9845805241135736,0.9890942183883841,0.45843830588403467,1,True
2023-09-18,0.9890942183883841,0.9817040222611468,-0.7471680644619227,3,True
2023-09-19,0.9817040222611468,0.9817040222611468,0.0,0,False
2023-09-20,0.9817040222611468,0.9833456545177209,0.16722272898432866,1,True
2023-09-21,0.9833456545177209,0.9859593342290963,0.26579460633882057,0,True
2023-09-22,0.9859593342290963,0.9859593342290963,0.0,0,False
2023-09-23,0.9859593342290963,0.9859593342290963,0.0,0,False
2023-09-24,0.9859593342290963,0.9859593342290963,0.0,0,False
2023-09-25,0.9859593342290963,0.9859593342290963,0.0,0,False
2023-09-26,0.9859593342290963,0.9865105294839892,0.055904461346156786,1,True
2023-09-27,0.9865105294839892,0.9831327607381958,-0.3423956100661374,1,True
2023-09-28,0.9831327607381958,0.9831327607381958,0.0,0,False
2023-09-29,0.9831327607381958,0.9831327607381958,0.0,0,False
2023-09-30,0.9831327607381958,0.9831327607381958,0.0,0,False
2023-10-01,0.9831327607381958,0.9831327607381958,0.0,0,False
2023-10-02,0.9831327607381958,0.9831327607381958,0.0,0,False
2023-10-03,0.9831327607381958,0.9832650700237026,0.013457926618931637,1,True
2023-10-04,0.9832650700237026,0.9806764052748944,-0.2632723186989372,0,True
2023-10-05,0.9806764052748944,0.9806764052748944,0.0,0,False
2023-10-06,0.9806764052748944,0.9806764052748944,0.0,0,False
2023-10-07,0.9806764052748944,0.9806764052748944,0.0,0,False
2023-10-08,0.9806764052748944,0.9806764052748944,0.0,0,False
2023-10-09,0.9806764052748944,0.9782258053556465,-0.24988874067597422,1,True
2023-10-10,0.9782258053556465,0.9782258053556465,0.0,0,False
2023-10-11,0.9782258053556465,0.9782258053556465,0.0,0,False
2023-10-12,0.9782258053556465,0.9782258053556465,0.0,0,False
2023-10-13,0.9782258053556465,0.9782258053556465,0.0,0,False
2023-10-14,0.9782258053556465,0.9782258053556465,0.0,0,False
2023-10-15,0.9782258053556465,0.9781662305779006,-0.0060900844589983905,1,True
2023-10-16,0.9781662305779006,0.9786384865920968,0.04827972991023888,1,True
2023-10-17,0.9786384865920968,0.9758662021841982,-0.28327972442128146,1,True
2023-10-18,0.9758662021841982,0.9758662021841982,0.0,0,False
2023-10-19,0.9758662021841982,0.9710034218861203,-0.4983039977400461,2,True
2023-10-20,0.9710034218861203,0.9710034218861203,0.0,0,False
2023-10-21,0.9710034218861203,0.971528771296423,0.05410376508068193,1,True
2023-10-22,0.971528771296423,0.971528771296423,0.0,0,False
2023-10-23,0.971528771296423,0.971528771296423,0.0,0,False
2023-10-24,0.971528771296423,0.9691034545427111,-0.24963921042456816,1,True
2023-10-25,0.9691034545427111,0.9692694251029962,0.017126196331984644,1,True
2023-10-26,0.9692694251029962,0.9777152275346266,0.8713575619836433,5,True
2023-10-27,0.9777152275346266,0.9762776988458371,-0.14702938527553222,2,True
2023-10-28,0.9762776988458371,0.9791698134785162,0.29623893243675425,1,True
2023-10-29,0.9791698134785162,0.9791698134785162,0.0,0,False
2023-10-30,0.9791698134785162,0.9791698134785162,0.0,0,False
2023-10-31,0.9791698134785162,0.9791698134785162,0.0,0,False
2023-11-01,0.9791698134785162,0.9791698134785162,0.0,0,False
2023-11-02,0.9791698134785162,0.9791698134785162,0.0,0,False
2023-11-03,0.9791698134785162,0.9767256747987973,-0.24961336083635377,1,True
2023-11-04,0.9767256747987973,0.9767256747987973,0.0,0,False
2023-11-05,0.9767256747987973,0.981120016519147,0.4499054170204797,1,True
2023-11-06,0.981120016519147,0.9820784763962672,0.09769038048175194,1,True
2023-11-07,0.9820784763962672,0.979222474778683,-0.290811955075565,1,True
2023-11-08,0.979222474778683,0.979222474778683,0.0,0,False
2023-11-09,0.979222474778683,0.9779239675377212,-0.13260594751517418,4,True
2023-11-10,0.9779239675377212,0.9832136142929679,0.5409057279335716,4,True
2023-11-11,0.9832136142929679,0.9832136142929679,0.0,0,False
2023-11-12,0.9832136142929679,0.9832136142929679,0.0,0,False
2023-11-13,0.9832136142929679,0.9827175351599341,-0.050454868181470935,1,True
2023-11-14,0.9827175351599341,0.9874273452751522,0.4792638725482412,2,True
2023-11-15,0.9874273452751522,0.9918800974503803,0.4509447906759556,0,True
2023-11-16,0.9918800974503803,0.9918800974503803,0.0,0,False
2023-11-17,0.9918800974503803,0.9909428896762598,-0.09448801085227831,1,True
2023-11-18,0.9909428896762598,0.9872348534667313,-0.3741927257523203,2,True
2023-11-19,0.9872348534667313,0.9874673033422561,0.023545549947767697,0,True
2023-11-20,0.9874673033422561,0.9885767352706522,0.11235125706350324,1,True
2023-11-21,0.9885767352706522,0.9860955697879666,-0.25098360037839607,0,True
2023-11-22,0.9860955697879666,0.9836330692256516,-0.2497223025598294,1,True
2023-11-23,0.9836330692256516,0.9836330692256516,0.0,0,False
2023-11-24,0.9836330692256516,0.9836330692256516,0.0,0,False
2023-11-25,0.9836330692256516,0.9878251270238314,0.4261810556531964,1,True
2023-11-26,0.9878251270238314,0.9878251270238314,0.0,0,False
2023-11-27,0.9878251270238314,0.9839407885873023,-0.3932212625763043,2,True
2023-11-28,0.9839407885873023,0.9814838020576846,-0.2497087790359176,1,True
2023-11-29,0.9814838020576846,0.9765795242277725,-0.4996799559636389,2,True
2023-11-30,0.9765795242277725,0.9755222768123577,-0.10826024805822287,1,True
2023-12-01,0.9755222768123577,0.9755222768123577,0.0,0,False
2023-12-02,0.9755222768123577,0.9799665589764501,0.4555797719570931,1,True
2023-12-03,0.9799665589764501,0.9804069228803453,0.04493662562885525,1,True
2023-12-04,0.9804069228803453,0.987605156462961,0.7342087672604247,5,True
2023-12-05,0.987605156462961,0.9898847598381758,0.23082133181433484,1,True
2023-12-06,0.9898847598381758,0.9869535059218593,-0.2961207238704966,0,True
2023-12-07,0.9869535059218593,0.9844901720816686,-0.24958965396144617,1,True
2023-12-08,0.9844901720816686,0.9844901720816686,0.0,0,False
2023-12-09,0.9844901720816686,0.9844901720816686,0.0,0,False
2023-12-10,0.9844901720816686,0.9844901720816686,0.0,0,False
2023-12-11,0.9844901720816686,0.9921356728953544,0.776594935175412,4,True
2023-12-12,0.9921356728953544,0.9921356728953544,0.0,0,False
2023-12-13,0.9921356728953544,0.9916188707519671,-0.05208986608445931,1,True
2023-12-14,0.9916188707519671,0.9916188707519671,0.0,0,False
2023-12-15,0.9916188707519671,0.9916188707519671,0.0,0,False
2023-12-16,0.9916188707519671,0.990630903175599,-0.0996317844999206,1,True
2023-12-17,0.990630903175599,0.9881581011346217,-0.2496189078142419,1,True
2023-12-18,0.9881581011346217,0.9906157273377458,0.24870779284229538,1,True
2023-12-19,0.9906157273377458,0.9888414732353514,-0.1791061915766945,0,True
2023-12-20,0.9888414732353514,0.9888414732353514,0.0,0,False
2023-12-21,0.9888414732353514,0.9863728581020359,-0.24964720838807075,1,True
2023-12-22,0.9863728581020359,0.9863728581020359,0.0,0,False
2023-12-23,0.9863728581020359,0.9863728581020359,0.0,0,False
2023-12-24,0.9863728581020359,0.9852808943634722,-0.11070496613875269,1,True
2023-12-25,0.9852808943634722,0.9839125193772396,-0.13888171323129805,0,True
2023-12-26,0.9839125193772396,0.9839125193772396,0.0,0,False
2023-12-27,0.9839125193772396,0.9797395465021623,-0.42412031485467017,2,True
2023-12-28,0.9797395465021623,0.9807157529644284,0.09963938536023953,1,True
2023-12-29,0.9807157529644284,0.977372482415553,-0.34090107544103576,1,True
2023-12-30,0.977372482415553,0.9793772114723235,0.2051141292433334,2,True
2023-12-31,0.9793772114723235,0.9769317861730651,-0.24969187261179027,1,True
