day,start_equity,end_equity,return_pct,entries,active
2024-01-02,1.0,0.9985290200988501,-0.14709799011498603,1,True
2024-01-03,0.9985290200988501,0.9938446512759953,-0.4691269586126867,9,True
2024-01-04,0.9938446512759953,1.0129172030898006,1.9190677123751776,7,True
2024-01-05,1.0129172030898006,0.9980307856927605,-1.4696578705180041,4,True
2024-01-06,0.9980307856927605,0.9919957210461454,-0.6046972431242192,7,True
2024-01-07,0.9919957210461454,0.9831960795695666,-0.8870644590380783,3,True
2024-01-08,0.9831960795695666,0.9624516924011441,-2.10989319419419,5,True
2024-01-09,0.9624516924011441,0.9624516924011441,0.0,0,False
2024-01-10,0.9624516924011441,0.9612172080435073,-0.12826455264024483,4,True
2024-01-11,0.9612172080435073,0.9625205198116219,0.13558972490383958,3,True
2024-01-12,0.9625205198116219,0.9550256952704886,-0.7786664685964451,7,True
2024-01-13,0.9550256952704886,0.9483972106688354,-0.6940634827396819,10,True
2024-01-14,0.9483972106688354,0.9548976393949262,0.6854120460251689,0,True
2024-01-15,0.9548976393949262,0.9502566339184055,-0.48602125348864433,2,True
2024-01-16,0.9502566339184055,0.9498605932534908,-0.04167723231582876,1,True
2024-01-17,0.9498605932534908,0.9526819041501117,0.29702368080744,0,True
2024-01-18,0.9526819041501117,0.9504140294943123,-0.23805161470160652,1,True
2024-01-19,0.9504140294943123,0.9469277738717115,-0.3668144108158633,1,True
2024-01-20,0.9469277738717115,0.9715402990956928,2.599197732193237,7,True
2024-01-21,0.9715402990956928,0.9708099034509723,-0.07517914031980322,1,True
2024-01-22,0.9708099034509723,0.9541049751170422,-1.720720840871992,4,True
2024-01-23,0.9541049751170422,0.9341533962838265,-2.0911303633825096,9,True
2024-01-24,0.9341533962838265,0.9316115560901442,-0.27210094228571347,1,True
2024-01-25,0.9316115560901442,0.9265632169553961,-0.5418931422378814,2,True
2024-01-26,0.9265632169553961,0.9265632169553961,0.0,0,False
2024-01-27,0.9265632169553961,0.9265632169553961,0.0,0,False
2024-01-28,0.9265632169553961,0.9240448900390709,-0.27179223934663543,2,True
2024-01-29,0.9240448900390709,0.9240448900390709,0.0,0,False
2024-01-30,0.9240448900390709,0.9240448900390709,0.0,0,False
2024-01-31,0.9240448900390709,0.9198869464705552,-0.449972032023227,1,True
2024-02-01,0.9198869464705552,0.9198869464705552,0.0,0,False
2024-02-02,0.9198869464705552,0.9197645196247237,-0.013308901305886245,2,True
2024-02-03,0.9197645196247237,0.9244533137579917,0.5097820184650104,1,True
2024-02-04,0.9244533137579917,0.9233039293540531,-0.12433125468134243,1,True
2024-02-05,0.9233039293540531,0.9233039293540531,0.0,0,False
2024-02-06,0.9233039293540531,0.9202047854974775,-0.3356580382739005,2,True
2024-02-07,0.9202047854974775,0.9190071756329019,-0.13014601569673045,4,True
2024-02-08,0.9190071756329019,0.9277332978205216,0.9495162191318185,1,True
2024-02-09,0.9277332978205216,0.9341767751350546,0.6945398348501941,0,True
2024-02-10,0.9341767751350546,0.9314133437253782,-0.295814612740386,2,True
2024-02-11,0.9314133437253782,0.9308216600940404,-0.06352535480876886,0,True
2024-02-12,0.9308216600940404,0.9312735947193992,0.04855222484971833,1,True
2024-02-13,0.9312735947193992,0.9312735947193992,0.0,0,False
2024-02-14,0.9312735947193992,0.9321344244946785,0.09243575466548748,2,True
2024-02-15,0.9321344244946785,0.9392511117728838,0.7634829367087592,1,True
2024-02-16,0.9392511117728838,0.939055146480356,-0.020863993672348702,3,True
2024-02-17,0.939055146480356,0.9377468322588361,-0.1393224057632314,5,True
2024-02-18,0.9377468322588361,0.9413300174065902,0.38210581198370175,1,True
2024-02-19,0.9413300174065902,0.9415123281589406,0.019367357778810046,2,True
2024-02-20,0.9415123281589406,0.9409458845166876,-0.06016316784301923,10,True
2024-02-21,0.9409458845166876,0.9349106630105227,-0.6413994264149236,7,True
2024-02-22,0.9349106630105227,0.9472509722927022,1.3199452921461186,4,True
2024-02-23,0.9472509722927022,0.9447773133942484,-0.26114081387180743,3,True
2024-02-24,0.9447773133942484,0.939923506263574,-0.51375144828959,8,True
2024-02-25,0.939923506263574,0.9315650800966901,-0.8892666383151338,4,True
2024-02-26,0.9315650800966901,0.9277736929441049,-0.40699111995392556,5,True
2024-02-27,0.9277736929441049,0.927763782446974,-0.0010682019986441027,3,True
2024-02-28,0.927763782446974,0.9443630044825497,1.7891646936028627,5,True
2024-02-29,0.9443630044825497,0.9497432322257773,0.5697203001059581,8,True
2024-03-01,0.9497432322257773,0.9491309923417298,-0.06446372696046199,6,True
2024-03-02,0.9491309923417298,0.9479358279837024,-0.12592196100126296,5,True
2024-03-03,0.9479358279837024,0.9517021087032843,0.3973138907085172,10,True
2024-03-04,0.9517021087032843,0.9559815983912536,0.4496669334693726,1,True
2024-03-05,0.9559815983912536,0.9699430444177207,1.460430415183911,12,True
2024-03-06,0.9699430444177207,0.9482520781525945,-2.2363133990148665,9,True
2024-03-07,0.9482520781525945,0.9491609884554792,0.09585112691294917,5,True
2024-03-08,0.9491609884554792,0.9479156309921533,-0.1312061366273043,5,True
2024-03-09,0.9479156309921533,0.94189856686343,-0.6347678983229077,5,True
2024-03-10,0.94189856686343,0.9471900394550993,0.5617879438218232,9,True
2024-03-11,0.9471900394550993,0.9519559308878476,0.5031610589454782,3,True
2024-03-12,0.9519559308878476,0.9517757470332847,-0.018927751665442916,4,True
2024-03-13,0.9517757470332847,0.9584712031106276,0.7034699190658023,5,True
2024-03-14,0.9584712031106276,0.959021069471782,0.05736910606910506,5,True
2024-03-15,0.959021069471782,0.951057907275507,-0.8303427786691908,18,True
2024-03-16,0.951057907275507,0.9497359768087862,-0.13899579159251108,3,True
2024-03-17,0.9497359768087862,0.944309455713797,-0.5713715419334631,8,True
2024-03-18,0.944309455713797,0.945419081976494,0.11750663471417067,4,True
2024-03-19,0.945419081976494,0.9255604193801139,-2.100514256054953,10,True
2024-03-20,0.9255604193801139,0.9192297150993111,-0.6839860638209627,4,True
2024-03-21,0.9192297150993111,0.9170335589832289,-0.23891265480303625,4,True
2024-03-22,0.9170335589832289,0.9163290384464721,-0.07682603650165376,9,True
2024-03-23,0.9163290384464721,0.9185966509123394,0.2474670528516576,7,True
2024-03-24,0.9185966509123394,0.9157126874181458,-0.3139531905901549,4,True
2024-03-25,0.9157126874181458,0.9201563311438679,0.485266152449082,4,True
2024-03-26,0.9201563311438679,0.9324280221812007,1.3336528394123581,5,True
2024-03-27,0.9324280221812007,0.9300238253728882,-0.2578426163864611,7,True
2024-03-28,0.9300238253728882,0.925116625716958,-0.5276423594807067,2,True
2024-03-29,0.925116625716958,0.9228661399399555,-0.24326508836206573,6,True
2024-03-30,0.9228661399399555,0.9183186559626983,-0.4927566177206355,2,True
2024-03-31,0.9183186559626983,0.9183186559626983,0.0,0,False
2024-04-01,0.9183186559626983,0.9190190035830205,0.07626411766490371,5,True
2024-04-02,0.9190190035830205,0.9168948686945563,-0.23113068175769635,6,True
2024-04-03,0.9168948686945563,0.9131603790275843,-0.4072974770039872,3,True
2024-04-04,0.9131603790275843,0.9128752220367581,-0.031227481762829967,1,True
2024-04-05,0.9128752220367581,0.9092171415756309,-0.4007207527185863,5,True
2024-04-06,0.9092171415756309,0.908334374284267,-0.09709092041909617,1,True
2024-04-07,0.908334374284267,0.9146720132050379,0.6977209164592768,3,True
2024-04-08,0.9146720132050379,0.911427899140685,-0.3546751204276388,1,True
2024-04-09,0.911427899140685,0.9058573425932706,-0.6111900406676751,3,True
2024-04-10,0.9058573425932706,0.9035073996808317,-0.25941644472533554,5,True
2024-04-11,0.9035073996808317,0.9045818335121046,0.11891809980222323,1,True
2024-04-12,0.9045818335121046,0.8986121247267808,-0.6599412639259006,9,True
2024-04-13,0.8986121247267808,0.8897390130721282,-0.98742398533187,13,True
2024-04-14,0.8897390130721282,0.8694853481784616,-2.276360213062245,11,True
2024-04-15,0.8694853481784616,0.868833360944042,-0.07498541933863567,4,True
2024-04-16,0.868833360944042,0.868833360944042,0.0,0,False
2024-04-17,0.868833360944042,0.868833360944042,0.0,0,False
2024-04-18,0.868833360944042,0.868833360944042,0.0,0,False
2024-04-19,0.868833360944042,0.868833360944042,0.0,0,False
2024-04-20,0.868833360944042,0.868833360944042,0.0,0,False
2024-04-21,0.868833360944042,0.868833360944042,0.0,0,False
2024-04-22,0.868833360944042,0.868833360944042,0.0,0,False
2024-04-23,0.868833360944042,0.868833360944042,0.0,0,False
2024-04-24,0.868833360944042,0.868833360944042,0.0,0,False
2024-04-25,0.868833360944042,0.868833360944042,0.0,0,False
2024-04-26,0.868833360944042,0.868833360944042,0.0,0,False
2024-04-27,0.868833360944042,0.868833360944042,0.0,0,False
2024-04-28,0.868833360944042,0.868833360944042,0.0,0,False
2024-04-29,0.868833360944042,0.868833360944042,0.0,0,False
2024-04-30,0.868833360944042,0.868833360944042,0.0,0,False
2024-05-01,0.868833360944042,0.868833360944042,0.0,0,False
2024-05-02,0.868833360944042,0.868833360944042,0.0,0,False
2024-05-03,0.868833360944042,0.868833360944042,0.0,0,False
2024-05-04,0.868833360944042,0.868833360944042,0.0,0,False
2024-05-05,0.868833360944042,0.868833360944042,0.0,0,False
2024-05-06,0.868833360944042,0.868833360944042,0.0,0,False
2024-05-07,0.868833360944042,0.868833360944042,0.0,0,False
2024-05-08,0.868833360944042,0.868833360944042,0.0,0,False
2024-05-09,0.868833360944042,0.868833360944042,0.0,0,False
2024-05-10,0.868833360944042,0.868833360944042,0.0,0,False
2024-05-11,0.868833360944042,0.868833360944042,0.0,0,False
2024-05-12,0.868833360944042,0.868833360944042,0.0,0,False
2024-05-13,0.868833360944042,0.868833360944042,0.0,0,False
2024-05-14,0.868833360944042,0.868833360944042,0.0,0,False
2024-05-15,0.868833360944042,0.868833360944042,0.0,0,False
2024-05-16,0.868833360944042,0.868833360944042,0.0,0,False
2024-05-17,0.868833360944042,0.868833360944042,0.0,0,False
2024-05-18,0.868833360944042,0.868833360944042,0.0,0,False
2024-05-19,0.868833360944042,0.868833360944042,0.0,0,False
2024-05-20,0.868833360944042,0.868833360944042,0.0,0,False
2024-05-21,0.868833360944042,0.868833360944042,0.0,0,False
2024-05-22,0.868833360944042,0.868833360944042,0.0,0,False
2024-05-23,0.868833360944042,0.868833360944042,0.0,0,False
2024-05-24,0.868833360944042,0.868833360944042,0.0,0,False
2024-05-25,0.868833360944042,0.868833360944042,0.0,0,False
2024-05-26,0.868833360944042,0.868833360944042,0.0,0,False
2024-05-27,0.868833360944042,0.868833360944042,0.0,0,False
2024-05-28,0.868833360944042,0.868833360944042,0.0,0,False
2024-05-29,0.868833360944042,0.868833360944042,0.0,0,False
2024-05-30,0.868833360944042,0.868833360944042,0.0,0,False
2024-05-31,0.868833360944042,0.868833360944042,0.0,0,False
2024-06-01,0.868833360944042,0.868833360944042,0.0,0,False
2024-06-02,0.868833360944042,0.868833360944042,0.0,0,False
2024-06-03,0.868833360944042,0.868833360944042,0.0,0,False
2024-06-04,0.868833360944042,0.868833360944042,0.0,0,False
2024-06-05,0.868833360944042,0.868833360944042,0.0,0,False
2024-06-06,0.868833360944042,0.868833360944042,0.0,0,False
2024-06-07,0.868833360944042,0.868833360944042,0.0,0,False
2024-06-08,0.868833360944042,0.868833360944042,0.0,0,False
2024-06-09,0.868833360944042,0.868833360944042,0.0,0,False
2024-06-10,0.868833360944042,0.868833360944042,0.0,0,False
2024-06-11,0.868833360944042,0.868833360944042,0.0,0,False
2024-06-12,0.868833360944042,0.868833360944042,0.0,0,False
2024-06-13,0.868833360944042,0.868833360944042,0.0,0,False
2024-06-14,0.868833360944042,0.868833360944042,0.0,0,False
2024-06-15,0.868833360944042,0.868833360944042,0.0,0,False
2024-06-16,0.868833360944042,0.868833360944042,0.0,0,False
2024-06-17,0.868833360944042,0.868833360944042,0.0,0,False
2024-06-18,0.868833360944042,0.868833360944042,0.0,0,False
2024-06-19,0.868833360944042,0.868833360944042,0.0,0,False
2024-06-20,0.868833360944042,0.868833360944042,0.0,0,False
2024-06-21,0.868833360944042,0.868833360944042,0.0,0,False
2024-06-22,0.868833360944042,0.868833360944042,0.0,0,False
2024-06-23,0.868833360944042,0.868833360944042,0.0,0,False
2024-06-24,0.868833360944042,0.868833360944042,0.0,0,False
2024-06-25,0.868833360944042,0.868833360944042,0.0,0,False
2024-06-26,0.868833360944042,0.868833360944042,0.0,0,False
2024-06-27,0.868833360944042,0.868833360944042,0.0,0,False
2024-06-28,0.868833360944042,0.868833360944042,0.0,0,False
2024-06-29,0.868833360944042,0.868833360944042,0.0,0,False
2024-06-30,0.868833360944042,0.868833360944042,0.0,0,False
2024-07-01,0.868833360944042,0.868833360944042,0.0,0,False
2024-07-02,0.868833360944042,0.868833360944042,0.0,0,False
2024-07-03,0.868833360944042,0.868833360944042,0.0,0,False
2024-07-04,0.868833360944042,0.868833360944042,0.0,0,False
2024-07-05,0.868833360944042,0.868833360944042,0.0,0,False
2024-07-06,0.868833360944042,0.868833360944042,0.0,0,False
2024-07-07,0.868833360944042,0.868833360944042,0.0,0,False
2024-07-08,0.868833360944042,0.868833360944042,0.0,0,False
2024-07-09,0.868833360944042,0.868833360944042,0.0,0,False
2024-07-10,0.868833360944042,0.868833360944042,0.0,0,False
2024-07-11,0.868833360944042,0.868833360944042,0.0,0,False
2024-07-12,0.868833360944042,0.868833360944042,0.0,0,False
2024-07-13,0.868833360944042,0.868833360944042,0.0,0,False
2024-07-14,0.868833360944042,0.868833360944042,0.0,0,False
2024-07-15,0.868833360944042,0.868833360944042,0.0,0,False
2024-07-16,0.868833360944042,0.868833360944042,0.0,0,False
2024-07-17,0.868833360944042,0.868833360944042,0.0,0,False
2024-07-18,0.868833360944042,0.868833360944042,0.0,0,False
2024-07-19,0.868833360944042,0.868833360944042,0.0,0,False
2024-07-20,0.868833360944042,0.868833360944042,0.0,0,False
2024-07-21,0.868833360944042,0.868833360944042,0.0,0,False
2024-07-22,0.868833360944042,0.868833360944042,0.0,0,False
2024-07-23,0.868833360944042,0.868833360944042,0.0,0,False
2024-07-24,0.868833360944042,0.868833360944042,0.0,0,False
2024-07-25,0.868833360944042,0.868833360944042,0.0,0,False
2024-07-26,0.868833360944042,0.868833360944042,0.0,0,False
2024-07-27,0.868833360944042,0.868833360944042,0.0,0,False
2024-07-28,0.868833360944042,0.868833360944042,0.0,0,False
2024-07-29,0.868833360944042,0.868833360944042,0.0,0,False
2024-07-30,0.868833360944042,0.868833360944042,0.0,0,False
2024-07-31,0.868833360944042,0.868833360944042,0.0,0,False
2024-08-01,0.868833360944042,0.868833360944042,0.0,0,False
2024-08-02,0.868833360944042,0.868833360944042,0.0,0,False
2024-08-03,0.868833360944042,0.868833360944042,0.0,0,False
2024-08-04,0.868833360944042,0.868833360944042,0.0,0,False
2024-08-05,0.868833360944042,0.868833360944042,0.0,0,False
2024-08-06,0.868833360944042,0.868833360944042,0.0,0,False
2024-08-07,0.868833360944042,0.868833360944042,0.0,0,False
2024-08-08,0.868833360944042,0.868833360944042,0.0,0,False
2024-08-09,0.868833360944042,0.868833360944042,0.0,0,False
2024-08-10,0.868833360944042,0.868833360944042,0.0,0,False
2024-08-11,0.868833360944042,0.868833360944042,0.0,0,False
2024-08-12,0.868833360944042,0.868833360944042,0.0,0,False
2024-08-13,0.868833360944042,0.868833360944042,0.0,0,False
2024-08-14,0.868833360944042,0.868833360944042,0.0,0,False
2024-08-15,0.868833360944042,0.868833360944042,0.0,0,False
2024-08-16,0.868833360944042,0.868833360944042,0.0,0,False
2024-08-17,0.868833360944042,0.868833360944042,0.0,0,False
2024-08-18,0.868833360944042,0.868833360944042,0.0,0,False
2024-08-19,0.868833360944042,0.868833360944042,0.0,0,False
2024-08-20,0.868833360944042,0.868833360944042,0.0,0,False
2024-08-21,0.868833360944042,0.868833360944042,0.0,0,False
2024-08-22,0.868833360944042,0.868833360944042,0.0,0,False
2024-08-23,0.868833360944042,0.868833360944042,0.0,0,False
2024-08-24,0.868833360944042,0.868833360944042,0.0,0,False
2024-08-25,0.868833360944042,0.868833360944042,0.0,0,False
2024-08-26,0.868833360944042,0.868833360944042,0.0,0,False
2024-08-27,0.868833360944042,0.868833360944042,0.0,0,False
2024-08-28,0.868833360944042,0.868833360944042,0.0,0,False
2024-08-29,0.868833360944042,0.868833360944042,0.0,0,False
2024-08-30,0.868833360944042,0.868833360944042,0.0,0,False
2024-08-31,0.868833360944042,0.868833360944042,0.0,0,False
2024-09-01,0.868833360944042,0.868833360944042,0.0,0,False
2024-09-02,0.868833360944042,0.868833360944042,0.0,0,False
2024-09-03,0.868833360944042,0.868833360944042,0.0,0,False
2024-09-04,0.868833360944042,0.868833360944042,0.0,0,False
2024-09-05,0.868833360944042,0.868833360944042,0.0,0,False
2024-09-06,0.868833360944042,0.868833360944042,0.0,0,False
2024-09-07,0.868833360944042,0.868833360944042,0.0,0,False
2024-09-08,0.868833360944042,0.868833360944042,0.0,0,False
2024-09-09,0.868833360944042,0.868833360944042,0.0,0,False
2024-09-10,0.868833360944042,0.868833360944042,0.0,0,False
2024-09-11,0.868833360944042,0.868833360944042,0.0,0,False
2024-09-12,0.868833360944042,0.868833360944042,0.0,0,False
2024-09-13,0.868833360944042,0.868833360944042,0.0,0,False
2024-09-14,0.868833360944042,0.868833360944042,0.0,0,False
2024-09-15,0.868833360944042,0.868833360944042,0.0,0,False
2024-09-16,0.868833360944042,0.868833360944042,0.0,0,False
2024-09-17,0.868833360944042,0.868833360944042,0.0,0,False
2024-09-18,0.868833360944042,0.868833360944042,0.0,0,False
2024-09-19,0.868833360944042,0.868833360944042,0.0,0,False
2024-09-20,0.868833360944042,0.868833360944042,0.0,0,False
2024-09-21,0.868833360944042,0.868833360944042,0.0,0,False
2024-09-22,0.868833360944042,0.868833360944042,0.0,0,False
2024-09-23,0.868833360944042,0.868833360944042,0.0,0,False
2024-09-24,0.868833360944042,0.868833360944042,0.0,0,False
2024-09-25,0.868833360944042,0.868833360944042,0.0,0,False
2024-09-26,0.868833360944042,0.868833360944042,0.0,0,False
2024-09-27,0.868833360944042,0.868833360944042,0.0,0,False
2024-09-28,0.868833360944042,0.868833360944042,0.0,0,False
2024-09-29,0.868833360944042,0.868833360944042,0.0,0,False
2024-09-30,0.868833360944042,0.868833360944042,0.0,0,False
2024-10-01,0.868833360944042,0.868833360944042,0.0,0,False
2024-10-02,0.868833360944042,0.868833360944042,0.0,0,False
2024-10-03,0.868833360944042,0.868833360944042,0.0,0,False
2024-10-04,0.868833360944042,0.868833360944042,0.0,0,False
2024-10-05,0.868833360944042,0.868833360944042,0.0,0,False
2024-10-06,0.868833360944042,0.868833360944042,0.0,0,False
2024-10-07,0.868833360944042,0.868833360944042,0.0,0,False
2024-10-08,0.868833360944042,0.868833360944042,0.0,0,False
2024-10-09,0.868833360944042,0.868833360944042,0.0,0,False
2024-10-10,0.868833360944042,0.868833360944042,0.0,0,False
2024-10-11,0.868833360944042,0.868833360944042,0.0,0,False
2024-10-12,0.868833360944042,0.868833360944042,0.0,0,False
2024-10-13,0.868833360944042,0.868833360944042,0.0,0,False
2024-10-14,0.868833360944042,0.868833360944042,0.0,0,False
2024-10-15,0.868833360944042,0.868833360944042,0.0,0,False
2024-10-16,0.868833360944042,0.868833360944042,0.0,0,False
2024-10-17,0.868833360944042,0.868833360944042,0.0,0,False
2024-10-18,0.868833360944042,0.868833360944042,0.0,0,False
2024-10-19,0.868833360944042,0.868833360944042,0.0,0,False
2024-10-20,0.868833360944042,0.868833360944042,0.0,0,False
2024-10-21,0.868833360944042,0.868833360944042,0.0,0,False
2024-10-22,0.868833360944042,0.868833360944042,0.0,0,False
2024-10-23,0.868833360944042,0.868833360944042,0.0,0,False
2024-10-24,0.868833360944042,0.868833360944042,0.0,0,False
2024-10-25,0.868833360944042,0.868833360944042,0.0,0,False
2024-10-26,0.868833360944042,0.868833360944042,0.0,0,False
2024-10-27,0.868833360944042,0.868833360944042,0.0,0,False
2024-10-28,0.868833360944042,0.868833360944042,0.0,0,False
2024-10-29,0.868833360944042,0.868833360944042,0.0,0,False
2024-10-30,0.868833360944042,0.868833360944042,0.0,0,False
2024-10-31,0.868833360944042,0.868833360944042,0.0,0,False
2024-11-01,0.868833360944042,0.868833360944042,0.0,0,False
2024-11-02,0.868833360944042,0.868833360944042,0.0,0,False
2024-11-03,0.868833360944042,0.868833360944042,0.0,0,False
2024-11-04,0.868833360944042,0.868833360944042,0.0,0,False
2024-11-05,0.868833360944042,0.868833360944042,0.0,0,False
2024-11-06,0.868833360944042,0.868833360944042,0.0,0,False
2024-11-07,0.868833360944042,0.868833360944042,0.0,0,False
2024-11-08,0.868833360944042,0.868833360944042,0.0,0,False
2024-11-09,0.868833360944042,0.868833360944042,0.0,0,False
2024-11-10,0.868833360944042,0.868833360944042,0.0,0,False
2024-11-11,0.868833360944042,0.868833360944042,0.0,0,False
2024-11-12,0.868833360944042,0.868833360944042,0.0,0,False
2024-11-13,0.868833360944042,0.868833360944042,0.0,0,False
2024-11-14,0.868833360944042,0.868833360944042,0.0,0,False
2024-11-15,0.868833360944042,0.868833360944042,0.0,0,False
2024-11-16,0.868833360944042,0.868833360944042,0.0,0,False
2024-11-17,0.868833360944042,0.868833360944042,0.0,0,False
2024-11-18,0.868833360944042,0.868833360944042,0.0,0,False
2024-11-19,0.868833360944042,0.868833360944042,0.0,0,False
2024-11-20,0.868833360944042,0.868833360944042,0.0,0,False
2024-11-21,0.868833360944042,0.868833360944042,0.0,0,False
2024-11-22,0.868833360944042,0.868833360944042,0.0,0,False
2024-11-23,0.868833360944042,0.868833360944042,0.0,0,False
2024-11-24,0.868833360944042,0.868833360944042,0.0,0,False
2024-11-25,0.868833360944042,0.868833360944042,0.0,0,False
2024-11-26,0.868833360944042,0.868833360944042,0.0,0,False
2024-11-27,0.868833360944042,0.868833360944042,0.0,0,False
2024-11-28,0.868833360944042,0.868833360944042,0.0,0,False
2024-11-29,0.868833360944042,0.868833360944042,0.0,0,False
2024-11-30,0.868833360944042,0.868833360944042,0.0,0,False
2024-12-01,0.868833360944042,0.868833360944042,0.0,0,False
2024-12-02,0.868833360944042,0.868833360944042,0.0,0,False
2024-12-03,0.868833360944042,0.868833360944042,0.0,0,False
2024-12-04,0.868833360944042,0.868833360944042,0.0,0,False
2024-12-05,0.868833360944042,0.868833360944042,0.0,0,False
2024-12-06,0.868833360944042,0.868833360944042,0.0,0,False
2024-12-07,0.868833360944042,0.868833360944042,0.0,0,False
2024-12-08,0.868833360944042,0.868833360944042,0.0,0,False
2024-12-09,0.868833360944042,0.868833360944042,0.0,0,False
2024-12-10,0.868833360944042,0.868833360944042,0.0,0,False
2024-12-11,0.868833360944042,0.868833360944042,0.0,0,False
2024-12-12,0.868833360944042,0.868833360944042,0.0,0,False
2024-12-13,0.868833360944042,0.868833360944042,0.0,0,False
2024-12-14,0.868833360944042,0.868833360944042,0.0,0,False
2024-12-15,0.868833360944042,0.868833360944042,0.0,0,False
2024-12-16,0.868833360944042,0.868833360944042,0.0,0,False
2024-12-17,0.868833360944042,0.868833360944042,0.0,0,False
2024-12-18,0.868833360944042,0.868833360944042,0.0,0,False
2024-12-19,0.868833360944042,0.868833360944042,0.0,0,False
2024-12-20,0.868833360944042,0.868833360944042,0.0,0,False
2024-12-21,0.868833360944042,0.868833360944042,0.0,0,False
2024-12-22,0.868833360944042,0.868833360944042,0.0,0,False
2024-12-23,0.868833360944042,0.868833360944042,0.0,0,False
2024-12-24,0.868833360944042,0.868833360944042,0.0,0,False
2024-12-25,0.868833360944042,0.868833360944042,0.0,0,False
2024-12-26,0.868833360944042,0.868833360944042,0.0,0,False
2024-12-27,0.868833360944042,0.868833360944042,0.0,0,False
2024-12-28,0.868833360944042,0.868833360944042,0.0,0,False
2024-12-29,0.868833360944042,0.868833360944042,0.0,0,False
2024-12-30,0.868833360944042,0.868833360944042,0.0,0,False
2024-12-31,0.868833360944042,0.868833360944042,0.0,0,False
