day,start_equity,end_equity,return_pct,entries,active
2024-01-02,1.0,0.9990134675237569,-0.09865324762431404,1,True
2024-01-03,0.9990134675237569,0.9919886107270097,-0.7031793889785698,9,True
2024-01-04,0.9919886107270097,0.9987143458755809,0.6780052790769542,0,True
2024-01-05,0.9987143458755809,0.9841322155954365,-1.4600901990008075,4,True
2024-01-06,0.9841322155954365,0.9742403656979395,-1.0051342432187416,7,True
2024-01-07,0.9742403656979395,0.9727296673288808,-0.1550642348899678,3,True
2024-01-08,0.9727296673288808,0.9680817046476495,-0.4778267629067523,7,True
2024-01-09,0.9680817046476495,0.9770474375741574,0.9261339082707876,0,True
2024-01-10,0.9770474375741574,0.9679017781577828,-0.9360507038513544,4,True
2024-01-11,0.9679017781577828,0.985777892392415,1.8468934181168573,3,True
2024-01-12,0.985777892392415,0.9797297936217635,-0.613535647058705,5,True
2024-01-13,0.9797297936217635,0.9716372103426384,-0.8260015497956075,6,True
2024-01-14,0.9716372103426384,0.9768889640657625,0.5405056195071145,0,True
2024-01-15,0.9768889640657625,0.9714832015515444,-0.5533650919465338,2,True
2024-01-16,0.9714832015515444,0.9726831144671035,0.12351350117456583,1,True
2024-01-17,0.9726831144671035,0.9781596882262524,0.5630378154708016,0,True
2024-01-18,0.9781596882262524,0.9773865715492691,-0.07903787963141617,1,True
2024-01-19,0.9773865715492691,0.9684148531355383,-0.9179293715392056,1,True
2024-01-20,0.9684148531355383,0.9917171469091512,2.406230521781505,7,True
2024-01-21,0.9917171469091512,1.0050939256605624,1.3488502032159122,1,True
2024-01-22,1.0050939256605624,0.9833758972726316,-2.1607959050849335,4,True
2024-01-23,0.9833758972726316,0.9581000763318638,-2.570311211701415,8,True
2024-01-24,0.9581000763318638,0.9675685932989833,0.9882597028245899,1,True
2024-01-25,0.9675685932989833,0.9576954888728101,-1.0204035656542154,2,True
2024-01-26,0.9576954888728101,0.9576954888728101,0.0,0,False
2024-01-27,0.9576954888728101,0.9576954888728101,0.0,0,False
2024-01-28,0.9576954888728101,0.9557951520229109,-0.19842808825756286,1,True
2024-01-29,0.9557951520229109,0.9529095333651587,-0.3019076474331195,0,True
2024-01-30,0.9529095333651587,0.9529095333651587,0.0,0,False
2024-01-31,0.9529095333651587,0.9481562486063344,-0.4988180506535933,1,True
2024-02-01,0.9481562486063344,0.9481562486063344,0.0,0,False
2024-02-02,0.9481562486063344,0.9479026367325751,-0.026747898791157354,2,True
2024-02-03,0.9479026367325751,0.9581375026302779,1.0797380976787174,1,True
2024-02-04,0.9581375026302779,0.9568139004794042,-0.13814323593849265,1,True
2024-02-05,0.9568139004794042,0.9568139004794042,0.0,0,False
2024-02-06,0.9568139004794042,0.9504084088208282,-0.669460556056567,2,True
2024-02-07,0.9504084088208282,0.9458805110010352,-0.4764160099773096,4,True
2024-02-08,0.9458805110010352,0.9720853350848843,2.7704159012766016,1,True
2024-02-09,0.9720853350848843,0.9720853350848843,0.0,0,False
2024-02-10,0.9720853350848843,0.966336456155802,-0.5913965288428358,2,True
2024-02-11,0.966336456155802,0.9644437976248765,-0.195859166739365,0,True
2024-02-12,0.9644437976248765,0.9665897257239814,0.2225042148012779,1,True
2024-02-13,0.9665897257239814,0.9666627085159779,0.007550544978318641,0,True
2024-02-14,0.9666627085159779,0.968449925525868,0.1848852753028707,2,True
2024-02-15,0.968449925525868,0.9721566641083207,0.3827496378235651,1,True
2024-02-16,0.9721566641083207,0.9754779700180612,0.34164307383388604,3,True
2024-02-17,0.9754779700180612,0.979237600155817,0.38541415114541344,5,True
2024-02-18,0.979237600155817,0.9830371918131501,0.38801529442176186,1,True
2024-02-19,0.9830371918131501,0.984520713938416,0.15091210562743207,2,True
2024-02-20,0.984520713938416,0.9837160840285399,-0.08172808336934789,8,True
2024-02-21,0.9837160840285399,0.9781599952556917,-0.5648061328930143,7,True
2024-02-22,0.9781599952556917,1.0289186577475262,5.189198366118641,4,True
2024-02-23,1.0289186577475262,1.0257957579431853,-0.30351279771497763,3,True
2024-02-24,1.0257957579431853,1.0224650145330165,-0.32469849717913224,5,True
2024-02-25,1.0224650145330165,1.01375658597016,-0.8517091968015977,4,True
2024-02-26,1.01375658597016,1.0118610516177153,-0.18698121212507024,4,True
2024-02-27,1.0118610516177153,1.0141797307301328,0.22914995183482834,2,True
2024-02-28,1.0141797307301328,1.0256147064613517,1.1275097879334117,5,True
2024-02-29,1.0256147064613517,1.0276755028012228,0.20093279931421293,8,True
2024-03-01,1.0276755028012228,1.0270935507799428,-0.05662799392354145,5,True
2024-03-02,1.0270935507799428,1.0332799369969996,0.6023196438492917,4,True
2024-03-03,1.0332799369969996,1.036669239725351,0.3280139879809907,9,True
2024-03-04,1.036669239725351,1.0509923169264404,1.3816438891236071,1,True
2024-03-05,1.0509923169264404,1.0507343516655692,-0.024544923565716914,10,True
2024-03-06,1.0507343516655692,1.0417397811522275,-0.8560270727880792,16,True
2024-03-07,1.0417397811522275,1.0456494985010774,0.3753065227599661,3,True
2024-03-08,1.0456494985010774,1.0506228968693452,0.47562767212121493,5,True
2024-03-09,1.0506228968693452,1.0376328659690974,-1.2364123168222885,5,True
2024-03-10,1.0376328659690974,1.0359708095357314,-0.16017769751478506,8,True
2024-03-11,1.0359708095357314,1.0378727611905336,0.18359123995534965,3,True
2024-03-12,1.0378727611905336,1.0327927696088297,-0.48946188508470767,3,True
2024-03-13,1.0327927696088297,1.0418446962775667,0.8764513981023958,5,True
2024-03-14,1.0418446962775667,1.0451088983210706,0.3133098488830921,5,True
2024-03-15,1.0451088983210706,1.0069912116008806,-3.647245447955205,14,True
2024-03-16,1.0069912116008806,1.015902989341424,0.8849906173834299,3,True
2024-03-17,1.015902989341424,1.0078287484700224,-0.7947846355522481,6,True
2024-03-18,1.0078287484700224,1.0145771450594536,0.6695975481624261,4,True
2024-03-19,1.0145771450594536,0.9995178511038034,-1.4842926463485173,14,True
2024-03-20,0.9995178511038034,0.9861826482757263,-1.3341635482898684,4,True
2024-03-21,0.9861826482757263,0.9857436419463609,-0.04451572232923029,4,True
2024-03-22,0.9857436419463609,0.9981650146734228,1.260101734213137,8,True
2024-03-23,0.9981650146734228,1.016955344517017,1.8824873209708715,5,True
2024-03-24,1.016955344517017,1.0242270457286522,0.7150462653882528,4,True
2024-03-25,1.0242270457286522,1.037937063869631,1.3385721650442495,4,True
2024-03-26,1.037937063869631,1.0496561239592486,1.1290723202355357,4,True
2024-03-27,1.0496561239592486,1.04533395603233,-0.4117698957078919,6,True
2024-03-28,1.04533395603233,1.0336981347641394,-1.1131199939544256,2,True
2024-03-29,1.0336981347641394,1.0289635321899206,-0.458025647429372,6,True
2024-03-30,1.0289635321899206,1.0189854900654156,-0.9697177608684493,2,True
2024-03-31,1.0189854900654156,1.0188931124930454,-0.009065641588701379,0,True
2024-04-01,1.0188931124930454,1.0174533863299537,-0.14130296352370397,5,True
2024-04-02,1.0174533863299537,0.9870098117600622,-2.9921345762781604,5,True
2024-04-03,0.9870098117600622,0.9640541530571672,-2.3257781664763555,3,True
2024-04-04,0.9640541530571672,0.9634520533875078,-0.06245496352564883,1,True
2024-04-05,0.9634520533875078,0.9571258990934356,-0.6566132971359995,5,True
2024-04-06,0.9571258990934356,0.9521952524739872,-0.515151311245321,1,True
2024-04-07,0.9521952524739872,0.9670142020352432,1.5562931576011962,3,True
2024-04-08,0.9670142020352432,0.962734916806531,-0.44252558232400485,1,True
2024-04-09,0.962734916806531,0.9527104358278673,-1.0412503798985173,3,True
2024-04-10,0.9527104358278673,0.9531183688960448,0.042818158890334246,4,True
2024-04-11,0.9531183688960448,0.9605544192618984,0.7801812039848199,1,True
2024-04-12,0.9605544192618984,0.9577477802618156,-0.29218948388571864,9,True
2024-04-13,0.9577477802618156,0.9274034646942322,-3.1682992321097614,11,True
2024-04-14,0.9274034646942322,0.9072988032770514,-2.167844113436579,11,True
2024-04-15,0.9072988032770514,0.9195098911232354,1.3458728042050838,1,True
2024-04-16,0.9195098911232354,0.9115772383215794,-0.8627044557362851,1,True
2024-04-17,0.9115772383215794,0.9104056960080269,-0.12851816218114598,0,True
2024-04-18,0.9104056960080269,0.9189657130481688,0.9402420346968476,1,True
2024-04-19,0.9189657130481688,0.9234094072357972,0.4835538610998835,5,True
2024-04-20,0.9234094072357972,0.9212380506247476,-0.23514560216031377,0,True
2024-04-21,0.9212380506247476,0.9212380506247476,0.0,0,False
2024-04-22,0.9212380506247476,0.9212380506247476,0.0,0,False
2024-04-23,0.9212380506247476,0.9312877424203128,1.0908897856259703,3,True
2024-04-24,0.9312877424203128,0.9301870324996033,-0.11819224827858132,3,True
2024-04-25,0.9301870324996033,0.9310002109447176,0.08742096123712795,2,True
2024-04-26,0.9310002109447176,0.9341925845691452,0.34289719668143537,2,True
2024-04-27,0.9341925845691452,0.9372366037548524,0.32584493133298587,6,True
2024-04-28,0.9372366037548524,0.9437631292518369,0.6963583657357386,3,True
2024-04-29,0.9437631292518369,0.9479646904864112,0.4451923479893871,2,True
2024-04-30,0.9479646904864112,0.9385364801610038,-0.9945739983806434,2,True
2024-05-01,0.9385364801610038,0.9257885041402589,-1.3582824205786825,6,True
2024-05-02,0.9257885041402589,0.9381624866249134,1.3365884788281823,3,True
2024-05-03,0.9381624866249134,0.9359057261779903,-0.2405511283063544,1,True
2024-05-04,0.9359057261779903,0.9368606442633208,0.10203143955858085,0,True
2024-05-05,0.9368606442633208,0.9329835709278046,-0.4138367172595747,1,True
2024-05-06,0.9329835709278046,0.9321830679497242,-0.08580032950465943,0,True
2024-05-07,0.9321830679497242,0.938005192213468,0.6245687637889796,3,True
2024-05-08,0.938005192213468,0.9439589117215335,0.6347213808077123,3,True
2024-05-09,0.9439589117215335,0.9376002360900706,-0.6736178399827097,1,True
2024-05-10,0.9376002360900706,0.9379795371004039,0.040454449106697155,2,True
2024-05-11,0.9379795371004039,0.9347214790470886,-0.3473485214173344,4,True
2024-05-12,0.9347214790470886,0.9290063510415366,-0.6114257705277404,0,True
2024-05-13,0.9290063510415366,0.9379631692422076,0.9641288448275054,5,True
2024-05-14,0.9379631692422076,0.9293129173086705,-0.9222379105275236,4,True
2024-05-15,0.9293129173086705,0.9317982702433167,0.26743983521115844,3,True
2024-05-16,0.9317982702433167,0.9202556575501838,-1.2387458811357166,2,True
2024-05-17,0.9202556575501838,0.9208818367003048,0.06804404243359041,0,True
2024-05-18,0.9208818367003048,0.9270829900088281,0.6733929437400255,2,True
2024-05-19,0.9270829900088281,0.9265587904995021,-0.05654288936107754,0,True
2024-05-20,0.9265587904995021,0.9306726047555651,0.4439884763108637,2,True
2024-05-21,0.9306726047555651,0.9253006470337836,-0.5772124046986904,2,True
2024-05-22,0.9253006470337836,0.9297231497472268,0.47795305532536414,1,True
2024-05-23,0.9297231497472268,0.9136149583656282,-1.7325793582722016,5,True
2024-05-24,0.9136149583656282,0.9318328871112816,1.9940488691476244,3,True
2024-05-25,0.9318328871112816,0.9308129034016812,-0.10945993897708561,0,True
2024-05-26,0.9308129034016812,0.9360712813211777,0.5649231870636484,3,True
2024-05-27,0.9360712813211777,0.9585062234280098,2.396713001937978,3,True
2024-05-28,0.9585062234280098,0.9679509627782199,0.9853602532106542,2,True
2024-05-29,0.9679509627782199,0.9696551011029002,0.17605626629979554,1,True
2024-05-30,0.9696551011029002,0.9473835140084689,-2.2968565904618377,5,True
2024-05-31,0.9473835140084689,0.9469464883192305,-0.046129754505574994,1,True
2024-06-01,0.9469464883192305,0.9430938535897146,-0.40684819860876686,2,True
2024-06-02,0.9430938535897146,0.952315136995335,0.9777694309554885,0,True
2024-06-03,0.952315136995335,0.9396168708262365,-1.333410094599885,5,True
2024-06-04,0.9396168708262365,0.9444156062734178,0.5107119291037909,5,True
2024-06-05,0.9444156062734178,0.9463871462839817,0.20875766955434916,0,True
2024-06-06,0.9463871462839817,0.9458187392789954,-0.060060727495947486,2,True
2024-06-07,0.9458187392789954,0.9423075110095087,-0.3712369108020974,0,True
2024-06-08,0.9423075110095087,0.9623215946825494,2.1239439821082673,8,True
2024-06-09,0.9623215946825494,0.9701926538337233,0.8179239866034971,1,True
2024-06-10,0.9701926538337233,0.9719332103437852,0.17940318380933462,0,True
2024-06-11,0.9719332103437852,0.9694018944566154,-0.2604413410541295,2,True
2024-06-12,0.9694018944566154,0.9826433067949879,1.3659362968126754,3,True
2024-06-13,0.9826433067949879,0.9845215067019079,0.19113750573906962,3,True
2024-06-14,0.9845215067019079,0.966357045195399,-1.8450040332139372,5,True
2024-06-15,0.966357045195399,0.9719851720558284,0.5824065637449083,5,True
2024-06-16,0.9719851720558284,0.9730751067429106,0.11213490888724031,0,True
2024-06-17,0.9730751067429106,0.9559567219646565,-1.759204881476517,4,True
2024-06-18,0.9559567219646565,0.9618519280934373,0.6166812778579667,5,True
2024-06-19,0.9618519280934373,0.977930159186427,1.6715910862558303,0,True
2024-06-20,0.977930159186427,0.9870160830499098,0.9290974184743117,1,True
2024-06-21,0.9870160830499098,0.9851257026615075,-0.19152478068655832,1,True
2024-06-22,0.9851257026615075,0.989739592608989,0.46835545301642245,2,True
2024-06-23,0.989739592608989,0.9928695559873457,0.316241100359127,2,True
2024-06-24,0.9928695559873457,0.9932875014162429,0.04209469676825783,1,True
2024-06-25,0.9932875014162429,1.002252381994551,0.9025463992575977,0,True
2024-06-26,1.002252381994551,1.002252381994551,0.0,0,False
2024-06-27,1.002252381994551,0.9972637325357231,-0.4977438366272735,1,True
2024-06-28,0.9972637325357231,0.9952610573124515,-0.20081701138167096,2,True
2024-06-29,0.9952610573124515,0.9779028942147988,-1.7440814116173486,5,True
2024-06-30,0.9779028942147988,0.9830597012751622,0.5273332445246526,0,True
2024-07-01,0.9830597012751622,0.9763146779723597,-0.6861255012338807,2,True
2024-07-02,0.9763146779723597,0.9819246967760472,0.5746117445800003,0,True
2024-07-03,0.9819246967760472,0.9770305141322425,-0.4984274924415,1,True
2024-07-04,0.9770305141322425,0.9602415730805607,-1.7183640437876235,5,True
2024-07-05,0.9602415730805607,0.9042243936406215,-5.833654885429507,18,True
2024-07-06,0.9042243936406215,0.9157117116868525,1.2704056788360285,2,True
2024-07-07,0.9157117116868525,0.9227891428528134,0.7728885713303102,1,True
2024-07-08,0.9227891428528134,0.92395205391874,0.12602132078964878,2,True
2024-07-09,0.92395205391874,0.9327373135395667,0.950835011791562,2,True
2024-07-10,0.9327373135395667,0.9373577267144995,0.4953606023757384,1,True
2024-07-11,0.9373577267144995,0.9267945227544457,-1.126912773960742,2,True
2024-07-12,0.9267945227544457,0.9267945227544457,0.0,0,False
2024-07-13,0.9267945227544457,0.9256952246456372,-0.11861292679431479,2,True
2024-07-14,0.9256952246456372,0.945368216297088,2.125212610768479,1,True
2024-07-15,0.945368216297088,0.9480913430089447,0.2880493192930489,0,True
2024-07-16,0.9480913430089447,0.952195763776385,0.43291406442065306,2,True
2024-07-17,0.952195763776385,0.9574380254755085,0.5505445307100176,1,True
2024-07-18,0.9574380254755085,0.9587082207717027,0.13266605904473927,0,True
2024-07-19,0.9587082207717027,0.9561781525916747,-0.2639038786995562,2,True
2024-07-20,0.9561781525916747,0.9573985063872484,0.1276282868695633,0,True
2024-07-21,0.9573985063872484,0.957116441990446,-0.02946154552369018,1,True
2024-07-22,0.957116441990446,0.956983493890105,-0.013890483384082497,1,True
2024-07-23,0.956983493890105,0.9506690219065046,-0.6598308146290255,3,True
2024-07-24,0.9506690219065046,0.9458609830808132,-0.5057531816961003,1,True
2024-07-25,0.9458609830808132,0.9395154924970683,-0.6708692606260835,3,True
2024-07-26,0.9395154924970683,0.9383113275375192,-0.12816871772370897,0,True
2024-07-27,0.9383113275375192,0.9421079684121436,0.40462485778447466,1,True
2024-07-28,0.9421079684121436,0.9298287929342162,-1.3033724254156498,2,True
2024-07-29,0.9298287929342162,0.9291094408532566,-0.07736392833023187,0,True
2024-07-30,0.9291094408532566,0.9257494250113086,-0.3616383274355983,2,True
2024-07-31,0.9257494250113086,0.9171514390373812,-0.928759526242473,4,True
2024-08-01,0.9171514390373812,0.9173186839942933,0.018235260807930587,1,True
2024-08-02,0.9173186839942933,0.9028519510483541,-1.5770672938816066,4,True
2024-08-03,0.9028519510483541,0.8976072877573017,-0.5808995910085324,7,True
2024-08-04,0.8976072877573017,0.8657726362049402,-3.546612420215678,4,True
2024-08-05,0.8657726362049402,0.8476996653506994,-2.0874961968609274,16,True
2024-08-06,0.8476996653506994,0.8579072613870652,1.2041524202021314,0,True
2024-08-07,0.8579072613870652,0.8576209581537179,-0.033372282323895774,1,True
2024-08-08,0.8576209581537179,0.8536277110872876,-0.46561910928889505,0,True
2024-08-09,0.8536277110872876,0.8536277110872876,0.0,0,False
2024-08-10,0.8536277110872876,0.8536277110872876,0.0,0,False
2024-08-11,0.8536277110872876,0.849360409019752,-0.49990200787886074,1,True
2024-08-12,0.849360409019752,0.850626155656743,0.14902350327958835,1,True
2024-08-13,0.850626155656743,0.8451198664739233,-0.647321875327056,0,True
2024-08-14,0.8451198664739233,0.8451198664739233,0.0,0,False
2024-08-15,0.8451198664739233,0.8451198664739233,0.0,0,False
2024-08-16,0.8451198664739233,0.8451198664739233,0.0,0,False
2024-08-17,0.8451198664739233,0.852823465800584,0.9115392540471445,1,True
2024-08-18,0.852823465800584,0.8609271409848593,0.9502171913935431,1,True
2024-08-19,0.8609271409848593,0.8574255528906235,-0.40672293014600847,3,True
2024-08-20,0.8574255528906235,0.8486405508828385,-1.0245789827662888,2,True
2024-08-21,0.8486405508828385,0.8478542932835769,-0.09264907250116083,0,True
2024-08-22,0.8478542932835769,0.8484022854801035,0.06463282675663873,1,True
2024-08-23,0.8484022854801035,0.8489831758995802,0.068468747599848,0,True
2024-08-24,0.8489831758995802,0.8469495544191475,-0.2395361343029867,2,True
2024-08-25,0.8469495544191475,0.8455956165277789,-0.1598605116803209,2,True
2024-08-26,0.8455956165277789,0.8483716561746534,0.3282939968721088,2,True
2024-08-27,0.8483716561746534,0.841390309589924,-0.8229113424426004,1,True
2024-08-28,0.841390309589924,0.8423324895631509,0.11197894276748777,4,True
2024-08-29,0.8423324895631509,0.8357215444829987,-0.7848379543784034,3,True
2024-08-30,0.8357215444829987,0.8381632436965025,0.2921665989853439,0,True
2024-08-31,0.8381632436965025,0.8381632436965025,0.0,0,False
2024-09-01,0.8381632436965025,0.8340017914181025,-0.49649663233226615,1,True
2024-09-02,0.8340017914181025,0.8352639935814508,0.15134285997180363,1,True
2024-09-03,0.8352639935814508,0.8331464347036366,-0.2535197128197164,0,True
2024-09-04,0.8331464347036366,0.8331464347036366,0.0,0,False
2024-09-05,0.8331464347036366,0.8331464347036366,0.0,0,False
2024-09-06,0.8331464347036366,0.8330217969191938,-0.014959889312515795,1,True
2024-09-07,0.8330217969191938,0.8345908474656316,0.1883564814559202,0,True
2024-09-08,0.8345908474656316,0.8345908474656316,0.0,0,False
2024-09-09,0.8345908474656316,0.8345908474656316,0.0,0,False
2024-09-10,0.8345908474656316,0.8345908474656316,0.0,0,False
2024-09-11,0.8345908474656316,0.8262877642912541,-0.9948687071744455,2,True
2024-09-12,0.8262877642912541,0.8262877642912541,0.0,0,False
2024-09-13,0.8262877642912541,0.8261655259664266,-0.014793674807989099,1,True
2024-09-14,0.8261655259664266,0.8281408096462145,0.23909054756034998,0,True
2024-09-15,0.8281408096462145,0.8303393152167381,0.2654748497979309,2,True
2024-09-16,0.8303393152167381,0.8249560274871858,-0.6483238395314506,2,True
2024-09-17,0.8249560274871858,0.8314541343474994,0.7876913003601826,1,True
2024-09-18,0.8314541343474994,0.8315509370839393,0.01164258284864772,0,True
2024-09-19,0.8315509370839393,0.8316839534591941,0.015996178865629318,1,True
2024-09-20,0.8316839534591941,0.8379403541643934,0.7522569936785795,2,True
2024-09-21,0.8379403541643934,0.828031035148582,-1.182580474441175,2,True
2024-09-22,0.828031035148582,0.8357914011978264,0.9372071480209465,2,True
2024-09-23,0.8357914011978264,0.834572103763136,-0.14588537677499014,0,True
2024-09-24,0.834572103763136,0.834572103763136,0.0,0,False
2024-09-25,0.834572103763136,0.834572103763136,0.0,0,False
2024-09-26,0.834572103763136,0.834572103763136,0.0,0,False
2024-09-27,0.834572103763136,0.834572103763136,0.0,0,False
2024-09-28,0.834572103763136,0.834572103763136,0.0,0,False
2024-09-29,0.834572103763136,0.834572103763136,0.0,0,False
2024-09-30,0.834572103763136,0.8310143203720868,-0.4263003010772759,2,True
2024-10-01,0.8310143203720868,0.8313466705143434,0.03999331107891191,0,True
2024-10-02,0.8313466705143434,0.8124846700363177,-2.2688489828624703,11,True
2024-10-03,0.8124846700363177,0.8162639647382387,0.4651527396513311,3,True
2024-10-04,0.8162639647382387,0.8167780069843443,0.06297500175331816,2,True
2024-10-05,0.8167780069843443,0.8174333827078101,0.08023914917658637,0,True
2024-10-06,0.8174333827078101,0.8174333827078101,0.0,0,False
2024-10-07,0.8174333827078101,0.8174333827078101,0.0,0,False
2024-10-08,0.8174333827078101,0.8110066900166134,-0.7862038457381981,2,True
2024-10-09,0.8110066900166134,0.8114678142381209,0.05685825125536503,0,True
2024-10-10,0.8114678142381209,0.8114678142381209,0.0,0,False
2024-10-11,0.8114678142381209,0.8102332411206457,-0.1521407375392081,1,True
2024-10-12,0.8102332411206457,0.8111897947510861,0.11805904545676427,1,True
2024-10-13,0.8111897947510861,0.8111354956882961,-0.006693755658826461,0,True
2024-10-14,0.8111354956882961,0.8111354956882961,0.0,0,False
2024-10-15,0.8111354956882961,0.8113885803120738,0.03120127588092103,1,True
2024-10-16,0.8113885803120738,0.8062578684850377,-0.6323371996513449,5,True
2024-10-17,0.8062578684850377,0.802239651073055,-0.49837869111689637,2,True
2024-10-18,0.802239651073055,0.8125083210427655,1.2800003036468555,2,True
2024-10-19,0.8125083210427655,0.8165786567294742,0.5009592617445158,2,True
2024-10-20,0.8165786567294742,0.8186574938855526,0.25457892377502844,2,True
2024-10-21,0.8186574938855526,0.8142568252475173,-0.5375469803798771,1,True
2024-10-22,0.8142568252475173,0.8113407971684725,-0.35812141680954257,0,True
2024-10-23,0.8113407971684725,0.807294987772145,-0.49865721167320354,1,True
2024-10-24,0.807294987772145,0.8014641518124307,-0.7222683217451231,3,True
2024-10-25,0.8014641518124307,0.7976846025948579,-0.4715805702632858,2,True
2024-10-26,0.7976846025948579,0.7828732134382891,-1.8567976752199455,9,True
2024-10-27,0.7828732134382891,0.7911782007986942,1.060834272759248,0,True
2024-10-28,0.7911782007986942,0.7882308258106062,-0.372529852960124,1,True
2024-10-29,0.7882308258106062,0.7974331638957942,1.1674674199305013,2,True
2024-10-30,0.7974331638957942,0.7992531238839888,0.22822727603946102,0,True
2024-10-31,0.7992531238839888,0.7992531238839888,0.0,0,False
2024-11-01,0.7992531238839888,0.7985946363095697,-0.0823878637119635,3,True
2024-11-02,0.7985946363095697,0.7961435997016181,-0.3069187415630892,1,True
2024-11-03,0.7961435997016181,0.7901646941077777,-0.7509833145780687,2,True
2024-11-04,0.7901646941077777,0.8024450224566448,1.554147944148987,4,True
2024-11-05,0.8024450224566448,0.7951424361896305,-0.9100419421454897,1,True
2024-11-06,0.7951424361896305,0.8000813624139749,0.6211372956035355,2,True
2024-11-07,0.8000813624139749,0.7964872959148623,-0.4492126261095075,2,True
2024-11-08,0.7964872959148623,0.7934776653651008,-0.37786296971688005,2,True
2024-11-09,0.7934776653651008,0.7905076564288598,-0.3743027769879892,2,True
2024-11-10,0.7905076564288598,0.8054158513823931,1.8859013992200246,3,True
2024-11-11,0.8054158513823931,0.8033234079719905,-0.25979665123441187,6,True
2024-11-12,0.8033234079719905,0.7992803550286683,-0.5032908170233719,7,True
2024-11-13,0.7992803550286683,0.7961147784395828,-0.39605334588412866,2,True
2024-11-14,0.7961147784395828,0.7949133723830976,-0.15090864898149592,4,True
2024-11-15,0.7949133723830976,0.8312782355666911,4.574695111062743,4,True
2024-11-16,0.8312782355666911,0.8354625692664444,0.5033613922179381,1,True
2024-11-17,0.8354625692664444,0.8246950347875079,-1.2888111179403916,4,True
2024-11-18,0.8246950347875079,0.8274334699149419,0.33205427605607074,2,True
2024-11-19,0.8274334699149419,0.8169232072678122,-1.2702244989207578,4,True
2024-11-20,0.8169232072678122,0.8224288569367864,0.6739494752986186,1,True
2024-11-21,0.8224288569367864,0.8402465791267035,2.1664758039109833,4,True
2024-11-22,0.8402465791267035,0.8454136108628256,0.6149423115167307,4,True
2024-11-23,0.8454136108628256,0.8664283930846324,2.485739755284899,0,True
2024-11-24,0.8664283930846324,0.8670068389483001,0.06676210847711417,10,True
2024-11-25,0.8670068389483001,0.8762958337796726,1.0713865697576486,2,True
2024-11-26,0.8762958337796726,0.8616434875805282,-1.6720775831998713,5,True
2024-11-27,0.8616434875805282,0.8708378436440889,1.0670719614417568,3,True
2024-11-28,0.8708378436440889,0.8695945713407729,-0.1427673719499145,2,True
2024-11-29,0.8695945713407729,0.8828099816427167,1.5197208834420106,5,True
2024-11-30,0.8828099816427167,0.8813876420920075,-0.16111502818110246,1,True
2024-12-01,0.8813876420920075,0.8846519271973327,0.3703574851103175,3,True
2024-12-02,0.8846519271973327,0.8927700085935623,0.9176582502847808,8,True
2024-12-03,0.8927700085935623,0.9062187853486384,1.5064100076864095,7,True
2024-12-04,0.9062187853486384,0.9196755639296903,1.4849370591975442,3,True
2024-12-05,0.9196755639296903,0.9213604797932501,0.18320763643651095,5,True
2024-12-06,0.9213604797932501,0.9208004316943859,-0.06078490570703421,2,True
2024-12-07,0.9208004316943859,0.9222666168676932,0.15922941854071837,2,True
2024-12-08,0.9222666168676932,0.9203273843055166,-0.21026810758506542,0,True
2024-12-09,0.9203273843055166,0.9181776334985022,-0.233585444014206,2,True
2024-12-10,0.9181776334985022,0.8698499875027299,-5.263430978124683,16,True
2024-12-11,0.8698499875027299,0.8832670004432583,1.5424513575090781,4,True
2024-12-12,0.8832670004432583,0.88662152739967,0.3797862882603198,0,True
2024-12-13,0.88662152739967,0.88662152739967,0.0,0,False
2024-12-14,0.88662152739967,0.88662152739967,0.0,0,False
2024-12-15,0.88662152739967,0.8802771408299754,-0.7155687487424012,3,True
2024-12-16,0.8802771408299754,0.8772210283692313,-0.3471761697529274,0,True
2024-12-17,0.8772210283692313,0.8772210283692313,0.0,0,False
2024-12-18,0.8772210283692313,0.873036936325897,-0.47697124305292604,2,True
2024-12-19,0.873036936325897,0.8748439947492933,0.20698533454968082,10,True
2024-12-20,0.8748439947492933,0.8311369354256632,-4.995983236548973,16,True
2024-12-21,0.8311369354256632,0.8435099281899882,1.4886828195149526,2,True
2024-12-22,0.8435099281899882,0.8484822774086525,0.5894831883406448,1,True
2024-12-23,0.8484822774086525,0.8555011326811972,0.8272247352037798,3,True
2024-12-24,0.8555011326811972,0.8552687694622615,-0.027161065024827735,0,True
2024-12-25,0.8552687694622615,0.8620476882537492,0.7926068428465882,3,True
2024-12-26,0.8620476882537492,0.8558477711847057,-0.7192081312349163,1,True
2024-12-27,0.8558477711847057,0.8558477711847057,0.0,0,False
2024-12-28,0.8558477711847057,0.8515840581005371,-0.49818591900596676,1,True
2024-12-29,0.8515840581005371,0.8532752726362993,0.19859631232816977,4,True
2024-12-30,0.8532752726362993,0.848943180239054,-0.5077016217592711,2,True
2024-12-31,0.848943180239054,0.84582268246776,-0.36757439648850143,2,True
