day,start_equity,end_equity,return_pct,entries,active
2024-01-02,1.0,0.9990134675237569,-0.09865324762431404,1,True
2024-01-03,0.9990134675237569,0.9904518335542647,-0.8570088640260098,8,True
2024-01-04,0.9904518335542647,1.0104125585451234,2.0153150627455485,4,True
2024-01-05,1.0104125585451234,0.9898071030453615,-2.039311103717012,4,True
2024-01-06,0.9898071030453615,0.9798549252377242,-1.0054663961308385,7,True
2024-01-07,0.9798549252377242,0.9783355206837343,-0.15506423602670294,3,True
2024-01-08,0.9783355206837343,0.9581531947200794,-2.0629247877609447,4,True
2024-01-09,0.9581531947200794,0.9581531947200794,0.0,0,False
2024-01-10,0.9581531947200794,0.9510281314983846,-0.7436246375796318,4,True
2024-01-11,0.9510281314983846,0.9627608491050565,1.233687755186219,3,True
2024-01-12,0.9627608491050565,0.9419636014695817,-2.160167569631355,3,True
2024-01-13,0.9419636014695817,0.938036710968385,-0.4168834650373099,6,True
2024-01-14,0.938036710968385,0.9431068499030938,0.5405053848558383,0,True
2024-01-15,0.9431068499030938,0.9378880258159735,-0.5533650919465338,2,True
2024-01-16,0.9378880258159735,0.9390464441537559,0.12351350117456583,1,True
2024-01-17,0.9390464441537559,0.9443336307391753,0.5630378154707794,0,True
2024-01-18,0.9443336307391753,0.9435872494607926,-0.07903787963142728,1,True
2024-01-19,0.9435872494607926,0.934925784951893,-0.9179293715392167,1,True
2024-01-20,0.934925784951893,0.9521845111663428,1.8459995961431108,6,True
2024-01-21,0.9521845111663428,0.9537068995628302,0.1598837597791336,1,True
2024-01-22,0.9537068995628302,0.9341392825311494,-2.0517432599733043,4,True
2024-01-23,0.9341392825311494,0.912578270893038,-2.3081152930095827,8,True
2024-01-24,0.912578270893038,0.9122856384992954,-0.03206655287290028,1,True
2024-01-25,0.9122856384992954,0.907623117520397,-0.5110812646977769,2,True
2024-01-26,0.907623117520397,0.907623117520397,0.0,0,False
2024-01-27,0.907623117520397,0.907623117520397,0.0,0,False
2024-01-28,0.907623117520397,0.9061761774670816,-0.15942080202501208,2,True
2024-01-29,0.9061761774670816,0.9061415365857236,-0.003822753479876262,0,True
2024-01-30,0.9061415365857236,0.9061415365857236,0.0,0,False
2024-01-31,0.9061415365857236,0.9038815378112439,-0.24940902532679665,1,True
2024-02-01,0.9038815378112439,0.9038815378112439,0.0,0,False
2024-02-02,0.9038815378112439,0.9037612411094544,-0.013308901305897347,2,True
2024-02-03,0.9037612411094544,0.9086329079423167,0.5390435671795091,1,True
2024-02-04,0.9086329079423167,0.9083952010534116,-0.026160937693009423,1,True
2024-02-05,0.9083952010534116,0.9083952010534116,0.0,0,False
2024-02-06,0.9083952010534116,0.9053460995417816,-0.3356580382738894,2,True
2024-02-07,0.9053460995417816,0.9031894664378853,-0.23821090133240297,4,True
2024-02-08,0.9031894664378853,0.914998417540697,1.3074721906783715,1,True
2024-02-09,0.914998417540697,0.9213534428939538,0.6945394911542779,0,True
2024-02-10,0.9213534428939538,0.918627944774887,-0.2958146127403749,2,True
2024-02-11,0.918627944774887,0.9177287563802043,-0.09788384947324591,0,True
2024-02-12,0.9177287563802043,0.918749748961899,0.11125210740063896,1,True
2024-02-13,0.918749748961899,0.9187844728136678,0.0037794678918956492,0,True
2024-02-14,0.9187844728136678,0.9196337581748624,0.09243575466548748,2,True
2024-02-15,0.9196337581748624,0.9244499482621903,0.5237074046614332,1,True
2024-02-16,0.9244499482621903,0.9242552508813442,-0.021060889365842606,3,True
2024-02-17,0.9242552508813442,0.9224505970378812,-0.19525491921653648,5,True
2024-02-18,0.9224505970378812,0.9242312032798834,0.19302998423111895,1,True
2024-02-19,0.9242312032798834,0.9249288534616725,0.07548437872615388,2,True
2024-02-20,0.9249288534616725,0.9224976749189924,-0.2628503299017204,6,True
2024-02-21,0.9224976749189924,0.9141253502576956,-0.9075713564299259,6,True
2024-02-22,0.9141253502576956,0.9252232316780603,1.2140437213819855,2,True
2024-02-23,0.9252232316780603,0.9261206221923795,0.09699178356032956,3,True
2024-02-24,0.9261206221923795,0.9246215837184409,-0.1618621201188497,5,True
2024-02-25,0.9246215837184409,0.9206632541141236,-0.42810266102577543,4,True
2024-02-26,0.9206632541141236,0.9184207241806019,-0.24357765160069045,5,True
2024-02-27,0.9184207241806019,0.917281715856905,-0.12401814263426347,2,True
2024-02-28,0.917281715856905,0.9363584253667844,2.0797001815367366,5,True
2024-02-29,0.9363584253667844,0.9491964292097045,1.371056584223207,6,True
2024-03-01,0.9491964292097045,0.9473707704116606,-0.19233730151765327,5,True
2024-03-02,0.9473707704116606,0.9518664410851393,0.47454183872752687,4,True
2024-03-03,0.9518664410851393,0.9539505491175414,0.2189496280619263,9,True
2024-03-04,0.9539505491175414,0.9701503496302026,1.698180322622278,1,True
2024-03-05,0.9701503496302026,0.9794761759738183,0.9612763987737027,8,True
2024-03-06,0.9794761759738183,0.9733731959969343,-0.6230861073079463,13,True
2024-03-07,0.9733731959969343,0.9755834283423404,0.22706936604539596,5,True
2024-03-08,0.9755834283423404,0.9771808856900808,0.16374379692516428,5,True
2024-03-09,0.9771808856900808,0.9711398580797302,-0.6182097602210446,5,True
2024-03-10,0.9711398580797302,0.9888395651411975,1.8225703449620045,6,True
2024-03-11,0.9888395651411975,0.9947858877184141,0.6013435128243039,3,True
2024-03-12,0.9947858877184141,0.9936962747131929,-0.10953241483152576,4,True
2024-03-13,0.9936962747131929,0.9992095535348432,0.5548253487456911,5,True
2024-03-14,0.9992095535348432,1.008666411895764,0.9464339414556155,5,True
2024-03-15,1.008666411895764,0.9851046426828294,-2.3359327657843654,10,True
2024-03-16,0.9851046426828294,0.9850681280153517,-0.003706679056780793,3,True
2024-03-17,0.9850681280153517,0.9740694459738144,-1.116540240084385,6,True
2024-03-18,0.9740694459738144,0.9738168110200772,-0.025936031027495865,4,True
2024-03-19,0.9738168110200772,0.9638185883833778,-1.0267046659654944,10,True
2024-03-20,0.9638185883833778,0.9573102352188375,-0.6752674458641361,4,True
2024-03-21,0.9573102352188375,0.9577236125203841,0.04318112210008884,4,True
2024-03-22,0.9577236125203841,0.9613701990592515,0.3807556262783285,6,True
2024-03-23,0.9613701990592515,0.9768715991136915,1.6124277691995204,5,True
2024-03-24,0.9768715991136915,0.9761888587662076,-0.06989049001969727,4,True
2024-03-25,0.9761888587662076,0.9824889320660279,0.6453744317244992,4,True
2024-03-26,0.9824889320660279,0.9996160818663693,1.7432409914608815,5,True
2024-03-27,0.9996160818663693,0.9968710474855023,-0.2746088654097867,6,True
2024-03-28,0.9968710474855023,0.9912264178089412,-0.5662346891104009,2,True
2024-03-29,0.9912264178089412,0.9854650184560599,-0.5812394877061977,6,True
2024-03-30,0.9854650184560599,0.980220372821599,-0.532200081812928,2,True
2024-03-31,0.980220372821599,0.9801767433946049,-0.004450981453130165,0,True
2024-04-01,0.9801767433946049,0.9794824963314016,-0.07082876306562236,5,True
2024-04-02,0.9794824963314016,0.9647907646384715,-1.499948365382453,5,True
2024-04-03,0.9647907646384715,0.9535301471033409,-1.1671564392876532,3,True
2024-04-04,0.9535301471033409,0.9532323836505512,-0.031227481762829967,1,True
2024-04-05,0.9532323836505512,0.9488497684848958,-0.4597635624664309,5,True
2024-04-06,0.9488497684848958,0.9467266621807877,-0.22375579091916675,1,True
2024-04-07,0.9467266621807877,0.9570519905576754,1.0906345822249586,3,True
2024-04-08,0.9570519905576754,0.9492848324348709,-0.8115711789365321,1,True
2024-04-09,0.9492848324348709,0.9434828980814602,-0.611190040667664,3,True
2024-04-10,0.9434828980814602,0.9404419642466869,-0.32230937528989756,5,True
2024-04-11,0.9404419642466869,0.9468289835481369,0.679150818898866,1,True
2024-04-12,0.9468289835481369,0.941004258904527,-0.6151823343833906,7,True
2024-04-13,0.941004258904527,0.9292595584317468,-1.248102796734718,11,True
2024-04-14,0.9292595584317468,0.9043457006055101,-2.6810440204975916,10,True
2024-04-15,0.9043457006055101,0.9068435355007644,0.27620354623036913,5,True
2024-04-16,0.9068435355007644,0.8992324521415509,-0.8392939973939972,1,True
2024-04-17,0.8992324521415509,0.8986551114571901,-0.06420371984861006,0,True
2024-04-18,0.8986551114571901,0.9090948054395431,1.1617019532025763,1,True
2024-04-19,0.9090948054395431,0.9182596466474962,1.0081282120539603,5,True
2024-04-20,0.9182596466474962,0.9182343555538027,-0.002754242091085324,0,True
2024-04-21,0.9182343555538027,0.9182343555538027,0.0,0,False
2024-04-22,0.9182343555538027,0.9182343555538027,0.0,0,False
2024-04-23,0.9182343555538027,0.9250079950161809,0.7376809004595364,3,True
2024-04-24,0.9250079950161809,0.9216765543225386,-0.360152637770883,2,True
2024-04-25,0.9216765543225386,0.9220980381966379,0.045730128657672786,2,True
2024-04-26,0.9220980381966379,0.919380048073021,-0.29476151244530735,1,True
2024-04-27,0.919380048073021,0.9212901691841138,0.20776186247419837,6,True
2024-04-28,0.9212901691841138,0.9248344803360186,0.3847117086947405,3,True
2024-04-29,0.9248344803360186,0.9276519927461517,0.30465045043621686,2,True
2024-04-30,0.9276519927461517,0.9232067461616177,-0.47919334182365825,2,True
2024-05-01,0.9232067461616177,0.9169438750898852,-0.6783822906159864,6,True
2024-05-02,0.9169438750898852,0.9223504076837231,0.5896252475984909,3,True
2024-05-03,0.9223504076837231,0.9245642197797286,0.24001855233792835,1,True
2024-05-04,0.9245642197797286,0.925035820354869,0.05100787647316363,0,True
2024-05-05,0.925035820354869,0.923121751418653,-0.2069183586297929,1,True
2024-05-06,0.923121751418653,0.9227265518051571,-0.04281121237676988,0,True
2024-05-07,0.9227265518051571,0.9247707623943533,0.2215402369420305,3,True
2024-05-08,0.9247707623943533,0.9255565007743571,0.0849657463185105,3,True
2024-05-09,0.9255565007743571,0.9223258642067272,-0.3490480121880246,1,True
2024-05-10,0.9223258642067272,0.9206502722417215,-0.18167027837248106,2,True
2024-05-11,0.9206502722417215,0.9189345942952909,-0.18635501429364876,4,True
2024-05-12,0.9189345942952909,0.9162308563405589,-0.29422528779705637,0,True
2024-05-13,0.9162308563405589,0.915623957568124,-0.06623863060657431,4,True
2024-05-14,0.915623957568124,0.9107407647685355,-0.5333185921170269,3,True
2024-05-15,0.9107407647685355,0.9128240854620278,0.2287501311113216,3,True
2024-05-16,0.9128240854620278,0.9152612321637337,0.2669897453979164,2,True
2024-05-17,0.9152612321637337,0.9155685003774662,0.033571640853402585,0,True
2024-05-18,0.9155685003774662,0.9190711520984818,0.38256577411428516,2,True
2024-05-19,0.9190711520984818,0.9186373210809728,-0.04720320255057198,0,True
2024-05-20,0.9186373210809728,0.9217790000708656,0.341993398025231,2,True
2024-05-21,0.9217790000708656,0.9184394591003631,-0.3622930192861529,2,True
2024-05-22,0.9184394591003631,0.9206339456036811,0.23893643522976404,1,True
2024-05-23,0.9206339456036811,0.9168541995334347,-0.4105590596887976,6,True
2024-05-24,0.9168541995334347,0.9245818964632686,0.8428490520920651,2,True
2024-05-25,0.9245818964632686,0.9239671848333103,-0.06648536298511365,0,True
2024-05-26,0.9239671848333103,0.9265747082361326,0.2822095249294776,3,True
2024-05-27,0.9265747082361326,0.9373456068169731,1.1624425408010897,3,True
2024-05-28,0.9373456068169731,0.9425988359128342,0.560436733010361,2,True
2024-05-29,0.9425988359128342,0.9430680782814322,0.04978176831118564,1,True
2024-05-30,0.9430680782814322,0.932197828008895,-1.15264746234931,5,True
2024-05-31,0.932197828008895,0.9319823865886816,-0.02311112660211556,1,True
2024-06-01,0.9319823865886816,0.9300855898650706,-0.20352280803865863,2,True
2024-06-02,0.9300855898650706,0.9357341215733201,0.6073131085784222,0,True
2024-06-03,0.9357341215733201,0.929495989974298,-0.6666564203658076,5,True
2024-06-04,0.929495989974298,0.9281294205503395,-0.14702262717629644,6,True
2024-06-05,0.9281294205503395,0.9286491068877836,0.05599287404722819,0,True
2024-06-06,0.9286491068877836,0.9270836872253271,-0.1685695545115773,2,True
2024-06-07,0.9270836872253271,0.9266523624417384,-0.04652490271720433,0,True
2024-06-08,0.9266523624417384,0.9398992231091552,1.4295394048865484,7,True
2024-06-09,0.9398992231091552,0.9435256437213899,0.38583079154366207,1,True
2024-06-10,0.9435256437213899,0.940348482918882,-0.33673285126377683,0,True
2024-06-11,0.940348482918882,0.9391231238174482,-0.13030904219999417,2,True
2024-06-12,0.9391231238174482,0.9443615841926526,0.557803363834819,3,True
2024-06-13,0.9443615841926526,0.9410181498685298,-0.35404175477776745,4,True
2024-06-14,0.9410181498685298,0.9330384445818561,-0.8479863313782587,5,True
2024-06-15,0.9330384445818561,0.9357573828304466,0.29140688300459683,5,True
2024-06-16,0.9357573828304466,0.9362860107494542,0.056491984857065525,0,True
2024-06-17,0.9362860107494542,0.9280419761918384,-0.8805038698609602,4,True
2024-06-18,0.9280419761918384,0.9294485909745129,0.15156801295201916,5,True
2024-06-19,0.9294485909745129,0.9280317702001984,-0.15243670151019462,2,True
2024-06-20,0.9280317702001984,0.9313372421949586,0.35618090898408283,1,True
2024-06-21,0.9313372421949586,0.9304060291533595,-0.09998666427259995,1,True
2024-06-22,0.9304060291533595,0.9325815372546754,0.23382351716869643,2,True
2024-06-23,0.9325815372546754,0.9335040101290835,0.09891605586827001,2,True
2024-06-24,0.9335040101290835,0.9337007478656328,0.021075189224117885,1,True
2024-06-25,0.9337007478656328,0.9387097964237661,0.5364725871306764,0,True
2024-06-26,0.9387097964237661,0.9387097964237661,0.0,0,False
2024-06-27,0.9387097964237661,0.9365634429002989,-0.22864931543744582,2,True
2024-06-28,0.9365634429002989,0.9330929439544094,-0.3705567382752184,2,True
2024-06-29,0.9330929439544094,0.924922675079562,-0.8756114734103648,5,True
2024-06-30,0.924922675079562,0.9299227821383333,0.540597305427859,0,True
2024-07-01,0.9299227821383333,0.9267303724175883,-0.3432983664949263,2,True
2024-07-02,0.9267303724175883,0.9293903998896595,0.28703359156472263,0,True
2024-07-03,0.9293903998896595,0.9270742312570784,-0.24921374622075554,1,True
2024-07-04,0.9270742312570784,0.9191002443526728,-0.860123886044506,5,True
2024-07-05,0.9191002443526728,0.8951784157157467,-2.602744236432486,9,True
2024-07-06,0.8951784157157467,0.8955487221199223,0.041366770877671044,3,True
2024-07-07,0.8955487221199223,0.9010061213390868,0.6093916594784199,1,True
2024-07-08,0.9010061213390868,0.9012602287615165,0.028202629972384763,2,True
2024-07-09,0.9012602287615165,0.9086002159242691,0.814413742947373,2,True
2024-07-10,0.9086002159242691,0.9093802318925992,0.0858480940967743,1,True
2024-07-11,0.9093802318925992,0.9042473998792089,-0.5644318881561694,2,True
2024-07-12,0.9042473998792089,0.9042473998792089,0.0,0,False
2024-07-13,0.9042473998792089,0.9037113029829089,-0.05928652892688291,2,True
2024-07-14,0.9037113029829089,0.9157368983730417,1.330689939413121,1,True
2024-07-15,0.9157368983730417,0.9170559656483404,0.1440443513461398,0,True
2024-07-16,0.9170559656483404,0.910198633530561,-0.7477550307337433,3,True
2024-07-17,0.910198633530561,0.9079264344726604,-0.24963771359300946,1,True
2024-07-18,0.9079264344726604,0.9079264344726604,0.0,0,False
2024-07-19,0.9079264344726604,0.9067287248395215,-0.13191703508826924,2,True
2024-07-20,0.9067287248395215,0.9079575135001219,0.13551888530032308,1,True
2024-07-21,0.9079575135001219,0.907823764342034,-0.014730772761850641,1,True
2024-07-22,0.907823764342034,0.9077617334372443,-0.006832923660538004,1,True
2024-07-23,0.9077617334372443,0.9047664657425644,-0.32996188144419625,3,True
2024-07-24,0.9047664657425644,0.9024759986686102,-0.2531556109425792,1,True
2024-07-25,0.9024759986686102,0.8994469457978507,-0.33563805300397265,3,True
2024-07-26,0.8994469457978507,0.8988710412379515,-0.0640287415049623,0,True
2024-07-27,0.8988710412379515,0.9006895690740889,0.20231242889223733,1,True
2024-07-28,0.9006895690740889,0.8948079814537474,-0.653009407712779,2,True
2024-07-29,0.8948079814537474,0.8944625854537007,-0.03860001332190999,0,True
2024-07-30,0.8944625854537007,0.8928456525320667,-0.1807714428674334,2,True
2024-07-31,0.8928456525320667,0.8864727572651806,-0.7137734555589637,5,True
2024-08-01,0.8864727572651806,0.8865554575537258,0.009329140446490136,1,True
2024-08-02,0.8865554575537258,0.8795485483178254,-0.7903520503087957,4,True
2024-08-03,0.8795485483178254,0.8770317525509612,-0.2861463158205013,7,True
2024-08-04,0.8770317525509612,0.8630788568885392,-1.590922520403415,3,True
2024-08-05,0.8630788568885392,0.8630788568885392,0.0,0,False
2024-08-06,0.8630788568885392,0.8630788568885392,0.0,0,False
2024-08-07,0.8630788568885392,0.8630788568885392,0.0,0,False
2024-08-08,0.8630788568885392,0.8630788568885392,0.0,0,False
2024-08-09,0.8630788568885392,0.8630788568885392,0.0,0,False
2024-08-10,0.8630788568885392,0.8630788568885392,0.0,0,False
2024-08-11,0.8630788568885392,0.8630788568885392,0.0,0,False
2024-08-12,0.8630788568885392,0.8630788568885392,0.0,0,False
2024-08-13,0.8630788568885392,0.8630788568885392,0.0,0,False
2024-08-14,0.8630788568885392,0.8630788568885392,0.0,0,False
2024-08-15,0.8630788568885392,0.8630788568885392,0.0,0,False
2024-08-16,0.8630788568885392,0.8630788568885392,0.0,0,False
2024-08-17,0.8630788568885392,0.8630788568885392,0.0,0,False
2024-08-18,0.8630788568885392,0.8630788568885392,0.0,0,False
2024-08-19,0.8630788568885392,0.8630788568885392,0.0,0,False
2024-08-20,0.8630788568885392,0.8630788568885392,0.0,0,False
2024-08-21,0.8630788568885392,0.8630788568885392,0.0,0,False
2024-08-22,0.8630788568885392,0.8630788568885392,0.0,0,False
2024-08-23,0.8630788568885392,0.8630788568885392,0.0,0,False
2024-08-24,0.8630788568885392,0.8630788568885392,0.0,0,False
2024-08-25,0.8630788568885392,0.8630788568885392,0.0,0,False
2024-08-26,0.8630788568885392,0.8630788568885392,0.0,0,False
2024-08-27,0.8630788568885392,0.8630788568885392,0.0,0,False
2024-08-28,0.8630788568885392,0.8630788568885392,0.0,0,False
2024-08-29,0.8630788568885392,0.8630788568885392,0.0,0,False
2024-08-30,0.8630788568885392,0.8630788568885392,0.0,0,False
2024-08-31,0.8630788568885392,0.8630788568885392,0.0,0,False
2024-09-01,0.8630788568885392,0.8630788568885392,0.0,0,False
2024-09-02,0.8630788568885392,0.8630788568885392,0.0,0,False
2024-09-03,0.8630788568885392,0.8630788568885392,0.0,0,False
2024-09-04,0.8630788568885392,0.8630788568885392,0.0,0,False
2024-09-05,0.8630788568885392,0.8630788568885392,0.0,0,False
2024-09-06,0.8630788568885392,0.8630788568885392,0.0,0,False
2024-09-07,0.8630788568885392,0.8630788568885392,0.0,0,False
2024-09-08,0.8630788568885392,0.8630788568885392,0.0,0,False
2024-09-09,0.8630788568885392,0.8630788568885392,0.0,0,False
2024-09-10,0.8630788568885392,0.8630788568885392,0.0,0,False
2024-09-11,0.8630788568885392,0.8630788568885392,0.0,0,False
2024-09-12,0.8630788568885392,0.8630788568885392,0.0,0,False
2024-09-13,0.8630788568885392,0.8630788568885392,0.0,0,False
2024-09-14,0.8630788568885392,0.8630788568885392,0.0,0,False
2024-09-15,0.8630788568885392,0.8630788568885392,0.0,0,False
2024-09-16,0.8630788568885392,0.8630788568885392,0.0,0,False
2024-09-17,0.8630788568885392,0.8630788568885392,0.0,0,False
2024-09-18,0.8630788568885392,0.8630788568885392,0.0,0,False
2024-09-19,0.8630788568885392,0.8630788568885392,0.0,0,False
2024-09-20,0.8630788568885392,0.8630788568885392,0.0,0,False
2024-09-21,0.8630788568885392,0.8630788568885392,0.0,0,False
2024-09-22,0.8630788568885392,0.8630788568885392,0.0,0,False
2024-09-23,0.8630788568885392,0.8630788568885392,0.0,0,False
2024-09-24,0.8630788568885392,0.8630788568885392,0.0,0,False
2024-09-25,0.8630788568885392,0.8630788568885392,0.0,0,False
2024-09-26,0.8630788568885392,0.8630788568885392,0.0,0,False
2024-09-27,0.8630788568885392,0.8630788568885392,0.0,0,False
2024-09-28,0.8630788568885392,0.8630788568885392,0.0,0,False
2024-09-29,0.8630788568885392,0.8630788568885392,0.0,0,False
2024-09-30,0.8630788568885392,0.8630788568885392,0.0,0,False
2024-10-01,0.8630788568885392,0.8630788568885392,0.0,0,False
2024-10-02,0.8630788568885392,0.8630788568885392,0.0,0,False
2024-10-03,0.8630788568885392,0.8630788568885392,0.0,0,False
2024-10-04,0.8630788568885392,0.8630788568885392,0.0,0,False
2024-10-05,0.8630788568885392,0.8630788568885392,0.0,0,False
2024-10-06,0.8630788568885392,0.8630788568885392,0.0,0,False
2024-10-07,0.8630788568885392,0.8630788568885392,0.0,0,False
2024-10-08,0.8630788568885392,0.8630788568885392,0.0,0,False
2024-10-09,0.8630788568885392,0.8630788568885392,0.0,0,False
2024-10-10,0.8630788568885392,0.8630788568885392,0.0,0,False
2024-10-11,0.8630788568885392,0.8630788568885392,0.0,0,False
2024-10-12,0.8630788568885392,0.8630788568885392,0.0,0,False
2024-10-13,0.8630788568885392,0.8630788568885392,0.0,0,False
2024-10-14,0.8630788568885392,0.8630788568885392,0.0,0,False
2024-10-15,0.8630788568885392,0.8630788568885392,0.0,0,False
2024-10-16,0.8630788568885392,0.8630788568885392,0.0,0,False
2024-10-17,0.8630788568885392,0.8630788568885392,0.0,0,False
2024-10-18,0.8630788568885392,0.8630788568885392,0.0,0,False
2024-10-19,0.8630788568885392,0.8630788568885392,0.0,0,False
2024-10-20,0.8630788568885392,0.8630788568885392,0.0,0,False
2024-10-21,0.8630788568885392,0.8630788568885392,0.0,0,False
2024-10-22,0.8630788568885392,0.8630788568885392,0.0,0,False
2024-10-23,0.8630788568885392,0.8630788568885392,0.0,0,False
2024-10-24,0.8630788568885392,0.8630788568885392,0.0,0,False
2024-10-25,0.8630788568885392,0.8630788568885392,0.0,0,False
2024-10-26,0.8630788568885392,0.8630788568885392,0.0,0,False
2024-10-27,0.8630788568885392,0.8630788568885392,0.0,0,False
2024-10-28,0.8630788568885392,0.8630788568885392,0.0,0,False
2024-10-29,0.8630788568885392,0.8630788568885392,0.0,0,False
2024-10-30,0.8630788568885392,0.8630788568885392,0.0,0,False
2024-10-31,0.8630788568885392,0.8630788568885392,0.0,0,False
2024-11-01,0.8630788568885392,0.8630788568885392,0.0,0,False
2024-11-02,0.8630788568885392,0.8630788568885392,0.0,0,False
2024-11-03,0.8630788568885392,0.8630788568885392,0.0,0,False
2024-11-04,0.8630788568885392,0.8630788568885392,0.0,0,False
2024-11-05,0.8630788568885392,0.8630788568885392,0.0,0,False
2024-11-06,0.8630788568885392,0.8630788568885392,0.0,0,False
2024-11-07,0.8630788568885392,0.8630788568885392,0.0,0,False
2024-11-08,0.8630788568885392,0.8630788568885392,0.0,0,False
2024-11-09,0.8630788568885392,0.8630788568885392,0.0,0,False
2024-11-10,0.8630788568885392,0.8630788568885392,0.0,0,False
2024-11-11,0.8630788568885392,0.8630788568885392,0.0,0,False
2024-11-12,0.8630788568885392,0.8630788568885392,0.0,0,False
2024-11-13,0.8630788568885392,0.8630788568885392,0.0,0,False
2024-11-14,0.8630788568885392,0.8630788568885392,0.0,0,False
2024-11-15,0.8630788568885392,0.8630788568885392,0.0,0,False
2024-11-16,0.8630788568885392,0.8630788568885392,0.0,0,False
2024-11-17,0.8630788568885392,0.8630788568885392,0.0,0,False
2024-11-18,0.8630788568885392,0.8630788568885392,0.0,0,False
2024-11-19,0.8630788568885392,0.8630788568885392,0.0,0,False
2024-11-20,0.8630788568885392,0.8630788568885392,0.0,0,False
2024-11-21,0.8630788568885392,0.8630788568885392,0.0,0,False
2024-11-22,0.8630788568885392,0.8630788568885392,0.0,0,False
2024-11-23,0.8630788568885392,0.8630788568885392,0.0,0,False
2024-11-24,0.8630788568885392,0.8630788568885392,0.0,0,False
2024-11-25,0.8630788568885392,0.8630788568885392,0.0,0,False
2024-11-26,0.8630788568885392,0.8630788568885392,0.0,0,False
2024-11-27,0.8630788568885392,0.8630788568885392,0.0,0,False
2024-11-28,0.8630788568885392,0.8630788568885392,0.0,0,False
2024-11-29,0.8630788568885392,0.8630788568885392,0.0,0,False
2024-11-30,0.8630788568885392,0.8630788568885392,0.0,0,False
2024-12-01,0.8630788568885392,0.8630788568885392,0.0,0,False
2024-12-02,0.8630788568885392,0.8630788568885392,0.0,0,False
2024-12-03,0.8630788568885392,0.8630788568885392,0.0,0,False
2024-12-04,0.8630788568885392,0.8630788568885392,0.0,0,False
2024-12-05,0.8630788568885392,0.8630788568885392,0.0,0,False
2024-12-06,0.8630788568885392,0.8630788568885392,0.0,0,False
2024-12-07,0.8630788568885392,0.8630788568885392,0.0,0,False
2024-12-08,0.8630788568885392,0.8630788568885392,0.0,0,False
2024-12-09,0.8630788568885392,0.8630788568885392,0.0,0,False
2024-12-10,0.8630788568885392,0.8630788568885392,0.0,0,False
2024-12-11,0.8630788568885392,0.8630788568885392,0.0,0,False
2024-12-12,0.8630788568885392,0.8630788568885392,0.0,0,False
2024-12-13,0.8630788568885392,0.8630788568885392,0.0,0,False
2024-12-14,0.8630788568885392,0.8630788568885392,0.0,0,False
2024-12-15,0.8630788568885392,0.8630788568885392,0.0,0,False
2024-12-16,0.8630788568885392,0.8630788568885392,0.0,0,False
2024-12-17,0.8630788568885392,0.8630788568885392,0.0,0,False
2024-12-18,0.8630788568885392,0.8630788568885392,0.0,0,False
2024-12-19,0.8630788568885392,0.8630788568885392,0.0,0,False
2024-12-20,0.8630788568885392,0.8630788568885392,0.0,0,False
2024-12-21,0.8630788568885392,0.8630788568885392,0.0,0,False
2024-12-22,0.8630788568885392,0.8630788568885392,0.0,0,False
2024-12-23,0.8630788568885392,0.8630788568885392,0.0,0,False
2024-12-24,0.8630788568885392,0.8630788568885392,0.0,0,False
2024-12-25,0.8630788568885392,0.8630788568885392,0.0,0,False
2024-12-26,0.8630788568885392,0.8630788568885392,0.0,0,False
2024-12-27,0.8630788568885392,0.8630788568885392,0.0,0,False
2024-12-28,0.8630788568885392,0.8630788568885392,0.0,0,False
2024-12-29,0.8630788568885392,0.8630788568885392,0.0,0,False
2024-12-30,0.8630788568885392,0.8630788568885392,0.0,0,False
2024-12-31,0.8630788568885392,0.8630788568885392,0.0,0,False
