day,start_equity,end_equity,return_pct,entries,active
2021-09-02,1.0,1.0,0.0,0,False
2021-09-03,1.0,1.0,0.0,0,False
2021-09-04,1.0,1.0,0.0,0,False
2021-09-05,1.0,1.0,0.0,0,False
2021-09-06,1.0,1.0,0.0,0,False
2021-09-07,1.0,1.0,0.0,0,False
2021-09-08,1.0,1.0,0.0,0,False
2021-09-09,1.0,1.0,0.0,0,False
2021-09-10,1.0,1.0,0.0,0,False
2021-09-11,1.0,1.0,0.0,0,False
2021-09-12,1.0,1.0,0.0,0,False
2021-09-13,1.0,1.0,0.0,0,False
2021-09-14,1.0,1.0,0.0,0,False
2021-09-15,1.0,1.0,0.0,0,False
2021-09-16,1.0,1.0,0.0,0,False
2021-09-17,1.0,1.0,0.0,0,False
2021-09-18,1.0,1.0,0.0,0,False
2021-09-19,1.0,1.0,0.0,0,False
2021-09-20,1.0,1.0,0.0,0,False
2021-09-21,1.0,1.0,0.0,0,False
2021-09-22,1.0,1.0,0.0,0,False
2021-09-23,1.0,1.0,0.0,0,False
2021-09-24,1.0,1.0,0.0,0,False
2021-09-25,1.0,1.0,0.0,0,False
2021-09-26,1.0,1.0,0.0,0,False
2021-09-27,1.0,1.0,0.0,0,False
2021-09-28,1.0,1.0,0.0,0,False
2021-09-29,1.0,1.0,0.0,0,False
2021-09-30,1.0,1.0,0.0,0,False
2021-10-01,1.0,1.0,0.0,0,False
2021-10-02,1.0,1.0,0.0,0,False
2021-10-03,1.0,1.0,0.0,0,False
2021-10-04,1.0,1.0,0.0,0,False
2021-10-05,1.0,0.9993073753491394,-0.06926246508606182,1,True
2021-10-06,0.9993073753491394,1.0047370107406295,0.543339869736581,5,True
2021-10-07,1.0047370107406295,0.9926783266390775,-1.2001831297787091,2,True
2021-10-08,0.9926783266390775,0.9920050187799829,-0.0678273959475062,1,True
2021-10-09,0.9920050187799829,0.9938392266473597,0.1848990511794435,4,True
2021-10-10,0.9938392266473597,0.9884026571438839,-0.5470270600825167,1,True
2021-10-11,0.9884026571438839,0.9884026571438839,0.0,0,False
2021-10-12,0.9884026571438839,0.9884026571438839,0.0,0,False
2021-10-13,0.9884026571438839,1.0080583013487623,1.9886272120793302,4,True
2021-10-14,1.0080583013487623,1.0235041206559823,1.5322347215983134,1,True
2021-10-15,1.0235041206559823,1.0256197591926657,0.20670542443224083,6,True
2021-10-16,1.0256197591926657,1.0628231281382603,3.627403685638808,4,True
2021-10-17,1.0628231281382603,1.0628231281382603,0.0,0,False
2021-10-18,1.0628231281382603,1.0642746490808197,0.13657220135037118,2,True
2021-10-19,1.0642746490808197,1.0642746490808197,0.0,0,False
2021-10-20,1.0642746490808197,1.0642746490808197,0.0,0,False
2021-10-21,1.0642746490808197,1.0642746490808197,0.0,0,False
2021-10-22,1.0642746490808197,1.0642746490808197,0.0,0,False
2021-10-23,1.0642746490808197,1.0642746490808197,0.0,0,False
2021-10-24,1.0642746490808197,1.0688177620254262,0.4268741107880558,1,True
2021-10-25,1.0688177620254262,1.060951399799869,-0.7359872286039071,3,True
2021-10-26,1.060951399799869,1.060951399799869,0.0,0,False
2021-10-27,1.060951399799869,1.0709058798986133,0.9382597638894818,7,True
2021-10-28,1.0709058798986133,1.0455344073499642,-2.3691598883602283,8,True
2021-10-29,1.0455344073499642,1.0501814627002277,0.4444669938737045,3,True
2021-10-30,1.0501814627002277,1.0537428717622372,0.3391232076076056,2,True
2021-10-31,1.0537428717622372,1.045979606977508,-0.7367323654343005,11,True
2021-11-01,1.045979606977508,1.0313742343313919,-1.3963343595502997,9,True
2021-11-02,1.0313742343313919,1.0388306235855345,0.7229567121168623,3,True
2021-11-03,1.0388306235855345,1.0349378294858649,-0.37472846980901586,2,True
2021-11-04,1.0349378294858649,1.027717596588724,-0.6976489496695493,6,True
2021-11-05,1.027717596588724,1.013151648843304,-1.4173103383427699,7,True
2021-11-06,1.013151648843304,1.011271097874298,-0.1856139671837953,3,True
2021-11-07,1.011271097874298,1.011271097874298,0.0,0,False
2021-11-08,1.011271097874298,1.011271097874298,0.0,0,False
2021-11-09,1.011271097874298,1.0178352639088701,0.6491005278772555,2,True
2021-11-10,1.0178352639088701,1.052063400582419,3.362836589302276,1,True
2021-11-11,1.052063400582419,1.0261733157806074,-2.4608863674450476,4,True
2021-11-12,1.0261733157806074,1.0049371809061876,-2.069449141567825,7,True
2021-11-13,1.0049371809061876,1.005105090231354,0.01670843992607196,1,True
2021-11-14,1.005105090231354,0.996018088952803,-0.9040846939158853,2,True
2021-11-15,0.996018088952803,0.996018088952803,0.0,0,False
2021-11-16,0.996018088952803,1.0392139869877275,4.336858789416165,9,True
2021-11-17,1.0392139869877275,1.0293269686673723,-0.9513938846236858,1,True
2021-11-18,1.0293269686673723,1.0173817630821986,-1.1604869928394712,4,True
2021-11-19,1.0173817630821986,1.0293614296075362,1.1774996328855591,8,True
2021-11-20,1.0293614296075362,1.0382514387099202,0.8636431137480471,0,True
2021-11-21,1.0382514387099202,1.0311870693839242,-0.6804102611958629,3,True
2021-11-22,1.0311870693839242,1.0092269573447559,-2.1295953654935085,7,True
2021-11-23,1.0092269573447559,1.0092269573447559,0.0,0,False
2021-11-24,1.0092269573447559,0.9955587138112824,-1.3543280264167956,4,True
2021-11-25,0.9955587138112824,1.0165366339338167,2.107150470535779,11,True
2021-11-26,1.0165366339338167,0.9859269141974222,-3.0111772379456947,10,True
2021-11-27,0.9859269141974222,0.9925214394995266,0.668865532235996,9,True
2021-11-28,0.9925214394995266,0.971419275310756,-2.1261167113338475,7,True
2021-11-29,0.971419275310756,0.9690772849302036,-0.241089552171303,2,True
2021-11-30,0.9690772849302036,0.9640906851499998,-0.5145719394880843,3,True
2021-12-01,0.9640906851499998,0.9679352836380066,0.3987797566375795,3,True
2021-12-02,0.9679352836380066,0.9692701300302504,0.1379065744175234,7,True
2021-12-03,0.9692701300302504,0.9644323286799463,-0.4991179652005906,3,True
2021-12-04,0.9644323286799463,0.9441487653361773,-2.10316086889496,14,True
2021-12-05,0.9441487653361773,0.947490387252479,0.3539295965834244,4,True
2021-12-06,0.947490387252479,0.9406059383625218,-0.7265982834845031,19,True
2021-12-07,0.9406059383625218,0.9408091044173874,0.021599486732903905,1,True
2021-12-08,0.9408091044173874,0.9404407474307369,-0.03915321237017988,4,True
2021-12-09,0.9404407474307369,0.9351560519539264,-0.5619381647645749,4,True
2021-12-10,0.9351560519539264,0.9291808203475265,-0.6389555618995568,4,True
2021-12-11,0.9291808203475265,0.9256532683529087,-0.3796410684949736,2,True
2021-12-12,0.9256532683529087,0.9256532683529087,0.0,0,False
2021-12-13,0.9256532683529087,0.9228209454795966,-0.3059809725894369,2,True
2021-12-14,0.9228209454795966,0.9205217895643782,-0.24914431412514926,1,True
2021-12-15,0.9205217895643782,0.9214493969056309,0.1007697320985379,1,True
2021-12-16,0.9214493969056309,0.921315030897995,-0.014582027845155832,1,True
2021-12-17,0.921315030897995,0.9183114797606695,-0.32600696141883434,5,True
2021-12-18,0.9183114797606695,0.9162142356495564,-0.22838047409139417,3,True
2021-12-19,0.9162142356495564,0.9145686097647894,-0.17961147303068303,1,True
2021-12-20,0.9145686097647894,0.9145686097647894,0.0,0,False
2021-12-21,0.9145686097647894,0.9145686097647894,0.0,0,False
2021-12-22,0.9145686097647894,0.9145686097647894,0.0,0,False
2021-12-23,0.9145686097647894,0.9145686097647894,0.0,0,False
2021-12-24,0.9145686097647894,0.9145686097647894,0.0,0,False
2021-12-25,0.9145686097647894,0.9145686097647894,0.0,0,False
2021-12-26,0.9145686097647894,0.9145686097647894,0.0,0,False
2021-12-27,0.9145686097647894,0.9145686097647894,0.0,0,False
2021-12-28,0.9145686097647894,0.9145686097647894,0.0,0,False
2021-12-29,0.9145686097647894,0.9145686097647894,0.0,0,False
2021-12-30,0.9145686097647894,0.9145686097647894,0.0,0,False
2021-12-31,0.9145686097647894,0.9145686097647894,0.0,0,False
2022-01-01,0.9145686097647894,0.9145686097647894,0.0,0,False
2022-01-02,0.9145686097647894,0.9145686097647894,0.0,0,False
2022-01-03,0.9145686097647894,0.9145686097647894,0.0,0,False
2022-01-04,0.9145686097647894,0.9145686097647894,0.0,0,False
2022-01-05,0.9145686097647894,0.9145686097647894,0.0,0,False
2022-01-06,0.9145686097647894,0.9145686097647894,0.0,0,False
2022-01-07,0.9145686097647894,0.9145686097647894,0.0,0,False
2022-01-08,0.9145686097647894,0.9145686097647894,0.0,0,False
2022-01-09,0.9145686097647894,0.9145686097647894,0.0,0,False
2022-01-10,0.9145686097647894,0.9145686097647894,0.0,0,False
2022-01-11,0.9145686097647894,0.9145686097647894,0.0,0,False
2022-01-12,0.9145686097647894,0.9145686097647894,0.0,0,False
2022-01-13,0.9145686097647894,0.9145686097647894,0.0,0,False
2022-01-14,0.9145686097647894,0.9145686097647894,0.0,0,False
2022-01-15,0.9145686097647894,0.9145686097647894,0.0,0,False
2022-01-16,0.9145686097647894,0.9145686097647894,0.0,0,False
2022-01-17,0.9145686097647894,0.9145686097647894,0.0,0,False
2022-01-18,0.9145686097647894,0.9145686097647894,0.0,0,False
2022-01-19,0.9145686097647894,0.9145686097647894,0.0,0,False
2022-01-20,0.9145686097647894,0.9145686097647894,0.0,0,False
2022-01-21,0.9145686097647894,0.9145686097647894,0.0,0,False
2022-01-22,0.9145686097647894,0.9145686097647894,0.0,0,False
2022-01-23,0.9145686097647894,0.9145686097647894,0.0,0,False
2022-01-24,0.9145686097647894,0.9145686097647894,0.0,0,False
2022-01-25,0.9145686097647894,0.9145686097647894,0.0,0,False
2022-01-26,0.9145686097647894,0.9145686097647894,0.0,0,False
2022-01-27,0.9145686097647894,0.9145686097647894,0.0,0,False
2022-01-28,0.9145686097647894,0.9145686097647894,0.0,0,False
2022-01-29,0.9145686097647894,0.9145686097647894,0.0,0,False
2022-01-30,0.9145686097647894,0.9145686097647894,0.0,0,False
2022-01-31,0.9145686097647894,0.9145686097647894,0.0,0,False
2022-02-01,0.9145686097647894,0.9145686097647894,0.0,0,False
2022-02-02,0.9145686097647894,0.9145686097647894,0.0,0,False
2022-02-03,0.9145686097647894,0.9145686097647894,0.0,0,False
2022-02-04,0.9145686097647894,0.9145686097647894,0.0,0,False
2022-02-05,0.9145686097647894,0.9145686097647894,0.0,0,False
2022-02-06,0.9145686097647894,0.9145686097647894,0.0,0,False
2022-02-07,0.9145686097647894,0.9145686097647894,0.0,0,False
2022-02-08,0.9145686097647894,0.9145686097647894,0.0,0,False
2022-02-09,0.9145686097647894,0.9145686097647894,0.0,0,False
2022-02-10,0.9145686097647894,0.9145686097647894,0.0,0,False
2022-02-11,0.9145686097647894,0.9145686097647894,0.0,0,False
2022-02-12,0.9145686097647894,0.9145686097647894,0.0,0,False
2022-02-13,0.9145686097647894,0.9145686097647894,0.0,0,False
2022-02-14,0.9145686097647894,0.9145686097647894,0.0,0,False
2022-02-15,0.9145686097647894,0.9145686097647894,0.0,0,False
2022-02-16,0.9145686097647894,0.9145686097647894,0.0,0,False
2022-02-17,0.9145686097647894,0.9145686097647894,0.0,0,False
2022-02-18,0.9145686097647894,0.9145686097647894,0.0,0,False
2022-02-19,0.9145686097647894,0.9145686097647894,0.0,0,False
2022-02-20,0.9145686097647894,0.9145686097647894,0.0,0,False
2022-02-21,0.9145686097647894,0.9145686097647894,0.0,0,False
2022-02-22,0.9145686097647894,0.9145686097647894,0.0,0,False
2022-02-23,0.9145686097647894,0.9145686097647894,0.0,0,False
2022-02-24,0.9145686097647894,0.9145686097647894,0.0,0,False
2022-02-25,0.9145686097647894,0.9145686097647894,0.0,0,False
2022-02-26,0.9145686097647894,0.9145686097647894,0.0,0,False
2022-02-27,0.9145686097647894,0.9145686097647894,0.0,0,False
2022-02-28,0.9145686097647894,0.9145686097647894,0.0,0,False
2022-03-01,0.9145686097647894,0.9145686097647894,0.0,0,False
2022-03-02,0.9145686097647894,0.9145686097647894,0.0,0,False
2022-03-03,0.9145686097647894,0.9145686097647894,0.0,0,False
2022-03-04,0.9145686097647894,0.9145686097647894,0.0,0,False
2022-03-05,0.9145686097647894,0.9145686097647894,0.0,0,False
2022-03-06,0.9145686097647894,0.9145686097647894,0.0,0,False
2022-03-07,0.9145686097647894,0.9145686097647894,0.0,0,False
2022-03-08,0.9145686097647894,0.9145686097647894,0.0,0,False
2022-03-09,0.9145686097647894,0.9145686097647894,0.0,0,False
2022-03-10,0.9145686097647894,0.9145686097647894,0.0,0,False
2022-03-11,0.9145686097647894,0.9145686097647894,0.0,0,False
2022-03-12,0.9145686097647894,0.9145686097647894,0.0,0,False
2022-03-13,0.9145686097647894,0.9145686097647894,0.0,0,False
2022-03-14,0.9145686097647894,0.9145686097647894,0.0,0,False
2022-03-15,0.9145686097647894,0.9145686097647894,0.0,0,False
2022-03-16,0.9145686097647894,0.9145686097647894,0.0,0,False
2022-03-17,0.9145686097647894,0.9145686097647894,0.0,0,False
2022-03-18,0.9145686097647894,0.9145686097647894,0.0,0,False
2022-03-19,0.9145686097647894,0.9145686097647894,0.0,0,False
2022-03-20,0.9145686097647894,0.9145686097647894,0.0,0,False
2022-03-21,0.9145686097647894,0.9145686097647894,0.0,0,False
2022-03-22,0.9145686097647894,0.9145686097647894,0.0,0,False
2022-03-23,0.9145686097647894,0.9145686097647894,0.0,0,False
2022-03-24,0.9145686097647894,0.9145686097647894,0.0,0,False
2022-03-25,0.9145686097647894,0.9145686097647894,0.0,0,False
2022-03-26,0.9145686097647894,0.9145686097647894,0.0,0,False
2022-03-27,0.9145686097647894,0.9145686097647894,0.0,0,False
2022-03-28,0.9145686097647894,0.9145686097647894,0.0,0,False
2022-03-29,0.9145686097647894,0.9145686097647894,0.0,0,False
2022-03-30,0.9145686097647894,0.9145686097647894,0.0,0,False
2022-03-31,0.9145686097647894,0.9145686097647894,0.0,0,False
2022-04-01,0.9145686097647894,0.9145686097647894,0.0,0,False
2022-04-02,0.9145686097647894,0.9145686097647894,0.0,0,False
2022-04-03,0.9145686097647894,0.9145686097647894,0.0,0,False
2022-04-04,0.9145686097647894,0.9145686097647894,0.0,0,False
2022-04-05,0.9145686097647894,0.9145686097647894,0.0,0,False
2022-04-06,0.9145686097647894,0.9145686097647894,0.0,0,False
2022-04-07,0.9145686097647894,0.9145686097647894,0.0,0,False
2022-04-08,0.9145686097647894,0.9145686097647894,0.0,0,False
2022-04-09,0.9145686097647894,0.9145686097647894,0.0,0,False
2022-04-10,0.9145686097647894,0.9145686097647894,0.0,0,False
2022-04-11,0.9145686097647894,0.9145686097647894,0.0,0,False
2022-04-12,0.9145686097647894,0.9145686097647894,0.0,0,False
2022-04-13,0.9145686097647894,0.9145686097647894,0.0,0,False
2022-04-14,0.9145686097647894,0.9145686097647894,0.0,0,False
2022-04-15,0.9145686097647894,0.9145686097647894,0.0,0,False
2022-04-16,0.9145686097647894,0.9145686097647894,0.0,0,False
2022-04-17,0.9145686097647894,0.9145686097647894,0.0,0,False
2022-04-18,0.9145686097647894,0.9145686097647894,0.0,0,False
2022-04-19,0.9145686097647894,0.9145686097647894,0.0,0,False
2022-04-20,0.9145686097647894,0.9145686097647894,0.0,0,False
2022-04-21,0.9145686097647894,0.9145686097647894,0.0,0,False
2022-04-22,0.9145686097647894,0.9145686097647894,0.0,0,False
2022-04-23,0.9145686097647894,0.9145686097647894,0.0,0,False
2022-04-24,0.9145686097647894,0.9145686097647894,0.0,0,False
2022-04-25,0.9145686097647894,0.9145686097647894,0.0,0,False
2022-04-26,0.9145686097647894,0.9145686097647894,0.0,0,False
2022-04-27,0.9145686097647894,0.9145686097647894,0.0,0,False
2022-04-28,0.9145686097647894,0.9145686097647894,0.0,0,False
2022-04-29,0.9145686097647894,0.9145686097647894,0.0,0,False
2022-04-30,0.9145686097647894,0.9145686097647894,0.0,0,False
2022-05-01,0.9145686097647894,0.9145686097647894,0.0,0,False
2022-05-02,0.9145686097647894,0.9145686097647894,0.0,0,False
2022-05-03,0.9145686097647894,0.9145686097647894,0.0,0,False
2022-05-04,0.9145686097647894,0.9145686097647894,0.0,0,False
2022-05-05,0.9145686097647894,0.9145686097647894,0.0,0,False
2022-05-06,0.9145686097647894,0.9145686097647894,0.0,0,False
2022-05-07,0.9145686097647894,0.9145686097647894,0.0,0,False
2022-05-08,0.9145686097647894,0.9145686097647894,0.0,0,False
2022-05-09,0.9145686097647894,0.9145686097647894,0.0,0,False
2022-05-10,0.9145686097647894,0.9145686097647894,0.0,0,False
2022-05-11,0.9145686097647894,0.9145686097647894,0.0,0,False
2022-05-12,0.9145686097647894,0.9145686097647894,0.0,0,False
2022-05-13,0.9145686097647894,0.9145686097647894,0.0,0,False
2022-05-14,0.9145686097647894,0.9145686097647894,0.0,0,False
2022-05-15,0.9145686097647894,0.9145686097647894,0.0,0,False
2022-05-16,0.9145686097647894,0.9145686097647894,0.0,0,False
2022-05-17,0.9145686097647894,0.9145686097647894,0.0,0,False
2022-05-18,0.9145686097647894,0.9145686097647894,0.0,0,False
2022-05-19,0.9145686097647894,0.9145686097647894,0.0,0,False
2022-05-20,0.9145686097647894,0.9145686097647894,0.0,0,False
2022-05-21,0.9145686097647894,0.9145686097647894,0.0,0,False
2022-05-22,0.9145686097647894,0.9145686097647894,0.0,0,False
2022-05-23,0.9145686097647894,0.9145686097647894,0.0,0,False
2022-05-24,0.9145686097647894,0.9145686097647894,0.0,0,False
2022-05-25,0.9145686097647894,0.9145686097647894,0.0,0,False
2022-05-26,0.9145686097647894,0.9145686097647894,0.0,0,False
2022-05-27,0.9145686097647894,0.9145686097647894,0.0,0,False
2022-05-28,0.9145686097647894,0.9145686097647894,0.0,0,False
2022-05-29,0.9145686097647894,0.9145686097647894,0.0,0,False
2022-05-30,0.9145686097647894,0.9145686097647894,0.0,0,False
2022-05-31,0.9145686097647894,0.9145686097647894,0.0,0,False
2022-06-01,0.9145686097647894,0.9145686097647894,0.0,0,False
2022-06-02,0.9145686097647894,0.9145686097647894,0.0,0,False
2022-06-03,0.9145686097647894,0.9145686097647894,0.0,0,False
2022-06-04,0.9145686097647894,0.9145686097647894,0.0,0,False
2022-06-05,0.9145686097647894,0.9145686097647894,0.0,0,False
2022-06-06,0.9145686097647894,0.9145686097647894,0.0,0,False
2022-06-07,0.9145686097647894,0.9145686097647894,0.0,0,False
2022-06-08,0.9145686097647894,0.9145686097647894,0.0,0,False
2022-06-09,0.9145686097647894,0.9145686097647894,0.0,0,False
2022-06-10,0.9145686097647894,0.9145686097647894,0.0,0,False
2022-06-11,0.9145686097647894,0.9145686097647894,0.0,0,False
2022-06-12,0.9145686097647894,0.9145686097647894,0.0,0,False
2022-06-13,0.9145686097647894,0.9145686097647894,0.0,0,False
2022-06-14,0.9145686097647894,0.9145686097647894,0.0,0,False
2022-06-15,0.9145686097647894,0.9145686097647894,0.0,0,False
2022-06-16,0.9145686097647894,0.9145686097647894,0.0,0,False
2022-06-17,0.9145686097647894,0.9145686097647894,0.0,0,False
2022-06-18,0.9145686097647894,0.9145686097647894,0.0,0,False
2022-06-19,0.9145686097647894,0.9145686097647894,0.0,0,False
2022-06-20,0.9145686097647894,0.9145686097647894,0.0,0,False
2022-06-21,0.9145686097647894,0.9145686097647894,0.0,0,False
2022-06-22,0.9145686097647894,0.9145686097647894,0.0,0,False
2022-06-23,0.9145686097647894,0.9145686097647894,0.0,0,False
2022-06-24,0.9145686097647894,0.9145686097647894,0.0,0,False
2022-06-25,0.9145686097647894,0.9145686097647894,0.0,0,False
2022-06-26,0.9145686097647894,0.9145686097647894,0.0,0,False
2022-06-27,0.9145686097647894,0.9145686097647894,0.0,0,False
2022-06-28,0.9145686097647894,0.9145686097647894,0.0,0,False
2022-06-29,0.9145686097647894,0.9145686097647894,0.0,0,False
2022-06-30,0.9145686097647894,0.9145686097647894,0.0,0,False
2022-07-01,0.9145686097647894,0.9145686097647894,0.0,0,False
2022-07-02,0.9145686097647894,0.9145686097647894,0.0,0,False
2022-07-03,0.9145686097647894,0.9145686097647894,0.0,0,False
2022-07-04,0.9145686097647894,0.9145686097647894,0.0,0,False
2022-07-05,0.9145686097647894,0.9145686097647894,0.0,0,False
2022-07-06,0.9145686097647894,0.9145686097647894,0.0,0,False
2022-07-07,0.9145686097647894,0.9145686097647894,0.0,0,False
2022-07-08,0.9145686097647894,0.9145686097647894,0.0,0,False
2022-07-09,0.9145686097647894,0.9145686097647894,0.0,0,False
2022-07-10,0.9145686097647894,0.9145686097647894,0.0,0,False
2022-07-11,0.9145686097647894,0.9145686097647894,0.0,0,False
2022-07-12,0.9145686097647894,0.9145686097647894,0.0,0,False
2022-07-13,0.9145686097647894,0.9145686097647894,0.0,0,False
2022-07-14,0.9145686097647894,0.9145686097647894,0.0,0,False
2022-07-15,0.9145686097647894,0.9145686097647894,0.0,0,False
2022-07-16,0.9145686097647894,0.9145686097647894,0.0,0,False
2022-07-17,0.9145686097647894,0.9145686097647894,0.0,0,False
2022-07-18,0.9145686097647894,0.9145686097647894,0.0,0,False
2022-07-19,0.9145686097647894,0.9145686097647894,0.0,0,False
2022-07-20,0.9145686097647894,0.9145686097647894,0.0,0,False
2022-07-21,0.9145686097647894,0.9145686097647894,0.0,0,False
2022-07-22,0.9145686097647894,0.9145686097647894,0.0,0,False
2022-07-23,0.9145686097647894,0.9145686097647894,0.0,0,False
2022-07-24,0.9145686097647894,0.9145686097647894,0.0,0,False
2022-07-25,0.9145686097647894,0.9145686097647894,0.0,0,False
2022-07-26,0.9145686097647894,0.9145686097647894,0.0,0,False
2022-07-27,0.9145686097647894,0.9145686097647894,0.0,0,False
2022-07-28,0.9145686097647894,0.9145686097647894,0.0,0,False
2022-07-29,0.9145686097647894,0.9145686097647894,0.0,0,False
2022-07-30,0.9145686097647894,0.9145686097647894,0.0,0,False
2022-07-31,0.9145686097647894,0.9145686097647894,0.0,0,False
2022-08-01,0.9145686097647894,0.9145686097647894,0.0,0,False
2022-08-02,0.9145686097647894,0.9145686097647894,0.0,0,False
2022-08-03,0.9145686097647894,0.9145686097647894,0.0,0,False
2022-08-04,0.9145686097647894,0.9145686097647894,0.0,0,False
2022-08-05,0.9145686097647894,0.9145686097647894,0.0,0,False
2022-08-06,0.9145686097647894,0.9145686097647894,0.0,0,False
2022-08-07,0.9145686097647894,0.9145686097647894,0.0,0,False
2022-08-08,0.9145686097647894,0.9145686097647894,0.0,0,False
2022-08-09,0.9145686097647894,0.9145686097647894,0.0,0,False
2022-08-10,0.9145686097647894,0.9145686097647894,0.0,0,False
2022-08-11,0.9145686097647894,0.9145686097647894,0.0,0,False
2022-08-12,0.9145686097647894,0.9145686097647894,0.0,0,False
2022-08-13,0.9145686097647894,0.9145686097647894,0.0,0,False
2022-08-14,0.9145686097647894,0.9145686097647894,0.0,0,False
2022-08-15,0.9145686097647894,0.9145686097647894,0.0,0,False
2022-08-16,0.9145686097647894,0.9145686097647894,0.0,0,False
2022-08-17,0.9145686097647894,0.9145686097647894,0.0,0,False
2022-08-18,0.9145686097647894,0.9145686097647894,0.0,0,False
2022-08-19,0.9145686097647894,0.9145686097647894,0.0,0,False
2022-08-20,0.9145686097647894,0.9145686097647894,0.0,0,False
2022-08-21,0.9145686097647894,0.9145686097647894,0.0,0,False
2022-08-22,0.9145686097647894,0.9145686097647894,0.0,0,False
2022-08-23,0.9145686097647894,0.9145686097647894,0.0,0,False
2022-08-24,0.9145686097647894,0.9145686097647894,0.0,0,False
2022-08-25,0.9145686097647894,0.9145686097647894,0.0,0,False
2022-08-26,0.9145686097647894,0.9145686097647894,0.0,0,False
2022-08-27,0.9145686097647894,0.9145686097647894,0.0,0,False
2022-08-28,0.9145686097647894,0.9145686097647894,0.0,0,False
2022-08-29,0.9145686097647894,0.9145686097647894,0.0,0,False
2022-08-30,0.9145686097647894,0.9145686097647894,0.0,0,False
2022-08-31,0.9145686097647894,0.9145686097647894,0.0,0,False
2022-09-01,0.9145686097647894,0.9145686097647894,0.0,0,False
2022-09-02,0.9145686097647894,0.9145686097647894,0.0,0,False
2022-09-03,0.9145686097647894,0.9145686097647894,0.0,0,False
2022-09-04,0.9145686097647894,0.9145686097647894,0.0,0,False
2022-09-05,0.9145686097647894,0.9145686097647894,0.0,0,False
2022-09-06,0.9145686097647894,0.9145686097647894,0.0,0,False
2022-09-07,0.9145686097647894,0.9145686097647894,0.0,0,False
2022-09-08,0.9145686097647894,0.9145686097647894,0.0,0,False
2022-09-09,0.9145686097647894,0.9145686097647894,0.0,0,False
2022-09-10,0.9145686097647894,0.9145686097647894,0.0,0,False
2022-09-11,0.9145686097647894,0.9145686097647894,0.0,0,False
2022-09-12,0.9145686097647894,0.9145686097647894,0.0,0,False
2022-09-13,0.9145686097647894,0.9145686097647894,0.0,0,False
2022-09-14,0.9145686097647894,0.9145686097647894,0.0,0,False
2022-09-15,0.9145686097647894,0.9145686097647894,0.0,0,False
2022-09-16,0.9145686097647894,0.9145686097647894,0.0,0,False
2022-09-17,0.9145686097647894,0.9145686097647894,0.0,0,False
2022-09-18,0.9145686097647894,0.9145686097647894,0.0,0,False
2022-09-19,0.9145686097647894,0.9145686097647894,0.0,0,False
2022-09-20,0.9145686097647894,0.9145686097647894,0.0,0,False
2022-09-21,0.9145686097647894,0.9145686097647894,0.0,0,False
2022-09-22,0.9145686097647894,0.9145686097647894,0.0,0,False
2022-09-23,0.9145686097647894,0.9145686097647894,0.0,0,False
2022-09-24,0.9145686097647894,0.9145686097647894,0.0,0,False
2022-09-25,0.9145686097647894,0.9145686097647894,0.0,0,False
2022-09-26,0.9145686097647894,0.9145686097647894,0.0,0,False
2022-09-27,0.9145686097647894,0.9145686097647894,0.0,0,False
2022-09-28,0.9145686097647894,0.9145686097647894,0.0,0,False
2022-09-29,0.9145686097647894,0.9145686097647894,0.0,0,False
2022-09-30,0.9145686097647894,0.9145686097647894,0.0,0,False
2022-10-01,0.9145686097647894,0.9145686097647894,0.0,0,False
2022-10-02,0.9145686097647894,0.9145686097647894,0.0,0,False
2022-10-03,0.9145686097647894,0.9145686097647894,0.0,0,False
2022-10-04,0.9145686097647894,0.9145686097647894,0.0,0,False
2022-10-05,0.9145686097647894,0.9145686097647894,0.0,0,False
2022-10-06,0.9145686097647894,0.9145686097647894,0.0,0,False
2022-10-07,0.9145686097647894,0.9145686097647894,0.0,0,False
2022-10-08,0.9145686097647894,0.9145686097647894,0.0,0,False
2022-10-09,0.9145686097647894,0.9145686097647894,0.0,0,False
2022-10-10,0.9145686097647894,0.9145686097647894,0.0,0,False
2022-10-11,0.9145686097647894,0.9145686097647894,0.0,0,False
2022-10-12,0.9145686097647894,0.9145686097647894,0.0,0,False
2022-10-13,0.9145686097647894,0.9145686097647894,0.0,0,False
2022-10-14,0.9145686097647894,0.9145686097647894,0.0,0,False
2022-10-15,0.9145686097647894,0.9145686097647894,0.0,0,False
2022-10-16,0.9145686097647894,0.9145686097647894,0.0,0,False
2022-10-17,0.9145686097647894,0.9145686097647894,0.0,0,False
2022-10-18,0.9145686097647894,0.9145686097647894,0.0,0,False
2022-10-19,0.9145686097647894,0.9145686097647894,0.0,0,False
2022-10-20,0.9145686097647894,0.9145686097647894,0.0,0,False
2022-10-21,0.9145686097647894,0.9145686097647894,0.0,0,False
2022-10-22,0.9145686097647894,0.9145686097647894,0.0,0,False
2022-10-23,0.9145686097647894,0.9145686097647894,0.0,0,False
2022-10-24,0.9145686097647894,0.9145686097647894,0.0,0,False
2022-10-25,0.9145686097647894,0.9145686097647894,0.0,0,False
2022-10-26,0.9145686097647894,0.9145686097647894,0.0,0,False
2022-10-27,0.9145686097647894,0.9145686097647894,0.0,0,False
2022-10-28,0.9145686097647894,0.9145686097647894,0.0,0,False
2022-10-29,0.9145686097647894,0.9145686097647894,0.0,0,False
2022-10-30,0.9145686097647894,0.9145686097647894,0.0,0,False
2022-10-31,0.9145686097647894,0.9145686097647894,0.0,0,False
2022-11-01,0.9145686097647894,0.9145686097647894,0.0,0,False
2022-11-02,0.9145686097647894,0.9145686097647894,0.0,0,False
2022-11-03,0.9145686097647894,0.9145686097647894,0.0,0,False
2022-11-04,0.9145686097647894,0.9145686097647894,0.0,0,False
2022-11-05,0.9145686097647894,0.9145686097647894,0.0,0,False
2022-11-06,0.9145686097647894,0.9145686097647894,0.0,0,False
2022-11-07,0.9145686097647894,0.9145686097647894,0.0,0,False
2022-11-08,0.9145686097647894,0.9145686097647894,0.0,0,False
2022-11-09,0.9145686097647894,0.9145686097647894,0.0,0,False
2022-11-10,0.9145686097647894,0.9145686097647894,0.0,0,False
2022-11-11,0.9145686097647894,0.9145686097647894,0.0,0,False
2022-11-12,0.9145686097647894,0.9145686097647894,0.0,0,False
2022-11-13,0.9145686097647894,0.9145686097647894,0.0,0,False
2022-11-14,0.9145686097647894,0.9145686097647894,0.0,0,False
2022-11-15,0.9145686097647894,0.9145686097647894,0.0,0,False
2022-11-16,0.9145686097647894,0.9145686097647894,0.0,0,False
2022-11-17,0.9145686097647894,0.9145686097647894,0.0,0,False
2022-11-18,0.9145686097647894,0.9145686097647894,0.0,0,False
2022-11-19,0.9145686097647894,0.9145686097647894,0.0,0,False
2022-11-20,0.9145686097647894,0.9145686097647894,0.0,0,False
2022-11-21,0.9145686097647894,0.9145686097647894,0.0,0,False
2022-11-22,0.9145686097647894,0.9145686097647894,0.0,0,False
2022-11-23,0.9145686097647894,0.9145686097647894,0.0,0,False
2022-11-24,0.9145686097647894,0.9145686097647894,0.0,0,False
2022-11-25,0.9145686097647894,0.9145686097647894,0.0,0,False
2022-11-26,0.9145686097647894,0.9145686097647894,0.0,0,False
2022-11-27,0.9145686097647894,0.9145686097647894,0.0,0,False
2022-11-28,0.9145686097647894,0.9145686097647894,0.0,0,False
2022-11-29,0.9145686097647894,0.9145686097647894,0.0,0,False
2022-11-30,0.9145686097647894,0.9145686097647894,0.0,0,False
2022-12-01,0.9145686097647894,0.9145686097647894,0.0,0,False
2022-12-02,0.9145686097647894,0.9145686097647894,0.0,0,False
2022-12-03,0.9145686097647894,0.9145686097647894,0.0,0,False
2022-12-04,0.9145686097647894,0.9145686097647894,0.0,0,False
2022-12-05,0.9145686097647894,0.9145686097647894,0.0,0,False
2022-12-06,0.9145686097647894,0.9145686097647894,0.0,0,False
2022-12-07,0.9145686097647894,0.9145686097647894,0.0,0,False
2022-12-08,0.9145686097647894,0.9145686097647894,0.0,0,False
2022-12-09,0.9145686097647894,0.9145686097647894,0.0,0,False
2022-12-10,0.9145686097647894,0.9145686097647894,0.0,0,False
2022-12-11,0.9145686097647894,0.9145686097647894,0.0,0,False
2022-12-12,0.9145686097647894,0.9145686097647894,0.0,0,False
2022-12-13,0.9145686097647894,0.9145686097647894,0.0,0,False
2022-12-14,0.9145686097647894,0.9145686097647894,0.0,0,False
2022-12-15,0.9145686097647894,0.9145686097647894,0.0,0,False
2022-12-16,0.9145686097647894,0.9145686097647894,0.0,0,False
2022-12-17,0.9145686097647894,0.9145686097647894,0.0,0,False
2022-12-18,0.9145686097647894,0.9145686097647894,0.0,0,False
2022-12-19,0.9145686097647894,0.9145686097647894,0.0,0,False
2022-12-20,0.9145686097647894,0.9145686097647894,0.0,0,False
2022-12-21,0.9145686097647894,0.9145686097647894,0.0,0,False
2022-12-22,0.9145686097647894,0.9145686097647894,0.0,0,False
2022-12-23,0.9145686097647894,0.9145686097647894,0.0,0,False
2022-12-24,0.9145686097647894,0.9145686097647894,0.0,0,False
2022-12-25,0.9145686097647894,0.9145686097647894,0.0,0,False
2022-12-26,0.9145686097647894,0.9145686097647894,0.0,0,False
2022-12-27,0.9145686097647894,0.9145686097647894,0.0,0,False
2022-12-28,0.9145686097647894,0.9145686097647894,0.0,0,False
2022-12-29,0.9145686097647894,0.9145686097647894,0.0,0,False
2022-12-30,0.9145686097647894,0.9145686097647894,0.0,0,False
2022-12-31,0.9145686097647894,0.9145686097647894,0.0,0,False
2023-01-01,0.9145686097647894,0.9145686097647894,0.0,0,False
2023-01-02,0.9145686097647894,0.9145686097647894,0.0,0,False
2023-01-03,0.9145686097647894,0.9145686097647894,0.0,0,False
2023-01-04,0.9145686097647894,0.9145686097647894,0.0,0,False
2023-01-05,0.9145686097647894,0.9145686097647894,0.0,0,False
2023-01-06,0.9145686097647894,0.9145686097647894,0.0,0,False
2023-01-07,0.9145686097647894,0.9145686097647894,0.0,0,False
2023-01-08,0.9145686097647894,0.9145686097647894,0.0,0,False
2023-01-09,0.9145686097647894,0.9145686097647894,0.0,0,False
2023-01-10,0.9145686097647894,0.9145686097647894,0.0,0,False
2023-01-11,0.9145686097647894,0.9145686097647894,0.0,0,False
2023-01-12,0.9145686097647894,0.9145686097647894,0.0,0,False
2023-01-13,0.9145686097647894,0.9145686097647894,0.0,0,False
2023-01-14,0.9145686097647894,0.9145686097647894,0.0,0,False
2023-01-15,0.9145686097647894,0.9145686097647894,0.0,0,False
2023-01-16,0.9145686097647894,0.9145686097647894,0.0,0,False
2023-01-17,0.9145686097647894,0.9145686097647894,0.0,0,False
2023-01-18,0.9145686097647894,0.9145686097647894,0.0,0,False
2023-01-19,0.9145686097647894,0.9145686097647894,0.0,0,False
2023-01-20,0.9145686097647894,0.9145686097647894,0.0,0,False
2023-01-21,0.9145686097647894,0.9145686097647894,0.0,0,False
2023-01-22,0.9145686097647894,0.9145686097647894,0.0,0,False
2023-01-23,0.9145686097647894,0.9145686097647894,0.0,0,False
2023-01-24,0.9145686097647894,0.9145686097647894,0.0,0,False
2023-01-25,0.9145686097647894,0.9145686097647894,0.0,0,False
2023-01-26,0.9145686097647894,0.9145686097647894,0.0,0,False
2023-01-27,0.9145686097647894,0.9145686097647894,0.0,0,False
2023-01-28,0.9145686097647894,0.9145686097647894,0.0,0,False
2023-01-29,0.9145686097647894,0.9145686097647894,0.0,0,False
2023-01-30,0.9145686097647894,0.9145686097647894,0.0,0,False
2023-01-31,0.9145686097647894,0.9145686097647894,0.0,0,False
2023-02-01,0.9145686097647894,0.9145686097647894,0.0,0,False
2023-02-02,0.9145686097647894,0.9145686097647894,0.0,0,False
2023-02-03,0.9145686097647894,0.9145686097647894,0.0,0,False
2023-02-04,0.9145686097647894,0.9145686097647894,0.0,0,False
2023-02-05,0.9145686097647894,0.9145686097647894,0.0,0,False
2023-02-06,0.9145686097647894,0.9145686097647894,0.0,0,False
2023-02-07,0.9145686097647894,0.9145686097647894,0.0,0,False
2023-02-08,0.9145686097647894,0.9145686097647894,0.0,0,False
2023-02-09,0.9145686097647894,0.9145686097647894,0.0,0,False
2023-02-10,0.9145686097647894,0.9145686097647894,0.0,0,False
2023-02-11,0.9145686097647894,0.9145686097647894,0.0,0,False
2023-02-12,0.9145686097647894,0.9145686097647894,0.0,0,False
2023-02-13,0.9145686097647894,0.9145686097647894,0.0,0,False
2023-02-14,0.9145686097647894,0.9145686097647894,0.0,0,False
2023-02-15,0.9145686097647894,0.9145686097647894,0.0,0,False
2023-02-16,0.9145686097647894,0.9145686097647894,0.0,0,False
2023-02-17,0.9145686097647894,0.9145686097647894,0.0,0,False
2023-02-18,0.9145686097647894,0.9145686097647894,0.0,0,False
2023-02-19,0.9145686097647894,0.9145686097647894,0.0,0,False
2023-02-20,0.9145686097647894,0.9145686097647894,0.0,0,False
2023-02-21,0.9145686097647894,0.9145686097647894,0.0,0,False
2023-02-22,0.9145686097647894,0.9145686097647894,0.0,0,False
2023-02-23,0.9145686097647894,0.9145686097647894,0.0,0,False
2023-02-24,0.9145686097647894,0.9145686097647894,0.0,0,False
2023-02-25,0.9145686097647894,0.9145686097647894,0.0,0,False
2023-02-26,0.9145686097647894,0.9145686097647894,0.0,0,False
2023-02-27,0.9145686097647894,0.9145686097647894,0.0,0,False
2023-02-28,0.9145686097647894,0.9145686097647894,0.0,0,False
2023-03-01,0.9145686097647894,0.9145686097647894,0.0,0,False
2023-03-02,0.9145686097647894,0.9145686097647894,0.0,0,False
2023-03-03,0.9145686097647894,0.9145686097647894,0.0,0,False
2023-03-04,0.9145686097647894,0.9145686097647894,0.0,0,False
2023-03-05,0.9145686097647894,0.9145686097647894,0.0,0,False
2023-03-06,0.9145686097647894,0.9145686097647894,0.0,0,False
2023-03-07,0.9145686097647894,0.9145686097647894,0.0,0,False
2023-03-08,0.9145686097647894,0.9145686097647894,0.0,0,False
2023-03-09,0.9145686097647894,0.9145686097647894,0.0,0,False
2023-03-10,0.9145686097647894,0.9145686097647894,0.0,0,False
2023-03-11,0.9145686097647894,0.9145686097647894,0.0,0,False
2023-03-12,0.9145686097647894,0.9145686097647894,0.0,0,False
2023-03-13,0.9145686097647894,0.9145686097647894,0.0,0,False
2023-03-14,0.9145686097647894,0.9145686097647894,0.0,0,False
2023-03-15,0.9145686097647894,0.9145686097647894,0.0,0,False
2023-03-16,0.9145686097647894,0.9145686097647894,0.0,0,False
2023-03-17,0.9145686097647894,0.9145686097647894,0.0,0,False
2023-03-18,0.9145686097647894,0.9145686097647894,0.0,0,False
2023-03-19,0.9145686097647894,0.9145686097647894,0.0,0,False
2023-03-20,0.9145686097647894,0.9145686097647894,0.0,0,False
2023-03-21,0.9145686097647894,0.9145686097647894,0.0,0,False
2023-03-22,0.9145686097647894,0.9145686097647894,0.0,0,False
2023-03-23,0.9145686097647894,0.9145686097647894,0.0,0,False
2023-03-24,0.9145686097647894,0.9145686097647894,0.0,0,False
2023-03-25,0.9145686097647894,0.9145686097647894,0.0,0,False
2023-03-26,0.9145686097647894,0.9145686097647894,0.0,0,False
2023-03-27,0.9145686097647894,0.9145686097647894,0.0,0,False
2023-03-28,0.9145686097647894,0.9145686097647894,0.0,0,False
2023-03-29,0.9145686097647894,0.9145686097647894,0.0,0,False
2023-03-30,0.9145686097647894,0.9145686097647894,0.0,0,False
2023-03-31,0.9145686097647894,0.9145686097647894,0.0,0,False
2023-04-01,0.9145686097647894,0.9145686097647894,0.0,0,False
2023-04-02,0.9145686097647894,0.9145686097647894,0.0,0,False
2023-04-03,0.9145686097647894,0.9145686097647894,0.0,0,False
2023-04-04,0.9145686097647894,0.9145686097647894,0.0,0,False
2023-04-05,0.9145686097647894,0.9145686097647894,0.0,0,False
2023-04-06,0.9145686097647894,0.9145686097647894,0.0,0,False
2023-04-07,0.9145686097647894,0.9145686097647894,0.0,0,False
2023-04-08,0.9145686097647894,0.9145686097647894,0.0,0,False
2023-04-09,0.9145686097647894,0.9145686097647894,0.0,0,False
2023-04-10,0.9145686097647894,0.9145686097647894,0.0,0,False
2023-04-11,0.9145686097647894,0.9145686097647894,0.0,0,False
2023-04-12,0.9145686097647894,0.9145686097647894,0.0,0,False
2023-04-13,0.9145686097647894,0.9145686097647894,0.0,0,False
2023-04-14,0.9145686097647894,0.9145686097647894,0.0,0,False
2023-04-15,0.9145686097647894,0.9145686097647894,0.0,0,False
2023-04-16,0.9145686097647894,0.9145686097647894,0.0,0,False
2023-04-17,0.9145686097647894,0.9145686097647894,0.0,0,False
2023-04-18,0.9145686097647894,0.9145686097647894,0.0,0,False
2023-04-19,0.9145686097647894,0.9145686097647894,0.0,0,False
2023-04-20,0.9145686097647894,0.9145686097647894,0.0,0,False
2023-04-21,0.9145686097647894,0.9145686097647894,0.0,0,False
2023-04-22,0.9145686097647894,0.9145686097647894,0.0,0,False
2023-04-23,0.9145686097647894,0.9145686097647894,0.0,0,False
2023-04-24,0.9145686097647894,0.9145686097647894,0.0,0,False
2023-04-25,0.9145686097647894,0.9145686097647894,0.0,0,False
2023-04-26,0.9145686097647894,0.9145686097647894,0.0,0,False
2023-04-27,0.9145686097647894,0.9145686097647894,0.0,0,False
2023-04-28,0.9145686097647894,0.9145686097647894,0.0,0,False
2023-04-29,0.9145686097647894,0.9145686097647894,0.0,0,False
2023-04-30,0.9145686097647894,0.9145686097647894,0.0,0,False
2023-05-01,0.9145686097647894,0.9145686097647894,0.0,0,False
2023-05-02,0.9145686097647894,0.9145686097647894,0.0,0,False
2023-05-03,0.9145686097647894,0.9145686097647894,0.0,0,False
2023-05-04,0.9145686097647894,0.9145686097647894,0.0,0,False
2023-05-05,0.9145686097647894,0.9145686097647894,0.0,0,False
2023-05-06,0.9145686097647894,0.9145686097647894,0.0,0,False
2023-05-07,0.9145686097647894,0.9145686097647894,0.0,0,False
2023-05-08,0.9145686097647894,0.9145686097647894,0.0,0,False
2023-05-09,0.9145686097647894,0.9145686097647894,0.0,0,False
2023-05-10,0.9145686097647894,0.9145686097647894,0.0,0,False
2023-05-11,0.9145686097647894,0.9145686097647894,0.0,0,False
2023-05-12,0.9145686097647894,0.9145686097647894,0.0,0,False
2023-05-13,0.9145686097647894,0.9145686097647894,0.0,0,False
2023-05-14,0.9145686097647894,0.9145686097647894,0.0,0,False
2023-05-15,0.9145686097647894,0.9145686097647894,0.0,0,False
2023-05-16,0.9145686097647894,0.9145686097647894,0.0,0,False
2023-05-17,0.9145686097647894,0.9145686097647894,0.0,0,False
2023-05-18,0.9145686097647894,0.9145686097647894,0.0,0,False
2023-05-19,0.9145686097647894,0.9145686097647894,0.0,0,False
2023-05-20,0.9145686097647894,0.9145686097647894,0.0,0,False
2023-05-21,0.9145686097647894,0.9145686097647894,0.0,0,False
2023-05-22,0.9145686097647894,0.9145686097647894,0.0,0,False
2023-05-23,0.9145686097647894,0.9145686097647894,0.0,0,False
2023-05-24,0.9145686097647894,0.9145686097647894,0.0,0,False
2023-05-25,0.9145686097647894,0.9145686097647894,0.0,0,False
2023-05-26,0.9145686097647894,0.9145686097647894,0.0,0,False
2023-05-27,0.9145686097647894,0.9145686097647894,0.0,0,False
2023-05-28,0.9145686097647894,0.9145686097647894,0.0,0,False
2023-05-29,0.9145686097647894,0.9145686097647894,0.0,0,False
2023-05-30,0.9145686097647894,0.9145686097647894,0.0,0,False
2023-05-31,0.9145686097647894,0.9145686097647894,0.0,0,False
2023-06-01,0.9145686097647894,0.9145686097647894,0.0,0,False
2023-06-02,0.9145686097647894,0.9145686097647894,0.0,0,False
2023-06-03,0.9145686097647894,0.9145686097647894,0.0,0,False
2023-06-04,0.9145686097647894,0.9145686097647894,0.0,0,False
2023-06-05,0.9145686097647894,0.9145686097647894,0.0,0,False
2023-06-06,0.9145686097647894,0.9145686097647894,0.0,0,False
2023-06-07,0.9145686097647894,0.9145686097647894,0.0,0,False
2023-06-08,0.9145686097647894,0.9145686097647894,0.0,0,False
2023-06-09,0.9145686097647894,0.9145686097647894,0.0,0,False
2023-06-10,0.9145686097647894,0.9145686097647894,0.0,0,False
2023-06-11,0.9145686097647894,0.9145686097647894,0.0,0,False
2023-06-12,0.9145686097647894,0.9145686097647894,0.0,0,False
2023-06-13,0.9145686097647894,0.9145686097647894,0.0,0,False
2023-06-14,0.9145686097647894,0.9145686097647894,0.0,0,False
2023-06-15,0.9145686097647894,0.9145686097647894,0.0,0,False
2023-06-16,0.9145686097647894,0.9145686097647894,0.0,0,False
2023-06-17,0.9145686097647894,0.9145686097647894,0.0,0,False
2023-06-18,0.9145686097647894,0.9145686097647894,0.0,0,False
2023-06-19,0.9145686097647894,0.9145686097647894,0.0,0,False
2023-06-20,0.9145686097647894,0.9145686097647894,0.0,0,False
2023-06-21,0.9145686097647894,0.9145686097647894,0.0,0,False
2023-06-22,0.9145686097647894,0.9145686097647894,0.0,0,False
2023-06-23,0.9145686097647894,0.9145686097647894,0.0,0,False
2023-06-24,0.9145686097647894,0.9145686097647894,0.0,0,False
2023-06-25,0.9145686097647894,0.9145686097647894,0.0,0,False
2023-06-26,0.9145686097647894,0.9145686097647894,0.0,0,False
2023-06-27,0.9145686097647894,0.9145686097647894,0.0,0,False
2023-06-28,0.9145686097647894,0.9145686097647894,0.0,0,False
2023-06-29,0.9145686097647894,0.9145686097647894,0.0,0,False
2023-06-30,0.9145686097647894,0.9145686097647894,0.0,0,False
2023-07-01,0.9145686097647894,0.9145686097647894,0.0,0,False
2023-07-02,0.9145686097647894,0.9145686097647894,0.0,0,False
2023-07-03,0.9145686097647894,0.9145686097647894,0.0,0,False
2023-07-04,0.9145686097647894,0.9145686097647894,0.0,0,False
2023-07-05,0.9145686097647894,0.9145686097647894,0.0,0,False
2023-07-06,0.9145686097647894,0.9145686097647894,0.0,0,False
2023-07-07,0.9145686097647894,0.9145686097647894,0.0,0,False
2023-07-08,0.9145686097647894,0.9145686097647894,0.0,0,False
2023-07-09,0.9145686097647894,0.9145686097647894,0.0,0,False
2023-07-10,0.9145686097647894,0.9145686097647894,0.0,0,False
2023-07-11,0.9145686097647894,0.9145686097647894,0.0,0,False
2023-07-12,0.9145686097647894,0.9145686097647894,0.0,0,False
2023-07-13,0.9145686097647894,0.9145686097647894,0.0,0,False
2023-07-14,0.9145686097647894,0.9145686097647894,0.0,0,False
2023-07-15,0.9145686097647894,0.9145686097647894,0.0,0,False
2023-07-16,0.9145686097647894,0.9145686097647894,0.0,0,False
2023-07-17,0.9145686097647894,0.9145686097647894,0.0,0,False
2023-07-18,0.9145686097647894,0.9145686097647894,0.0,0,False
2023-07-19,0.9145686097647894,0.9145686097647894,0.0,0,False
2023-07-20,0.9145686097647894,0.9145686097647894,0.0,0,False
2023-07-21,0.9145686097647894,0.9145686097647894,0.0,0,False
2023-07-22,0.9145686097647894,0.9145686097647894,0.0,0,False
2023-07-23,0.9145686097647894,0.9145686097647894,0.0,0,False
2023-07-24,0.9145686097647894,0.9145686097647894,0.0,0,False
2023-07-25,0.9145686097647894,0.9145686097647894,0.0,0,False
2023-07-26,0.9145686097647894,0.9145686097647894,0.0,0,False
2023-07-27,0.9145686097647894,0.9145686097647894,0.0,0,False
2023-07-28,0.9145686097647894,0.9145686097647894,0.0,0,False
2023-07-29,0.9145686097647894,0.9145686097647894,0.0,0,False
2023-07-30,0.9145686097647894,0.9145686097647894,0.0,0,False
2023-07-31,0.9145686097647894,0.9145686097647894,0.0,0,False
2023-08-01,0.9145686097647894,0.9145686097647894,0.0,0,False
2023-08-02,0.9145686097647894,0.9145686097647894,0.0,0,False
2023-08-03,0.9145686097647894,0.9145686097647894,0.0,0,False
2023-08-04,0.9145686097647894,0.9145686097647894,0.0,0,False
2023-08-05,0.9145686097647894,0.9145686097647894,0.0,0,False
2023-08-06,0.9145686097647894,0.9145686097647894,0.0,0,False
2023-08-07,0.9145686097647894,0.9145686097647894,0.0,0,False
2023-08-08,0.9145686097647894,0.9145686097647894,0.0,0,False
2023-08-09,0.9145686097647894,0.9145686097647894,0.0,0,False
2023-08-10,0.9145686097647894,0.9145686097647894,0.0,0,False
2023-08-11,0.9145686097647894,0.9145686097647894,0.0,0,False
2023-08-12,0.9145686097647894,0.9145686097647894,0.0,0,False
2023-08-13,0.9145686097647894,0.9145686097647894,0.0,0,False
2023-08-14,0.9145686097647894,0.9145686097647894,0.0,0,False
2023-08-15,0.9145686097647894,0.9145686097647894,0.0,0,False
2023-08-16,0.9145686097647894,0.9145686097647894,0.0,0,False
2023-08-17,0.9145686097647894,0.9145686097647894,0.0,0,False
2023-08-18,0.9145686097647894,0.9145686097647894,0.0,0,False
2023-08-19,0.9145686097647894,0.9145686097647894,0.0,0,False
2023-08-20,0.9145686097647894,0.9145686097647894,0.0,0,False
2023-08-21,0.9145686097647894,0.9145686097647894,0.0,0,False
2023-08-22,0.9145686097647894,0.9145686097647894,0.0,0,False
2023-08-23,0.9145686097647894,0.9145686097647894,0.0,0,False
2023-08-24,0.9145686097647894,0.9145686097647894,0.0,0,False
2023-08-25,0.9145686097647894,0.9145686097647894,0.0,0,False
2023-08-26,0.9145686097647894,0.9145686097647894,0.0,0,False
2023-08-27,0.9145686097647894,0.9145686097647894,0.0,0,False
2023-08-28,0.9145686097647894,0.9145686097647894,0.0,0,False
2023-08-29,0.9145686097647894,0.9145686097647894,0.0,0,False
2023-08-30,0.9145686097647894,0.9145686097647894,0.0,0,False
2023-08-31,0.9145686097647894,0.9145686097647894,0.0,0,False
2023-09-01,0.9145686097647894,0.9145686097647894,0.0,0,False
2023-09-02,0.9145686097647894,0.9145686097647894,0.0,0,False
2023-09-03,0.9145686097647894,0.9145686097647894,0.0,0,False
2023-09-04,0.9145686097647894,0.9145686097647894,0.0,0,False
2023-09-05,0.9145686097647894,0.9145686097647894,0.0,0,False
2023-09-06,0.9145686097647894,0.9145686097647894,0.0,0,False
2023-09-07,0.9145686097647894,0.9145686097647894,0.0,0,False
2023-09-08,0.9145686097647894,0.9145686097647894,0.0,0,False
2023-09-09,0.9145686097647894,0.9145686097647894,0.0,0,False
2023-09-10,0.9145686097647894,0.9145686097647894,0.0,0,False
2023-09-11,0.9145686097647894,0.9145686097647894,0.0,0,False
2023-09-12,0.9145686097647894,0.9145686097647894,0.0,0,False
2023-09-13,0.9145686097647894,0.9145686097647894,0.0,0,False
2023-09-14,0.9145686097647894,0.9145686097647894,0.0,0,False
2023-09-15,0.9145686097647894,0.9145686097647894,0.0,0,False
2023-09-16,0.9145686097647894,0.9145686097647894,0.0,0,False
2023-09-17,0.9145686097647894,0.9145686097647894,0.0,0,False
2023-09-18,0.9145686097647894,0.9145686097647894,0.0,0,False
2023-09-19,0.9145686097647894,0.9145686097647894,0.0,0,False
2023-09-20,0.9145686097647894,0.9145686097647894,0.0,0,False
2023-09-21,0.9145686097647894,0.9145686097647894,0.0,0,False
2023-09-22,0.9145686097647894,0.9145686097647894,0.0,0,False
2023-09-23,0.9145686097647894,0.9145686097647894,0.0,0,False
2023-09-24,0.9145686097647894,0.9145686097647894,0.0,0,False
2023-09-25,0.9145686097647894,0.9145686097647894,0.0,0,False
2023-09-26,0.9145686097647894,0.9145686097647894,0.0,0,False
2023-09-27,0.9145686097647894,0.9145686097647894,0.0,0,False
2023-09-28,0.9145686097647894,0.9145686097647894,0.0,0,False
2023-09-29,0.9145686097647894,0.9145686097647894,0.0,0,False
2023-09-30,0.9145686097647894,0.9145686097647894,0.0,0,False
2023-10-01,0.9145686097647894,0.9145686097647894,0.0,0,False
2023-10-02,0.9145686097647894,0.9145686097647894,0.0,0,False
2023-10-03,0.9145686097647894,0.9145686097647894,0.0,0,False
2023-10-04,0.9145686097647894,0.9145686097647894,0.0,0,False
2023-10-05,0.9145686097647894,0.9145686097647894,0.0,0,False
2023-10-06,0.9145686097647894,0.9145686097647894,0.0,0,False
2023-10-07,0.9145686097647894,0.9145686097647894,0.0,0,False
2023-10-08,0.9145686097647894,0.9145686097647894,0.0,0,False
2023-10-09,0.9145686097647894,0.9145686097647894,0.0,0,False
2023-10-10,0.9145686097647894,0.9145686097647894,0.0,0,False
2023-10-11,0.9145686097647894,0.9145686097647894,0.0,0,False
2023-10-12,0.9145686097647894,0.9145686097647894,0.0,0,False
2023-10-13,0.9145686097647894,0.9145686097647894,0.0,0,False
2023-10-14,0.9145686097647894,0.9145686097647894,0.0,0,False
2023-10-15,0.9145686097647894,0.9145686097647894,0.0,0,False
2023-10-16,0.9145686097647894,0.9145686097647894,0.0,0,False
2023-10-17,0.9145686097647894,0.9145686097647894,0.0,0,False
2023-10-18,0.9145686097647894,0.9145686097647894,0.0,0,False
2023-10-19,0.9145686097647894,0.9145686097647894,0.0,0,False
2023-10-20,0.9145686097647894,0.9145686097647894,0.0,0,False
2023-10-21,0.9145686097647894,0.9145686097647894,0.0,0,False
2023-10-22,0.9145686097647894,0.9145686097647894,0.0,0,False
2023-10-23,0.9145686097647894,0.9145686097647894,0.0,0,False
2023-10-24,0.9145686097647894,0.9145686097647894,0.0,0,False
2023-10-25,0.9145686097647894,0.9145686097647894,0.0,0,False
2023-10-26,0.9145686097647894,0.9145686097647894,0.0,0,False
2023-10-27,0.9145686097647894,0.9145686097647894,0.0,0,False
2023-10-28,0.9145686097647894,0.9145686097647894,0.0,0,False
2023-10-29,0.9145686097647894,0.9145686097647894,0.0,0,False
2023-10-30,0.9145686097647894,0.9145686097647894,0.0,0,False
2023-10-31,0.9145686097647894,0.9145686097647894,0.0,0,False
2023-11-01,0.9145686097647894,0.9145686097647894,0.0,0,False
2023-11-02,0.9145686097647894,0.9145686097647894,0.0,0,False
2023-11-03,0.9145686097647894,0.9145686097647894,0.0,0,False
2023-11-04,0.9145686097647894,0.9145686097647894,0.0,0,False
2023-11-05,0.9145686097647894,0.9145686097647894,0.0,0,False
2023-11-06,0.9145686097647894,0.9145686097647894,0.0,0,False
2023-11-07,0.9145686097647894,0.9145686097647894,0.0,0,False
2023-11-08,0.9145686097647894,0.9145686097647894,0.0,0,False
2023-11-09,0.9145686097647894,0.9145686097647894,0.0,0,False
2023-11-10,0.9145686097647894,0.9145686097647894,0.0,0,False
2023-11-11,0.9145686097647894,0.9145686097647894,0.0,0,False
2023-11-12,0.9145686097647894,0.9145686097647894,0.0,0,False
2023-11-13,0.9145686097647894,0.9145686097647894,0.0,0,False
2023-11-14,0.9145686097647894,0.9145686097647894,0.0,0,False
2023-11-15,0.9145686097647894,0.9145686097647894,0.0,0,False
2023-11-16,0.9145686097647894,0.9145686097647894,0.0,0,False
2023-11-17,0.9145686097647894,0.9145686097647894,0.0,0,False
2023-11-18,0.9145686097647894,0.9145686097647894,0.0,0,False
2023-11-19,0.9145686097647894,0.9145686097647894,0.0,0,False
2023-11-20,0.9145686097647894,0.9145686097647894,0.0,0,False
2023-11-21,0.9145686097647894,0.9145686097647894,0.0,0,False
2023-11-22,0.9145686097647894,0.9145686097647894,0.0,0,False
2023-11-23,0.9145686097647894,0.9145686097647894,0.0,0,False
2023-11-24,0.9145686097647894,0.9145686097647894,0.0,0,False
2023-11-25,0.9145686097647894,0.9145686097647894,0.0,0,False
2023-11-26,0.9145686097647894,0.9145686097647894,0.0,0,False
2023-11-27,0.9145686097647894,0.9145686097647894,0.0,0,False
2023-11-28,0.9145686097647894,0.9145686097647894,0.0,0,False
2023-11-29,0.9145686097647894,0.9145686097647894,0.0,0,False
2023-11-30,0.9145686097647894,0.9145686097647894,0.0,0,False
2023-12-01,0.9145686097647894,0.9145686097647894,0.0,0,False
2023-12-02,0.9145686097647894,0.9145686097647894,0.0,0,False
2023-12-03,0.9145686097647894,0.9145686097647894,0.0,0,False
2023-12-04,0.9145686097647894,0.9145686097647894,0.0,0,False
2023-12-05,0.9145686097647894,0.9145686097647894,0.0,0,False
2023-12-06,0.9145686097647894,0.9145686097647894,0.0,0,False
2023-12-07,0.9145686097647894,0.9145686097647894,0.0,0,False
2023-12-08,0.9145686097647894,0.9145686097647894,0.0,0,False
2023-12-09,0.9145686097647894,0.9145686097647894,0.0,0,False
2023-12-10,0.9145686097647894,0.9145686097647894,0.0,0,False
2023-12-11,0.9145686097647894,0.9145686097647894,0.0,0,False
2023-12-12,0.9145686097647894,0.9145686097647894,0.0,0,False
2023-12-13,0.9145686097647894,0.9145686097647894,0.0,0,False
2023-12-14,0.9145686097647894,0.9145686097647894,0.0,0,False
2023-12-15,0.9145686097647894,0.9145686097647894,0.0,0,False
2023-12-16,0.9145686097647894,0.9145686097647894,0.0,0,False
2023-12-17,0.9145686097647894,0.9145686097647894,0.0,0,False
2023-12-18,0.9145686097647894,0.9145686097647894,0.0,0,False
2023-12-19,0.9145686097647894,0.9145686097647894,0.0,0,False
2023-12-20,0.9145686097647894,0.9145686097647894,0.0,0,False
2023-12-21,0.9145686097647894,0.9145686097647894,0.0,0,False
2023-12-22,0.9145686097647894,0.9145686097647894,0.0,0,False
2023-12-23,0.9145686097647894,0.9145686097647894,0.0,0,False
2023-12-24,0.9145686097647894,0.9145686097647894,0.0,0,False
2023-12-25,0.9145686097647894,0.9145686097647894,0.0,0,False
2023-12-26,0.9145686097647894,0.9145686097647894,0.0,0,False
2023-12-27,0.9145686097647894,0.9145686097647894,0.0,0,False
2023-12-28,0.9145686097647894,0.9145686097647894,0.0,0,False
2023-12-29,0.9145686097647894,0.9145686097647894,0.0,0,False
2023-12-30,0.9145686097647894,0.9145686097647894,0.0,0,False
2023-12-31,0.9145686097647894,0.9145686097647894,0.0,0,False
