day,start_equity,end_equity,return_pct,entries,active
2021-09-02,1.0,1.0,0.0,0,False
2021-09-03,1.0,1.0,0.0,0,False
2021-09-04,1.0,1.0,0.0,0,False
2021-09-05,1.0,1.0,0.0,0,False
2021-09-06,1.0,1.0,0.0,0,False
2021-09-07,1.0,1.0,0.0,0,False
2021-09-08,1.0,1.0,0.0,0,False
2021-09-09,1.0,1.0,0.0,0,False
2021-09-10,1.0,1.0,0.0,0,False
2021-09-11,1.0,1.0,0.0,0,False
2021-09-12,1.0,1.0,0.0,0,False
2021-09-13,1.0,1.0,0.0,0,False
2021-09-14,1.0,1.0,0.0,0,False
2021-09-15,1.0,1.0,0.0,0,False
2021-09-16,1.0,1.0,0.0,0,False
2021-09-17,1.0,1.0,0.0,0,False
2021-09-18,1.0,1.0,0.0,0,False
2021-09-19,1.0,1.0,0.0,0,False
2021-09-20,1.0,1.0,0.0,0,False
2021-09-21,1.0,1.0,0.0,0,False
2021-09-22,1.0,1.0,0.0,0,False
2021-09-23,1.0,1.0,0.0,0,False
2021-09-24,1.0,1.0,0.0,0,False
2021-09-25,1.0,1.0,0.0,0,False
2021-09-26,1.0,1.0,0.0,0,False
2021-09-27,1.0,1.0,0.0,0,False
2021-09-28,1.0,1.0,0.0,0,False
2021-09-29,1.0,1.0,0.0,0,False
2021-09-30,1.0,1.0,0.0,0,False
2021-10-01,1.0,1.0,0.0,0,False
2021-10-02,1.0,1.0,0.0,0,False
2021-10-03,1.0,1.0,0.0,0,False
2021-10-04,1.0,1.0,0.0,0,False
2021-10-05,1.0,1.0,0.0,0,False
2021-10-06,1.0,0.9950029632797638,-0.4997036720236214,1,True
2021-10-07,0.9950029632797638,0.9950029632797638,0.0,0,False
2021-10-08,0.9950029632797638,0.9950029632797638,0.0,0,False
2021-10-09,0.9950029632797638,0.9950029632797638,0.0,0,False
2021-10-10,0.9950029632797638,0.9950029632797638,0.0,0,False
2021-10-11,0.9950029632797638,0.9950029632797638,0.0,0,False
2021-10-12,0.9950029632797638,0.9950029632797638,0.0,0,False
2021-10-13,0.9950029632797638,1.0004023398410244,0.5426492945772798,1,True
2021-10-14,1.0004023398410244,1.0045265793800697,0.41225808605172,0,True
2021-10-15,1.0045265793800697,1.0045265793800697,0.0,0,False
2021-10-16,1.0045265793800697,1.0007406682724618,-0.376885110391445,1,True
2021-10-17,1.0007406682724618,1.0009852826685994,0.024443335210899697,0,True
2021-10-18,1.0009852826685994,1.0009852826685994,0.0,0,False
2021-10-19,1.0009852826685994,1.0009852826685994,0.0,0,False
2021-10-20,1.0009852826685994,1.0009852826685994,0.0,0,False
2021-10-21,1.0009852826685994,1.0009852826685994,0.0,0,False
2021-10-22,1.0009852826685994,1.0009852826685994,0.0,0,False
2021-10-23,1.0009852826685994,1.0009852826685994,0.0,0,False
2021-10-24,1.0009852826685994,1.0009852826685994,0.0,0,False
2021-10-25,1.0009852826685994,1.005271566038281,0.428206432591538,1,True
2021-10-26,1.005271566038281,1.005271566038281,0.0,0,False
2021-10-27,1.005271566038281,1.0199026146738877,1.4554324552585207,4,True
2021-10-28,1.0199026146738877,1.016923091363605,-0.29213802057320715,0,True
2021-10-29,1.016923091363605,1.016923091363605,0.0,0,False
2021-10-30,1.016923091363605,1.015682559517222,-0.1219887577456169,1,True
2021-10-31,1.015682559517222,1.0159674125566995,0.0280454790533069,0,True
2021-11-01,1.0159674125566995,1.0159674125566995,0.0,0,False
2021-11-02,1.0159674125566995,1.0159674125566995,0.0,0,False
2021-11-03,1.0159674125566995,1.0159674125566995,0.0,0,False
2021-11-04,1.0159674125566995,1.0159674125566995,0.0,0,False
2021-11-05,1.0159674125566995,1.0159674125566995,0.0,0,False
2021-11-06,1.0159674125566995,1.0159674125566995,0.0,0,False
2021-11-07,1.0159674125566995,1.0159674125566995,0.0,0,False
2021-11-08,1.0159674125566995,1.0159674125566995,0.0,0,False
2021-11-09,1.0159674125566995,1.0159674125566995,0.0,0,False
2021-11-10,1.0159674125566995,1.0159674125566995,0.0,0,False
2021-11-11,1.0159674125566995,1.0304859938186048,1.429040054086883,6,True
2021-11-12,1.0304859938186048,1.0304859938186048,0.0,0,False
2021-11-13,1.0304859938186048,1.0304859938186048,0.0,0,False
2021-11-14,1.0304859938186048,1.0304859938186048,0.0,0,False
2021-11-15,1.0304859938186048,1.0304859938186048,0.0,0,False
2021-11-16,1.0304859938186048,1.0640522006400448,3.257318102602813,4,True
2021-11-17,1.0640522006400448,1.072444728212862,0.7887326926037108,0,True
2021-11-18,1.072444728212862,1.0680358209287442,-0.41110811290618887,1,True
2021-11-19,1.0680358209287442,1.0670833928426375,-0.08917566877845173,0,True
2021-11-20,1.0670833928426375,1.0670833928426375,0.0,0,False
2021-11-21,1.0670833928426375,1.0670833928426375,0.0,0,False
2021-11-22,1.0670833928426375,1.0670833928426375,0.0,0,False
2021-11-23,1.0670833928426375,1.0670833928426375,0.0,0,False
2021-11-24,1.0670833928426375,1.0670833928426375,0.0,0,False
2021-11-25,1.0670833928426375,1.0670833928426375,0.0,0,False
2021-11-26,1.0670833928426375,1.0720848074340132,0.468699506048198,5,True
2021-11-27,1.0720848074340132,1.0702514946886075,-0.17100445157820499,0,True
2021-11-28,1.0702514946886075,1.0649060748949593,-0.49945455065245614,1,True
2021-11-29,1.0649060748949593,1.0649060748949593,0.0,0,False
2021-11-30,1.0649060748949593,1.0649060748949593,0.0,0,False
2021-12-01,1.0649060748949593,1.062025946690947,-0.2704584255748932,1,True
2021-12-02,1.062025946690947,1.0628876248137435,0.08113531740738811,1,True
2021-12-03,1.0628876248137435,1.0595986752611373,-0.30943530396100316,1,True
2021-12-04,1.0595986752611373,1.0256471991131864,-3.2041825778598265,11,True
2021-12-05,1.0256471991131864,1.0235201057841716,-0.20739035126834393,0,True
2021-12-06,1.0235201057841716,1.0235201057841716,0.0,0,False
2021-12-07,1.0235201057841716,1.0235201057841716,0.0,0,False
2021-12-08,1.0235201057841716,1.0235201057841716,0.0,0,False
2021-12-09,1.0235201057841716,1.0235201057841716,0.0,0,False
2021-12-10,1.0235201057841716,1.0235201057841716,0.0,0,False
2021-12-11,1.0235201057841716,1.0235201057841716,0.0,0,False
2021-12-12,1.0235201057841716,1.0235201057841716,0.0,0,False
2021-12-13,1.0235201057841716,1.0235201057841716,0.0,0,False
2021-12-14,1.0235201057841716,1.0235201057841716,0.0,0,False
2021-12-15,1.0235201057841716,1.0235201057841716,0.0,0,False
2021-12-16,1.0235201057841716,1.0235201057841716,0.0,0,False
2021-12-17,1.0235201057841716,1.0227556579917352,-0.07468810706466877,1,True
2021-12-18,1.0227556579917352,1.0227556579917352,0.0,0,False
2021-12-19,1.0227556579917352,1.0227556579917352,0.0,0,False
2021-12-20,1.0227556579917352,1.0227556579917352,0.0,0,False
2021-12-21,1.0227556579917352,1.0227556579917352,0.0,0,False
2021-12-22,1.0227556579917352,1.0227556579917352,0.0,0,False
2021-12-23,1.0227556579917352,1.0227556579917352,0.0,0,False
2021-12-24,1.0227556579917352,1.0227556579917352,0.0,0,False
2021-12-25,1.0227556579917352,1.0227556579917352,0.0,0,False
2021-12-26,1.0227556579917352,1.0227556579917352,0.0,0,False
2021-12-27,1.0227556579917352,1.0227556579917352,0.0,0,False
2021-12-28,1.0227556579917352,1.0227556579917352,0.0,0,False
2021-12-29,1.0227556579917352,1.0227556579917352,0.0,0,False
2021-12-30,1.0227556579917352,1.0227556579917352,0.0,0,False
2021-12-31,1.0227556579917352,1.0227556579917352,0.0,0,False
2022-01-01,1.0227556579917352,1.0227556579917352,0.0,0,False
2022-01-02,1.0227556579917352,1.0227556579917352,0.0,0,False
2022-01-03,1.0227556579917352,1.0227556579917352,0.0,0,False
2022-01-04,1.0227556579917352,1.0227556579917352,0.0,0,False
2022-01-05,1.0227556579917352,1.0227556579917352,0.0,0,False
2022-01-06,1.0227556579917352,1.0238874600701808,0.11066202074776488,1,True
2022-01-07,1.0238874600701808,1.0238874600701808,0.0,0,False
2022-01-08,1.0238874600701808,1.0238874600701808,0.0,0,False
2022-01-09,1.0238874600701808,1.0238874600701808,0.0,0,False
2022-01-10,1.0238874600701808,1.0238874600701808,0.0,0,False
2022-01-11,1.0238874600701808,1.0238874600701808,0.0,0,False
2022-01-12,1.0238874600701808,1.0238874600701808,0.0,0,False
2022-01-13,1.0238874600701808,1.0238874600701808,0.0,0,False
2022-01-14,1.0238874600701808,1.0238874600701808,0.0,0,False
2022-01-15,1.0238874600701808,1.0238874600701808,0.0,0,False
2022-01-16,1.0238874600701808,1.0238874600701808,0.0,0,False
2022-01-17,1.0238874600701808,1.0238874600701808,0.0,0,False
2022-01-18,1.0238874600701808,1.0238874600701808,0.0,0,False
2022-01-19,1.0238874600701808,1.0238874600701808,0.0,0,False
2022-01-20,1.0238874600701808,1.0238874600701808,0.0,0,False
2022-01-21,1.0238874600701808,1.0238874600701808,0.0,0,False
2022-01-22,1.0238874600701808,1.0238874600701808,0.0,0,False
2022-01-23,1.0238874600701808,1.0238874600701808,0.0,0,False
2022-01-24,1.0238874600701808,1.0238874600701808,0.0,0,False
2022-01-25,1.0238874600701808,1.0238874600701808,0.0,0,False
2022-01-26,1.0238874600701808,1.0238874600701808,0.0,0,False
2022-01-27,1.0238874600701808,1.0238874600701808,0.0,0,False
2022-01-28,1.0238874600701808,1.0238874600701808,0.0,0,False
2022-01-29,1.0238874600701808,1.0238874600701808,0.0,0,False
2022-01-30,1.0238874600701808,1.0238874600701808,0.0,0,False
2022-01-31,1.0238874600701808,1.0238874600701808,0.0,0,False
2022-02-01,1.0238874600701808,1.0238874600701808,0.0,0,False
2022-02-02,1.0238874600701808,1.0238874600701808,0.0,0,False
2022-02-03,1.0238874600701808,1.0238874600701808,0.0,0,False
2022-02-04,1.0238874600701808,1.0238874600701808,0.0,0,False
2022-02-05,1.0238874600701808,1.0238874600701808,0.0,0,False
2022-02-06,1.0238874600701808,1.0238874600701808,0.0,0,False
2022-02-07,1.0238874600701808,1.0238874600701808,0.0,0,False
2022-02-08,1.0238874600701808,1.0238874600701808,0.0,0,False
2022-02-09,1.0238874600701808,1.0238874600701808,0.0,0,False
2022-02-10,1.0238874600701808,1.0246673416398375,0.07616868064808102,2,True
2022-02-11,1.0246673416398375,1.015051939606442,-0.9383925536269655,0,True
2022-02-12,1.015051939606442,1.015051939606442,0.0,0,False
2022-02-13,1.015051939606442,1.015051939606442,0.0,0,False
2022-02-14,1.015051939606442,1.015051939606442,0.0,0,False
2022-02-15,1.015051939606442,1.015051939606442,0.0,0,False
2022-02-16,1.015051939606442,1.015051939606442,0.0,0,False
2022-02-17,1.015051939606442,1.015051939606442,0.0,0,False
2022-02-18,1.015051939606442,1.015051939606442,0.0,0,False
2022-02-19,1.015051939606442,1.015051939606442,0.0,0,False
2022-02-20,1.015051939606442,1.015051939606442,0.0,0,False
2022-02-21,1.015051939606442,1.015051939606442,0.0,0,False
2022-02-22,1.015051939606442,1.015051939606442,0.0,0,False
2022-02-23,1.015051939606442,1.015051939606442,0.0,0,False
2022-02-24,1.015051939606442,1.015051939606442,0.0,0,False
2022-02-25,1.015051939606442,1.015051939606442,0.0,0,False
2022-02-26,1.015051939606442,1.015051939606442,0.0,0,False
2022-02-27,1.015051939606442,1.015051939606442,0.0,0,False
2022-02-28,1.015051939606442,1.015051939606442,0.0,0,False
2022-03-01,1.015051939606442,1.015051939606442,0.0,0,False
2022-03-02,1.015051939606442,1.015051939606442,0.0,0,False
2022-03-03,1.015051939606442,1.015051939606442,0.0,0,False
2022-03-04,1.015051939606442,1.015051939606442,0.0,0,False
2022-03-05,1.015051939606442,1.015051939606442,0.0,0,False
2022-03-06,1.015051939606442,1.015051939606442,0.0,0,False
2022-03-07,1.015051939606442,1.015051939606442,0.0,0,False
2022-03-08,1.015051939606442,1.015051939606442,0.0,0,False
2022-03-09,1.015051939606442,1.015051939606442,0.0,0,False
2022-03-10,1.015051939606442,1.015051939606442,0.0,0,False
2022-03-11,1.015051939606442,1.015051939606442,0.0,0,False
2022-03-12,1.015051939606442,1.015051939606442,0.0,0,False
2022-03-13,1.015051939606442,1.015051939606442,0.0,0,False
2022-03-14,1.015051939606442,1.015051939606442,0.0,0,False
2022-03-15,1.015051939606442,1.015051939606442,0.0,0,False
2022-03-16,1.015051939606442,1.015051939606442,0.0,0,False
2022-03-17,1.015051939606442,1.015051939606442,0.0,0,False
2022-03-18,1.015051939606442,1.015051939606442,0.0,0,False
2022-03-19,1.015051939606442,1.015051939606442,0.0,0,False
2022-03-20,1.015051939606442,1.015051939606442,0.0,0,False
2022-03-21,1.015051939606442,1.015051939606442,0.0,0,False
2022-03-22,1.015051939606442,1.015051939606442,0.0,0,False
2022-03-23,1.015051939606442,1.015051939606442,0.0,0,False
2022-03-24,1.015051939606442,1.015051939606442,0.0,0,False
2022-03-25,1.015051939606442,1.015051939606442,0.0,0,False
2022-03-26,1.015051939606442,1.0167726253225104,0.16951701178322676,1,True
2022-03-27,1.0167726253225104,1.0167726253225104,0.0,0,False
2022-03-28,1.0167726253225104,1.0167726253225104,0.0,0,False
2022-03-29,1.0167726253225104,1.0167726253225104,0.0,0,False
2022-03-30,1.0167726253225104,1.0151510527909051,-0.1594823160282255,1,True
2022-03-31,1.0151510527909051,1.0151510527909051,0.0,0,False
2022-04-01,1.0151510527909051,1.0151510527909051,0.0,0,False
2022-04-02,1.0151510527909051,1.0151510527909051,0.0,0,False
2022-04-03,1.0151510527909051,1.0151510527909051,0.0,0,False
2022-04-04,1.0151510527909051,1.0100806976946282,-0.49946804294171976,1,True
2022-04-05,1.0100806976946282,1.0100806976946282,0.0,0,False
2022-04-06,1.0100806976946282,1.0113299190267775,0.12367539890629775,1,True
2022-04-07,1.0113299190267775,1.0084010900252376,-0.2896017359358183,1,True
2022-04-08,1.0084010900252376,1.0084010900252376,0.0,0,False
2022-04-09,1.0084010900252376,1.0084010900252376,0.0,0,False
2022-04-10,1.0084010900252376,1.0084010900252376,0.0,0,False
2022-04-11,1.0084010900252376,1.0084010900252376,0.0,0,False
2022-04-12,1.0084010900252376,1.0084010900252376,0.0,0,False
2022-04-13,1.0084010900252376,1.0084010900252376,0.0,0,False
2022-04-14,1.0084010900252376,1.0084010900252376,0.0,0,False
2022-04-15,1.0084010900252376,1.0084010900252376,0.0,0,False
2022-04-16,1.0084010900252376,1.0084010900252376,0.0,0,False
2022-04-17,1.0084010900252376,1.0084010900252376,0.0,0,False
2022-04-18,1.0084010900252376,1.0111489766925055,0.2724993749460447,1,True
2022-04-19,1.0111489766925055,1.009718927550641,-0.14142813520339192,0,True
2022-04-20,1.009718927550641,1.009718927550641,0.0,0,False
2022-04-21,1.009718927550641,1.009718927550641,0.0,0,False
2022-04-22,1.009718927550641,1.009718927550641,0.0,0,False
2022-04-23,1.009718927550641,1.009718927550641,0.0,0,False
2022-04-24,1.009718927550641,1.009718927550641,0.0,0,False
2022-04-25,1.009718927550641,1.009718927550641,0.0,0,False
2022-04-26,1.009718927550641,1.009718927550641,0.0,0,False
2022-04-27,1.009718927550641,1.009718927550641,0.0,0,False
2022-04-28,1.009718927550641,1.009718927550641,0.0,0,False
2022-04-29,1.009718927550641,1.009718927550641,0.0,0,False
2022-04-30,1.009718927550641,1.009718927550641,0.0,0,False
2022-05-01,1.009718927550641,1.0248812296237848,1.5016359166331705,4,True
2022-05-02,1.0248812296237848,1.0248812296237848,0.0,0,False
2022-05-03,1.0248812296237848,1.0248812296237848,0.0,0,False
2022-05-04,1.0248812296237848,1.0248812296237848,0.0,0,False
2022-05-05,1.0248812296237848,1.0248812296237848,0.0,0,False
2022-05-06,1.0248812296237848,1.0205436940513335,-0.42322324256475197,2,True
2022-05-07,1.0205436940513335,1.019560174019088,-0.09637216299295259,0,True
2022-05-08,1.019560174019088,1.019560174019088,0.0,0,False
2022-05-09,1.019560174019088,1.019560174019088,0.0,0,False
2022-05-10,1.019560174019088,1.0093719539360573,-0.9992759959295938,2,True
2022-05-11,1.0093719539360573,0.9943987944821429,-1.4834134627504159,5,True
2022-05-12,0.9943987944821429,0.9793719274433061,-1.5111509710409865,1,True
2022-05-13,0.9793719274433061,0.9793719274433061,0.0,0,False
2022-05-14,0.9793719274433061,0.9793719274433061,0.0,0,False
2022-05-15,0.9793719274433061,0.976331486752067,-0.31044801326665095,1,True
2022-05-16,0.976331486752067,0.97823311896072,0.19477321324328223,1,True
2022-05-17,0.97823311896072,0.97823311896072,0.0,0,False
2022-05-18,0.97823311896072,0.97823311896072,0.0,0,False
2022-05-19,0.97823311896072,0.97823311896072,0.0,0,False
2022-05-20,0.97823311896072,0.9733486579616716,-0.4993146218804867,1,True
2022-05-21,0.9733486579616716,0.9733486579616716,0.0,0,False
2022-05-22,0.9733486579616716,0.9733486579616716,0.0,0,False
2022-05-23,0.9733486579616716,0.9729803626544115,-0.037837963225983984,1,True
2022-05-24,0.9729803626544115,0.9680325602720095,-0.5085202715606529,1,True
2022-05-25,0.9680325602720095,0.9678520991952503,-0.018642046163042103,1,True
2022-05-26,0.9678520991952503,0.9727896022707767,0.5101505777207027,1,True
2022-05-27,0.9727896022707767,0.9710582394298939,-0.17797916803811153,0,True
2022-05-28,0.9710582394298939,0.9710582394298939,0.0,0,False
2022-05-29,0.9710582394298939,0.9710582394298939,0.0,0,False
2022-05-30,0.9710582394298939,0.9710582394298939,0.0,0,False
2022-05-31,0.9710582394298939,0.9710582394298939,0.0,0,False
2022-06-01,0.9710582394298939,0.9710582394298939,0.0,0,False
2022-06-02,0.9710582394298939,0.9662070014184193,-0.4995826011756743,1,True
2022-06-03,0.9662070014184193,0.9662070014184193,0.0,0,False
2022-06-04,0.9662070014184193,0.9662070014184193,0.0,0,False
2022-06-05,0.9662070014184193,0.9662070014184193,0.0,0,False
2022-06-06,0.9662070014184193,0.9662070014184193,0.0,0,False
2022-06-07,0.9662070014184193,0.9670497914318682,0.08722665145373121,1,True
2022-06-08,0.9670497914318682,0.9671511422576659,0.010480414420821482,1,True
2022-06-09,0.9671511422576659,0.9671511422576659,0.0,0,False
2022-06-10,0.9671511422576659,0.9735466350991395,0.6612712907048124,1,True
2022-06-11,0.9735466350991395,0.9735466350991395,0.0,0,False
2022-06-12,0.9735466350991395,0.9739778609327301,0.044294317092119506,4,True
2022-06-13,0.9739778609327301,0.9739778609327301,0.0,0,False
2022-06-14,0.9739778609327301,0.9739778609327301,0.0,0,False
2022-06-15,0.9739778609327301,0.9739778609327301,0.0,0,False
2022-06-16,0.9739778609327301,0.9836689388223732,0.9949998124559434,2,True
2022-06-17,0.9836689388223732,0.9868241969252797,0.32076423056357495,0,True
2022-06-18,0.9868241969252797,0.9764729897506313,-1.0489413622913113,4,True
2022-06-19,0.9764729897506313,0.9783797433728578,0.19526946902170828,0,True
2022-06-20,0.9783797433728578,0.9783797433728578,0.0,0,False
2022-06-21,0.9783797433728578,0.9783797433728578,0.0,0,False
2022-06-22,0.9783797433728578,0.9783797433728578,0.0,0,False
2022-06-23,0.9783797433728578,0.9783797433728578,0.0,0,False
2022-06-24,0.9783797433728578,0.9783797433728578,0.0,0,False
2022-06-25,0.9783797433728578,0.9783797433728578,0.0,0,False
2022-06-26,0.9783797433728578,0.9783797433728578,0.0,0,False
2022-06-27,0.9783797433728578,0.9783797433728578,0.0,0,False
2022-06-28,0.9783797433728578,0.9798413014041549,0.14938555721304425,1,True
2022-06-29,0.9798413014041549,0.9852307678526874,0.5500346271186007,0,True
2022-06-30,0.9852307678526874,0.9852307678526874,0.0,0,False
2022-07-01,0.9852307678526874,0.9852307678526874,0.0,0,False
2022-07-02,0.9852307678526874,0.9852307678526874,0.0,0,False
2022-07-03,0.9852307678526874,0.9852307678526874,0.0,0,False
2022-07-04,0.9852307678526874,0.9852307678526874,0.0,0,False
2022-07-05,0.9852307678526874,0.9852307678526874,0.0,0,False
2022-07-06,0.9852307678526874,0.9852307678526874,0.0,0,False
2022-07-07,0.9852307678526874,0.9852307678526874,0.0,0,False
2022-07-08,0.9852307678526874,0.9852307678526874,0.0,0,False
2022-07-09,0.9852307678526874,0.9852307678526874,0.0,0,False
2022-07-10,0.9852307678526874,0.9852307678526874,0.0,0,False
2022-07-11,0.9852307678526874,0.9852307678526874,0.0,0,False
2022-07-12,0.9852307678526874,0.9852307678526874,0.0,0,False
2022-07-13,0.9852307678526874,0.9960286283610931,1.0959727264648444,4,True
2022-07-14,0.9960286283610931,1.0128068966170773,1.6845166673162826,0,True
2022-07-15,1.0128068966170773,1.0128068966170773,0.0,0,False
2022-07-16,1.0128068966170773,1.0128068966170773,0.0,0,False
2022-07-17,1.0128068966170773,1.0128068966170773,0.0,0,False
2022-07-18,1.0128068966170773,1.0128068966170773,0.0,0,False
2022-07-19,1.0128068966170773,1.0128068966170773,0.0,0,False
2022-07-20,1.0128068966170773,1.0128068966170773,0.0,0,False
2022-07-21,1.0128068966170773,1.0096462717457617,-0.3120658915211405,3,True
2022-07-22,1.0096462717457617,1.0096462717457617,0.0,0,False
2022-07-23,1.0096462717457617,1.0096462717457617,0.0,0,False
2022-07-24,1.0096462717457617,1.0154242229682664,0.5722748039780345,1,True
2022-07-25,1.0154242229682664,1.0163452333987544,0.0907020346427867,1,True
2022-07-26,1.0163452333987544,1.0163452333987544,0.0,0,False
2022-07-27,1.0163452333987544,1.0163452333987544,0.0,0,False
2022-07-28,1.0163452333987544,1.0163452333987544,0.0,0,False
2022-07-29,1.0163452333987544,1.0163452333987544,0.0,0,False
2022-07-30,1.0163452333987544,1.0163452333987544,0.0,0,False
2022-07-31,1.0163452333987544,1.0163452333987544,0.0,0,False
2022-08-01,1.0163452333987544,1.0163452333987544,0.0,0,False
2022-08-02,1.0163452333987544,1.0163452333987544,0.0,0,False
2022-08-03,1.0163452333987544,1.0163452333987544,0.0,0,False
2022-08-04,1.0163452333987544,1.0163452333987544,0.0,0,False
2022-08-05,1.0163452333987544,1.0163452333987544,0.0,0,False
2022-08-06,1.0163452333987544,1.0163452333987544,0.0,0,False
2022-08-07,1.0163452333987544,1.0163452333987544,0.0,0,False
2022-08-08,1.0163452333987544,1.0163452333987544,0.0,0,False
2022-08-09,1.0163452333987544,1.0181772975745638,0.18026002539341945,1,True
2022-08-10,1.0181772975745638,1.0181772975745638,0.0,0,False
2022-08-11,1.0181772975745638,1.0181772975745638,0.0,0,False
2022-08-12,1.0181772975745638,1.0183767154981642,0.01958577588359045,1,True
2022-08-13,1.0183767154981642,1.0183767154981642,0.0,0,False
2022-08-14,1.0183767154981642,1.0183767154981642,0.0,0,False
2022-08-15,1.0183767154981642,1.0183767154981642,0.0,0,False
2022-08-16,1.0183767154981642,1.0183767154981642,0.0,0,False
2022-08-17,1.0183767154981642,1.0183767154981642,0.0,0,False
2022-08-18,1.0183767154981642,1.0183767154981642,0.0,0,False
2022-08-19,1.0183767154981642,0.9978078254291056,-2.019772227313432,8,True
2022-08-20,0.9978078254291056,1.0011745799904717,0.3374151290022276,0,True
2022-08-21,1.0011745799904717,1.0011745799904717,0.0,0,False
2022-08-22,1.0011745799904717,1.0011745799904717,0.0,0,False
2022-08-23,1.0011745799904717,1.0011745799904717,0.0,0,False
2022-08-24,1.0011745799904717,1.0011745799904717,0.0,0,False
2022-08-25,1.0011745799904717,1.0011745799904717,0.0,0,False
2022-08-26,1.0011745799904717,1.0011745799904717,0.0,0,False
2022-08-27,1.0011745799904717,1.0011745799904717,0.0,0,False
2022-08-28,1.0011745799904717,1.0011745799904717,0.0,0,False
2022-08-29,1.0011745799904717,1.0011745799904717,0.0,0,False
2022-08-30,1.0011745799904717,1.0011745799904717,0.0,0,False
2022-08-31,1.0011745799904717,1.0011745799904717,0.0,0,False
2022-09-01,1.0011745799904717,1.0011745799904717,0.0,0,False
2022-09-02,1.0011745799904717,1.0011745799904717,0.0,0,False
2022-09-03,1.0011745799904717,1.0011745799904717,0.0,0,False
2022-09-04,1.0011745799904717,1.0011745799904717,0.0,0,False
2022-09-05,1.0011745799904717,1.0011745799904717,0.0,0,False
2022-09-06,1.0011745799904717,1.0011745799904717,0.0,0,False
2022-09-07,1.0011745799904717,0.9930218276217408,-0.8143187543583452,4,True
2022-09-08,0.9930218276217408,0.9930218276217408,0.0,0,False
2022-09-09,0.9930218276217408,0.9930218276217408,0.0,0,False
2022-09-10,0.9930218276217408,0.9930218276217408,0.0,0,False
2022-09-11,0.9930218276217408,0.9930218276217408,0.0,0,False
2022-09-12,0.9930218276217408,0.9930218276217408,0.0,0,False
2022-09-13,0.9930218276217408,0.9844122741964352,-0.8670054560558138,4,True
2022-09-14,0.9844122741964352,0.9800038887384026,-0.4478190259900039,0,True
2022-09-15,0.9800038887384026,0.9846888224247239,0.4780525608273134,1,True
2022-09-16,0.9846888224247239,0.9846888224247239,0.0,0,False
2022-09-17,0.9846888224247239,0.9846888224247239,0.0,0,False
2022-09-18,0.9846888224247239,0.9846888224247239,0.0,0,False
2022-09-19,0.9846888224247239,0.9841702459878904,-0.0526639914076199,5,True
2022-09-20,0.9841702459878904,0.9841702459878904,0.0,0,False
2022-09-21,0.9841702459878904,0.9841702459878904,0.0,0,False
2022-09-22,0.9841702459878904,0.9841702459878904,0.0,0,False
2022-09-23,0.9841702459878904,0.9841702459878904,0.0,0,False
2022-09-24,0.9841702459878904,0.9841702459878904,0.0,0,False
2022-09-25,0.9841702459878904,0.9841702459878904,0.0,0,False
2022-09-26,0.9841702459878904,0.9841702459878904,0.0,0,False
2022-09-27,0.9841702459878904,0.9841702459878904,0.0,0,False
2022-09-28,0.9841702459878904,0.9841702459878904,0.0,0,False
2022-09-29,0.9841702459878904,0.9841702459878904,0.0,0,False
2022-09-30,0.9841702459878904,0.9841702459878904,0.0,0,False
2022-10-01,0.9841702459878904,0.9841702459878904,0.0,0,False
2022-10-02,0.9841702459878904,0.9841702459878904,0.0,0,False
2022-10-03,0.9841702459878904,0.9841702459878904,0.0,0,False
2022-10-04,0.9841702459878904,0.9841702459878904,0.0,0,False
2022-10-05,0.9841702459878904,0.9841702459878904,0.0,0,False
2022-10-06,0.9841702459878904,0.9841702459878904,0.0,0,False
2022-10-07,0.9841702459878904,0.9841702459878904,0.0,0,False
2022-10-08,0.9841702459878904,0.9841702459878904,0.0,0,False
2022-10-09,0.9841702459878904,0.9841702459878904,0.0,0,False
2022-10-10,0.9841702459878904,0.9841702459878904,0.0,0,False
2022-10-11,0.9841702459878904,1.0076810880986944,2.38889990899942,4,True
2022-10-12,1.0076810880986944,1.0076810880986944,0.0,0,False
2022-10-13,1.0076810880986944,1.0076810880986944,0.0,0,False
2022-10-14,1.0076810880986944,1.0076810880986944,0.0,0,False
2022-10-15,1.0076810880986944,1.0076810880986944,0.0,0,False
2022-10-16,1.0076810880986944,1.0076810880986944,0.0,0,False
2022-10-17,1.0076810880986944,1.0076810880986944,0.0,0,False
2022-10-18,1.0076810880986944,1.0076810880986944,0.0,0,False
2022-10-19,1.0076810880986944,1.0076810880986944,0.0,0,False
2022-10-20,1.0076810880986944,1.01157514459922,0.3864373904121754,1,True
2022-10-21,1.01157514459922,1.01157514459922,0.0,0,False
2022-10-22,1.01157514459922,1.01157514459922,0.0,0,False
2022-10-23,1.01157514459922,1.01157514459922,0.0,0,False
2022-10-24,1.01157514459922,1.01157514459922,0.0,0,False
2022-10-25,1.01157514459922,1.01157514459922,0.0,0,False
2022-10-26,1.01157514459922,1.01157514459922,0.0,0,False
2022-10-27,1.01157514459922,1.01157514459922,0.0,0,False
2022-10-28,1.01157514459922,1.01157514459922,0.0,0,False
2022-10-29,1.01157514459922,1.01157514459922,0.0,0,False
2022-10-30,1.01157514459922,1.01157514459922,0.0,0,False
2022-10-31,1.01157514459922,1.01157514459922,0.0,0,False
2022-11-01,1.01157514459922,1.01157514459922,0.0,0,False
2022-11-02,1.01157514459922,1.0159247389078816,0.429982323298872,1,True
2022-11-03,1.0159247389078816,1.0159247389078816,0.0,0,False
2022-11-04,1.0159247389078816,1.0275248079711554,1.1418236626212996,2,True
2022-11-05,1.0275248079711554,1.0265241074992362,-0.09738942205153034,0,True
2022-11-06,1.0265241074992362,1.0265241074992362,0.0,0,False
2022-11-07,1.0265241074992362,1.0267943459190025,0.026325579476615957,1,True
2022-11-08,1.0267943459190025,1.0189187506679285,-0.7670080461949946,3,True
2022-11-09,1.0189187506679285,1.015368834580558,-0.3484003101369315,4,True
2022-11-10,1.015368834580558,1.0236773469010814,0.8182752944111638,1,True
2022-11-11,1.0236773469010814,1.0290277460075827,0.5226645996122103,5,True
2022-11-12,1.0290277460075827,1.0387377777437392,0.9436122372627365,1,True
2022-11-13,1.0387377777437392,1.0325100864246528,-0.5995441248525357,1,True
2022-11-14,1.0325100864246528,1.037263373866012,0.46036232515835884,2,True
2022-11-15,1.037263373866012,1.037263373866012,0.0,0,False
2022-11-16,1.037263373866012,1.037263373866012,0.0,0,False
2022-11-17,1.037263373866012,1.037263373866012,0.0,0,False
2022-11-18,1.037263373866012,1.037263373866012,0.0,0,False
2022-11-19,1.037263373866012,1.0372150215960463,-0.004661522925031303,2,True
2022-11-20,1.0372150215960463,1.0327026027325317,-0.4350514377019943,1,True
2022-11-21,1.0327026027325317,1.0266961064846876,-0.5816288476421905,1,True
2022-11-22,1.0266961064846876,1.0266961064846876,0.0,0,False
2022-11-23,1.0266961064846876,1.0266961064846876,0.0,0,False
2022-11-24,1.0266961064846876,1.0266961064846876,0.0,0,False
2022-11-25,1.0266961064846876,1.0266961064846876,0.0,0,False
2022-11-26,1.0266961064846876,1.0266961064846876,0.0,0,False
2022-11-27,1.0266961064846876,1.0266961064846876,0.0,0,False
2022-11-28,1.0266961064846876,1.0229697754766032,-0.3629439114990918,2,True
2022-11-29,1.0229697754766032,1.0229697754766032,0.0,0,False
2022-11-30,1.0229697754766032,1.0229697754766032,0.0,0,False
2022-12-01,1.0229697754766032,1.0227458152618127,-0.021893140947015777,1,True
2022-12-02,1.0227458152618127,1.0227458152618127,0.0,0,False
2022-12-03,1.0227458152618127,1.0227458152618127,0.0,0,False
2022-12-04,1.0227458152618127,1.0227458152618127,0.0,0,False
2022-12-05,1.0227458152618127,1.0227458152618127,0.0,0,False
2022-12-06,1.0227458152618127,1.0227458152618127,0.0,0,False
2022-12-07,1.0227458152618127,1.0227458152618127,0.0,0,False
2022-12-08,1.0227458152618127,1.0176412913512167,-0.4990999556707343,1,True
2022-12-09,1.0176412913512167,1.0176412913512167,0.0,0,False
2022-12-10,1.0176412913512167,1.0176412913512167,0.0,0,False
2022-12-11,1.0176412913512167,1.0176412913512167,0.0,0,False
2022-12-12,1.0176412913512167,1.0176412913512167,0.0,0,False
2022-12-13,1.0176412913512167,1.0176412913512167,0.0,0,False
2022-12-14,1.0176412913512167,1.0176412913512167,0.0,0,False
2022-12-15,1.0176412913512167,1.0176412913512167,0.0,0,False
2022-12-16,1.0176412913512167,1.0176412913512167,0.0,0,False
2022-12-17,1.0176412913512167,1.0295148583585774,1.1667733127844082,4,True
2022-12-18,1.0295148583585774,1.0295148583585774,0.0,0,False
2022-12-19,1.0295148583585774,1.0295148583585774,0.0,0,False
2022-12-20,1.0295148583585774,1.0295148583585774,0.0,0,False
2022-12-21,1.0295148583585774,1.0295148583585774,0.0,0,False
2022-12-22,1.0295148583585774,1.0295148583585774,0.0,0,False
2022-12-23,1.0295148583585774,1.0295148583585774,0.0,0,False
2022-12-24,1.0295148583585774,1.0295148583585774,0.0,0,False
2022-12-25,1.0295148583585774,1.0295148583585774,0.0,0,False
2022-12-26,1.0295148583585774,1.0295148583585774,0.0,0,False
2022-12-27,1.0295148583585774,1.0295148583585774,0.0,0,False
2022-12-28,1.0295148583585774,1.031907893571203,0.2324429990685939,1,True
2022-12-29,1.031907893571203,1.0309165336307653,-0.0960705840718723,0,True
2022-12-30,1.0309165336307653,1.0309165336307653,0.0,0,False
2022-12-31,1.0309165336307653,1.0309165336307653,0.0,0,False
2023-01-01,1.0309165336307653,1.0309165336307653,0.0,0,False
2023-01-02,1.0309165336307653,1.0311487968744355,0.02252978161598751,1,True
2023-01-03,1.0311487968744355,1.0312385091832452,0.008700229208602472,0,True
2023-01-04,1.0312385091832452,1.0312385091832452,0.0,0,False
2023-01-05,1.0312385091832452,1.0312385091832452,0.0,0,False
2023-01-06,1.0312385091832452,1.0312385091832452,0.0,0,False
2023-01-07,1.0312385091832452,1.0312385091832452,0.0,0,False
2023-01-08,1.0312385091832452,1.0312385091832452,0.0,0,False
2023-01-09,1.0312385091832452,1.0312385091832452,0.0,0,False
2023-01-10,1.0312385091832452,1.028878197203797,-0.2288812877360047,2,True
2023-01-11,1.028878197203797,1.0295741935656042,0.06764613767680228,0,True
2023-01-12,1.0295741935656042,1.0295741935656042,0.0,0,False
2023-01-13,1.0295741935656042,1.0295741935656042,0.0,0,False
2023-01-14,1.0295741935656042,1.0295741935656042,0.0,0,False
2023-01-15,1.0295741935656042,1.0310523073977211,0.1435655479084863,1,True
2023-01-16,1.0310523073977211,1.0310523073977211,0.0,0,False
2023-01-17,1.0310523073977211,1.0310523073977211,0.0,0,False
2023-01-18,1.0310523073977211,1.0310523073977211,0.0,0,False
2023-01-19,1.0310523073977211,1.025902975700888,-0.4994248749444763,1,True
2023-01-20,1.025902975700888,1.025902975700888,0.0,0,False
2023-01-21,1.025902975700888,1.0270612225530473,0.11290023321826048,1,True
2023-01-22,1.0270612225530473,1.0263718096582746,-0.06712481005358706,0,True
2023-01-23,1.0263718096582746,1.0263718096582746,0.0,0,False
2023-01-24,1.0263718096582746,1.0323299338374237,0.5805034903611395,1,True
2023-01-25,1.0323299338374237,1.0379479432838388,0.544206775592726,5,True
2023-01-26,1.0379479432838388,1.0379479432838388,0.0,0,False
2023-01-27,1.0379479432838388,1.0379479432838388,0.0,0,False
2023-01-28,1.0379479432838388,1.0379479432838388,0.0,0,False
2023-01-29,1.0379479432838388,1.0379479432838388,0.0,0,False
2023-01-30,1.0379479432838388,1.0377896965147695,-0.015246118082634652,2,True
2023-01-31,1.0377896965147695,1.0340328837525425,-0.3620013548837009,2,True
2023-02-01,1.0340328837525425,1.0340328837525425,0.0,0,False
2023-02-02,1.0340328837525425,1.0340328837525425,0.0,0,False
2023-02-03,1.0340328837525425,1.0340328837525425,0.0,0,False
2023-02-04,1.0340328837525425,1.0340328837525425,0.0,0,False
2023-02-05,1.0340328837525425,1.0363843705065021,0.22740928174604935,4,True
2023-02-06,1.0363843705065021,1.0483481618251025,1.1543778214981648,1,True
2023-02-07,1.0483481618251025,1.047884008635763,-0.04427471771700775,0,True
2023-02-08,1.047884008635763,1.047884008635763,0.0,0,False
2023-02-09,1.047884008635763,1.047884008635763,0.0,0,False
2023-02-10,1.047884008635763,1.047884008635763,0.0,0,False
2023-02-11,1.047884008635763,1.047884008635763,0.0,0,False
2023-02-12,1.047884008635763,1.047884008635763,0.0,0,False
2023-02-13,1.047884008635763,1.047884008635763,0.0,0,False
2023-02-14,1.047884008635763,1.047884008635763,0.0,0,False
2023-02-15,1.047884008635763,1.047884008635763,0.0,0,False
2023-02-16,1.047884008635763,1.047884008635763,0.0,0,False
2023-02-17,1.047884008635763,1.047884008635763,0.0,0,False
2023-02-18,1.047884008635763,1.047884008635763,0.0,0,False
2023-02-19,1.047884008635763,1.047884008635763,0.0,0,False
2023-02-20,1.047884008635763,1.047884008635763,0.0,0,False
2023-02-21,1.047884008635763,1.0463186067100338,-0.14938694672582686,2,True
2023-02-22,1.0463186067100338,1.0466799375653146,0.034533540067394064,0,True
2023-02-23,1.0466799375653146,1.0579127714055503,1.0731870782165087,1,True
2023-02-24,1.0579127714055503,1.0579127714055503,0.0,0,False
2023-02-25,1.0579127714055503,1.0579127714055503,0.0,0,False
2023-02-26,1.0579127714055503,1.0579127714055503,0.0,0,False
2023-02-27,1.0579127714055503,1.0526287265293082,-0.49947831419235866,1,True
2023-02-28,1.0526287265293082,1.0526287265293082,0.0,0,False
2023-03-01,1.0526287265293082,1.0526287265293082,0.0,0,False
2023-03-02,1.0526287265293082,1.0526287265293082,0.0,0,False
2023-03-03,1.0526287265293082,1.046997644568195,-0.534954235923224,5,True
2023-03-04,1.046997644568195,1.046997644568195,0.0,0,False
2023-03-05,1.046997644568195,1.046997644568195,0.0,0,False
2023-03-06,1.046997644568195,1.046997644568195,0.0,0,False
2023-03-07,1.046997644568195,1.046997644568195,0.0,0,False
2023-03-08,1.046997644568195,1.046997644568195,0.0,0,False
2023-03-09,1.046997644568195,1.046997644568195,0.0,0,False
2023-03-10,1.046997644568195,1.046997644568195,0.0,0,False
2023-03-11,1.046997644568195,1.0523011899686927,0.50654797821299,1,True
2023-03-12,1.0523011899686927,1.0492279396415394,-0.29205044681597236,0,True
2023-03-13,1.0492279396415394,1.0492279396415394,0.0,0,False
2023-03-14,1.0492279396415394,1.0492279396415394,0.0,0,False
2023-03-15,1.0492279396415394,1.0492279396415394,0.0,0,False
2023-03-16,1.0492279396415394,1.0516947503315826,0.2351072247357422,1,True
2023-03-17,1.0516947503315826,1.0464427035973203,-0.49938888946686744,1,True
2023-03-18,1.0464427035973203,1.0464427035973203,0.0,0,False
2023-03-19,1.0464427035973203,1.0464427035973203,0.0,0,False
2023-03-20,1.0464427035973203,1.0464427035973203,0.0,0,False
2023-03-21,1.0464427035973203,1.0412178051326821,-0.4993009599738918,1,True
2023-03-22,1.0412178051326821,1.0412178051326821,0.0,0,False
2023-03-23,1.0412178051326821,1.0504539267223063,0.887049908683335,3,True
2023-03-24,1.0504539267223063,1.0516726534113519,0.11601905214904118,0,True
2023-03-25,1.0516726534113519,1.0464190334377708,-0.49954897624652217,1,True
2023-03-26,1.0464190334377708,1.0464190334377708,0.0,0,False
2023-03-27,1.0464190334377708,1.0464190334377708,0.0,0,False
2023-03-28,1.0464190334377708,1.0464190334377708,0.0,0,False
2023-03-29,1.0464190334377708,1.0464190334377708,0.0,0,False
2023-03-30,1.0464190334377708,1.0464190334377708,0.0,0,False
2023-03-31,1.0464190334377708,1.0464190334377708,0.0,0,False
2023-04-01,1.0464190334377708,1.0464190334377708,0.0,0,False
2023-04-02,1.0464190334377708,1.0464190334377708,0.0,0,False
2023-04-03,1.0464190334377708,1.0464190334377708,0.0,0,False
2023-04-04,1.0464190334377708,1.0464190334377708,0.0,0,False
2023-04-05,1.0464190334377708,1.0464190334377708,0.0,0,False
2023-04-06,1.0464190334377708,1.0411883232169865,-0.49986764896658986,1,True
2023-04-07,1.0411883232169865,1.0372085400315296,-0.38223471169561707,1,True
2023-04-08,1.0372085400315296,1.0372085400315296,0.0,0,False
2023-04-09,1.0372085400315296,1.0372085400315296,0.0,0,False
2023-04-10,1.0372085400315296,1.0372085400315296,0.0,0,False
2023-04-11,1.0372085400315296,1.0372085400315296,0.0,0,False
2023-04-12,1.0372085400315296,1.0372085400315296,0.0,0,False
2023-04-13,1.0372085400315296,1.0372085400315296,0.0,0,False
2023-04-14,1.0372085400315296,1.0372085400315296,0.0,0,False
2023-04-15,1.0372085400315296,1.0372085400315296,0.0,0,False
2023-04-16,1.0372085400315296,1.0372085400315296,0.0,0,False
2023-04-17,1.0372085400315296,1.0372085400315296,0.0,0,False
2023-04-18,1.0372085400315296,1.0372085400315296,0.0,0,False
2023-04-19,1.0372085400315296,1.026860755699072,-0.9976570702110665,2,True
2023-04-20,1.026860755699072,1.026860755699072,0.0,0,False
2023-04-21,1.026860755699072,1.026860755699072,0.0,0,False
2023-04-22,1.026860755699072,1.026860755699072,0.0,0,False
2023-04-23,1.026860755699072,1.026860755699072,0.0,0,False
2023-04-24,1.026860755699072,1.026860755699072,0.0,0,False
2023-04-25,1.026860755699072,1.026860755699072,0.0,0,False
2023-04-26,1.026860755699072,1.026860755699072,0.0,0,False
2023-04-27,1.026860755699072,1.026860755699072,0.0,0,False
2023-04-28,1.026860755699072,1.026860755699072,0.0,0,False
2023-04-29,1.026860755699072,1.026860755699072,0.0,0,False
2023-04-30,1.026860755699072,1.026860755699072,0.0,0,False
2023-05-01,1.026860755699072,1.026860755699072,0.0,0,False
2023-05-02,1.026860755699072,1.026860755699072,0.0,0,False
2023-05-03,1.026860755699072,1.026860755699072,0.0,0,False
2023-05-04,1.026860755699072,1.026860755699072,0.0,0,False
2023-05-05,1.026860755699072,1.026860755699072,0.0,0,False
2023-05-06,1.026860755699072,1.026860755699072,0.0,0,False
2023-05-07,1.026860755699072,1.026860755699072,0.0,0,False
2023-05-08,1.026860755699072,1.0241661412164116,-0.26241284105029683,5,True
2023-05-09,1.0241661412164116,1.0218639988293001,-0.22478212220305993,2,True
2023-05-10,1.0218639988293001,1.0232287307129486,0.13355318175529707,1,True
2023-05-11,1.0232287307129486,1.0247059129512033,0.14436481247213084,0,True
2023-05-12,1.0247059129512033,1.0247059129512033,0.0,0,False
2023-05-13,1.0247059129512033,1.0247059129512033,0.0,0,False
2023-05-14,1.0247059129512033,1.0247059129512033,0.0,0,False
2023-05-15,1.0247059129512033,1.0247059129512033,0.0,0,False
2023-05-16,1.0247059129512033,1.0247059129512033,0.0,0,False
2023-05-17,1.0247059129512033,1.0247059129512033,0.0,0,False
2023-05-18,1.0247059129512033,1.0247059129512033,0.0,0,False
2023-05-19,1.0247059129512033,1.0247059129512033,0.0,0,False
2023-05-20,1.0247059129512033,1.0247059129512033,0.0,0,False
2023-05-21,1.0247059129512033,1.0247059129512033,0.0,0,False
2023-05-22,1.0247059129512033,1.0247059129512033,0.0,0,False
2023-05-23,1.0247059129512033,1.0247059129512033,0.0,0,False
2023-05-24,1.0247059129512033,1.0247059129512033,0.0,0,False
2023-05-25,1.0247059129512033,1.0247059129512033,0.0,0,False
2023-05-26,1.0247059129512033,1.0264987290938894,0.17495909021572054,1,True
2023-05-27,1.0264987290938894,1.0299054540338215,0.33187814493831347,0,True
2023-05-28,1.0299054540338215,1.0299054540338215,0.0,0,False
2023-05-29,1.0299054540338215,1.0299054540338215,0.0,0,False
2023-05-30,1.0299054540338215,1.0299054540338215,0.0,0,False
2023-05-31,1.0299054540338215,1.0299054540338215,0.0,0,False
2023-06-01,1.0299054540338215,1.0299054540338215,0.0,0,False
2023-06-02,1.0299054540338215,1.0425384307437764,1.226615186906277,1,True
2023-06-03,1.0425384307437764,1.0425384307437764,0.0,0,False
2023-06-04,1.0425384307437764,1.0425384307437764,0.0,0,False
2023-06-05,1.0425384307437764,1.0425384307437764,0.0,0,False
2023-06-06,1.0425384307437764,1.0346475469821697,-0.7568914036077512,4,True
2023-06-07,1.0346475469821697,1.0346475469821697,0.0,0,False
2023-06-08,1.0346475469821697,1.034240937807835,-0.039299293321737316,1,True
2023-06-09,1.034240937807835,1.034240937807835,0.0,0,False
2023-06-10,1.034240937807835,1.0498648468146223,1.5106643370647932,5,True
2023-06-11,1.0498648468146223,1.0491169133669433,-0.0712409268629477,0,True
2023-06-12,1.0491169133669433,1.0491169133669433,0.0,0,False
2023-06-13,1.0491169133669433,1.0491169133669433,0.0,0,False
2023-06-14,1.0491169133669433,1.0491169133669433,0.0,0,False
2023-06-15,1.0491169133669433,1.0491169133669433,0.0,0,False
2023-06-16,1.0491169133669433,1.0491169133669433,0.0,0,False
2023-06-17,1.0491169133669433,1.0491169133669433,0.0,0,False
2023-06-18,1.0491169133669433,1.0491169133669433,0.0,0,False
2023-06-19,1.0491169133669433,1.0543969803066038,0.5032867998205237,1,True
2023-06-20,1.0543969803066038,1.0552460374172532,0.08052537388740788,0,True
2023-06-21,1.0552460374172532,1.0552460374172532,0.0,0,False
2023-06-22,1.0552460374172532,1.0499701367508716,-0.4999687730924407,1,True
2023-06-23,1.0499701367508716,1.0499701367508716,0.0,0,False
2023-06-24,1.0499701367508716,1.0499701367508716,0.0,0,False
2023-06-25,1.0499701367508716,1.0499701367508716,0.0,0,False
2023-06-26,1.0499701367508716,1.0499701367508716,0.0,0,False
2023-06-27,1.0499701367508716,1.0499701367508716,0.0,0,False
2023-06-28,1.0499701367508716,1.0499701367508716,0.0,0,False
2023-06-29,1.0499701367508716,1.0499701367508716,0.0,0,False
2023-06-30,1.0499701367508716,1.0290411537330555,-1.993293169516297,4,True
2023-07-01,1.0290411537330555,1.0239020485828156,-0.49940715505853994,1,True
2023-07-02,1.0239020485828156,1.0239020485828156,0.0,0,False
2023-07-03,1.0239020485828156,1.0239020485828156,0.0,0,False
2023-07-04,1.0239020485828156,1.0239020485828156,0.0,0,False
2023-07-05,1.0239020485828156,1.0239020485828156,0.0,0,False
2023-07-06,1.0239020485828156,1.0239020485828156,0.0,0,False
2023-07-07,1.0239020485828156,1.0239020485828156,0.0,0,False
2023-07-08,1.0239020485828156,1.0239020485828156,0.0,0,False
2023-07-09,1.0239020485828156,1.0239020485828156,0.0,0,False
2023-07-10,1.0239020485828156,1.0239020485828156,0.0,0,False
2023-07-11,1.0239020485828156,1.0239020485828156,0.0,0,False
2023-07-12,1.0239020485828156,1.0239020485828156,0.0,0,False
2023-07-13,1.0239020485828156,1.0239020485828156,0.0,0,False
2023-07-14,1.0239020485828156,1.0239020485828156,0.0,0,False
2023-07-15,1.0239020485828156,1.0239020485828156,0.0,0,False
2023-07-16,1.0239020485828156,1.0239020485828156,0.0,0,False
2023-07-17,1.0239020485828156,1.0239020485828156,0.0,0,False
2023-07-18,1.0239020485828156,1.0239020485828156,0.0,0,False
2023-07-19,1.0239020485828156,1.0239020485828156,0.0,0,False
2023-07-20,1.0239020485828156,1.0239020485828156,0.0,0,False
2023-07-21,1.0239020485828156,1.0239020485828156,0.0,0,False
2023-07-22,1.0239020485828156,1.0239020485828156,0.0,0,False
2023-07-23,1.0239020485828156,1.0239020485828156,0.0,0,False
2023-07-24,1.0239020485828156,1.0236703686404238,-0.022627158790478052,1,True
2023-07-25,1.0236703686404238,1.0240123950466309,0.03341177166837905,0,True
2023-07-26,1.0240123950466309,1.0240123950466309,0.0,0,False
2023-07-27,1.0240123950466309,1.0240123950466309,0.0,0,False
2023-07-28,1.0240123950466309,1.0240123950466309,0.0,0,False
2023-07-29,1.0240123950466309,1.0240123950466309,0.0,0,False
2023-07-30,1.0240123950466309,1.0240123950466309,0.0,0,False
2023-07-31,1.0240123950466309,1.0240123950466309,0.0,0,False
2023-08-01,1.0240123950466309,1.0240123950466309,0.0,0,False
2023-08-02,1.0240123950466309,1.0240123950466309,0.0,0,False
2023-08-03,1.0240123950466309,1.0240123950466309,0.0,0,False
2023-08-04,1.0240123950466309,1.0240123950466309,0.0,0,False
2023-08-05,1.0240123950466309,1.0240123950466309,0.0,0,False
2023-08-06,1.0240123950466309,1.0240123950466309,0.0,0,False
2023-08-07,1.0240123950466309,1.0240123950466309,0.0,0,False
2023-08-08,1.0240123950466309,1.0240123950466309,0.0,0,False
2023-08-09,1.0240123950466309,1.0240123950466309,0.0,0,False
2023-08-10,1.0240123950466309,1.0240123950466309,0.0,0,False
2023-08-11,1.0240123950466309,1.0240123950466309,0.0,0,False
2023-08-12,1.0240123950466309,1.0240123950466309,0.0,0,False
2023-08-13,1.0240123950466309,1.0240123950466309,0.0,0,False
2023-08-14,1.0240123950466309,1.0240123950466309,0.0,0,False
2023-08-15,1.0240123950466309,1.0240123950466309,0.0,0,False
2023-08-16,1.0240123950466309,1.031234593555694,0.7052842860104436,4,True
2023-08-17,1.031234593555694,1.031234593555694,0.0,0,False
2023-08-18,1.031234593555694,1.0749726434890123,4.2413288117604475,4,True
2023-08-19,1.0749726434890123,1.0749726434890123,0.0,0,False
2023-08-20,1.0749726434890123,1.0749726434890123,0.0,0,False
2023-08-21,1.0749726434890123,1.0749726434890123,0.0,0,False
2023-08-22,1.0749726434890123,1.0749726434890123,0.0,0,False
2023-08-23,1.0749726434890123,1.0749726434890123,0.0,0,False
2023-08-24,1.0749726434890123,1.0749726434890123,0.0,0,False
2023-08-25,1.0749726434890123,1.0589244875356318,-1.4928897075272007,3,True
2023-08-26,1.0589244875356318,1.0589244875356318,0.0,0,False
2023-08-27,1.0589244875356318,1.0589244875356318,0.0,0,False
2023-08-28,1.0589244875356318,1.0589244875356318,0.0,0,False
2023-08-29,1.0589244875356318,1.0589244875356318,0.0,0,False
2023-08-30,1.0589244875356318,1.0589244875356318,0.0,0,False
2023-08-31,1.0589244875356318,1.0589244875356318,0.0,0,False
2023-09-01,1.0589244875356318,1.0589244875356318,0.0,0,False
2023-09-02,1.0589244875356318,1.06075443094271,0.17281151098289538,1,True
2023-09-03,1.06075443094271,1.0613560965204405,0.05672053400671562,0,True
2023-09-04,1.0613560965204405,1.0613560965204405,0.0,0,False
2023-09-05,1.0613560965204405,1.0613560965204405,0.0,0,False
2023-09-06,1.0613560965204405,1.0613560965204405,0.0,0,False
2023-09-07,1.0613560965204405,1.0613560965204405,0.0,0,False
2023-09-08,1.0613560965204405,1.0613560965204405,0.0,0,False
2023-09-09,1.0613560965204405,1.0613560965204405,0.0,0,False
2023-09-10,1.0613560965204405,1.0595564498891046,-0.16956105846434033,2,True
2023-09-11,1.0595564498891046,1.0567022345679487,-0.2693783159410379,1,True
2023-09-12,1.0567022345679487,1.0567022345679487,0.0,0,False
2023-09-13,1.0567022345679487,1.0662216907925792,0.9008645873189502,1,True
2023-09-14,1.0662216907925792,1.071128084874667,0.4601664104620262,0,True
2023-09-15,1.071128084874667,1.071128084874667,0.0,0,False
2023-09-16,1.071128084874667,1.071128084874667,0.0,0,False
2023-09-17,1.071128084874667,1.071128084874667,0.0,0,False
2023-09-18,1.071128084874667,1.0657781294378776,-0.49946925230844874,1,True
2023-09-19,1.0657781294378776,1.0657781294378776,0.0,0,False
2023-09-20,1.0657781294378776,1.0682327608800295,0.23031354972975482,1,True
2023-09-21,1.0682327608800295,1.0713794283000269,0.29456758257488946,0,True
2023-09-22,1.0713794283000269,1.0713794283000269,0.0,0,False
2023-09-23,1.0713794283000269,1.0713794283000269,0.0,0,False
2023-09-24,1.0713794283000269,1.0713794283000269,0.0,0,False
2023-09-25,1.0713794283000269,1.0713794283000269,0.0,0,False
2023-09-26,1.0713794283000269,1.0722091566565708,0.0774448654348836,1,True
2023-09-27,1.0722091566565708,1.0708294945717338,-0.12867471577459044,0,True
2023-09-28,1.0708294945717338,1.0708294945717338,0.0,0,False
2023-09-29,1.0708294945717338,1.0708294945717338,0.0,0,False
2023-09-30,1.0708294945717338,1.0708294945717338,0.0,0,False
2023-10-01,1.0708294945717338,1.0708294945717338,0.0,0,False
2023-10-02,1.0708294945717338,1.0708294945717338,0.0,0,False
2023-10-03,1.0708294945717338,1.0710306012890909,0.018780461163658835,1,True
2023-10-04,1.0710306012890909,1.0654767751934924,-0.5185497117368931,0,True
2023-10-05,1.0654767751934924,1.0654767751934924,0.0,0,False
2023-10-06,1.0654767751934924,1.0654767751934924,0.0,0,False
2023-10-07,1.0654767751934924,1.0654767751934924,0.0,0,False
2023-10-08,1.0654767751934924,1.0654767751934924,0.0,0,False
2023-10-09,1.0654767751934924,1.0654767751934924,0.0,0,False
2023-10-10,1.0654767751934924,1.0654767751934924,0.0,0,False
2023-10-11,1.0654767751934924,1.0654767751934924,0.0,0,False
2023-10-12,1.0654767751934924,1.0654767751934924,0.0,0,False
2023-10-13,1.0654767751934924,1.0654767751934924,0.0,0,False
2023-10-14,1.0654767751934924,1.0654767751934924,0.0,0,False
2023-10-15,1.0654767751934924,1.0653874163626955,-0.008386745997412959,1,True
2023-10-16,1.0653874163626955,1.0660920743078712,0.06614100507977838,1,True
2023-10-17,1.0660920743078712,1.0602707384048253,-0.5460443842831508,1,True
2023-10-18,1.0602707384048253,1.0602707384048253,0.0,0,False
2023-10-19,1.0602707384048253,1.0497058171611622,-0.9964361800230415,2,True
2023-10-20,1.0497058171611622,1.0497058171611622,0.0,0,False
2023-10-21,1.0497058171611622,1.0505004035815029,0.07569610526589887,1,True
2023-10-22,1.0505004035815029,1.0505004035815029,0.0,0,False
2023-10-23,1.0505004035815029,1.0505004035815029,0.0,0,False
2023-10-24,1.0505004035815029,1.0505004035815029,0.0,0,False
2023-10-25,1.0505004035815029,1.0505004035815029,0.0,0,False
2023-10-26,1.0505004035815029,1.0575201148185227,0.6682254678900934,2,True
2023-10-27,1.0575201148185227,1.0583456566702263,0.07806393846656601,1,True
2023-10-28,1.0583456566702263,1.0596750927583096,0.12561454565478414,0,True
2023-10-29,1.0596750927583096,1.0596750927583096,0.0,0,False
2023-10-30,1.0596750927583096,1.0596750927583096,0.0,0,False
2023-10-31,1.0596750927583096,1.0596750927583096,0.0,0,False
2023-11-01,1.0596750927583096,1.0596750927583096,0.0,0,False
2023-11-02,1.0596750927583096,1.0596750927583096,0.0,0,False
2023-11-03,1.0596750927583096,1.0596750927583096,0.0,0,False
2023-11-04,1.0596750927583096,1.0596750927583096,0.0,0,False
2023-11-05,1.0596750927583096,1.0596750927583096,0.0,0,False
2023-11-06,1.0596750927583096,1.0596750927583096,0.0,0,False
2023-11-07,1.0596750927583096,1.0543809850133652,-0.4995972615685407,1,True
2023-11-08,1.0543809850133652,1.0543809850133652,0.0,0,False
2023-11-09,1.0543809850133652,1.0572622773074372,0.27326861305596584,3,True
2023-11-10,1.0572622773074372,1.0703633884855457,1.2391543195387156,4,True
2023-11-11,1.0703633884855457,1.0703633884855457,0.0,0,False
2023-11-12,1.0703633884855457,1.0703633884855457,0.0,0,False
2023-11-13,1.0703633884855457,1.0703633884855457,0.0,0,False
2023-11-14,1.0703633884855457,1.0703633884855457,0.0,0,False
2023-11-15,1.0703633884855457,1.0703633884855457,0.0,0,False
2023-11-16,1.0703633884855457,1.0703633884855457,0.0,0,False
2023-11-17,1.0703633884855457,1.0703633884855457,0.0,0,False
2023-11-18,1.0703633884855457,1.0703633884855457,0.0,0,False
2023-11-19,1.0703633884855457,1.0703633884855457,0.0,0,False
2023-11-20,1.0703633884855457,1.0720220411950871,0.15496164455777173,1,True
2023-11-21,1.0720220411950871,1.0683125825565325,-0.34602447487174226,0,True
2023-11-22,1.0683125825565325,1.0666229130968043,-0.15816245987524402,1,True
2023-11-23,1.0666229130968043,1.0666229130968043,0.0,0,False
2023-11-24,1.0666229130968043,1.0666229130968043,0.0,0,False
2023-11-25,1.0666229130968043,1.0643131428138208,-0.21654984668174615,1,True
2023-11-26,1.0643131428138208,1.0643131428138208,0.0,0,False
2023-11-27,1.0643131428138208,1.0589982274092293,-0.4993751548101666,1,True
2023-11-28,1.0589982274092293,1.0589982274092293,0.0,0,False
2023-11-29,1.0589982274092293,1.0537085967630886,-0.4994938149312511,1,True
2023-11-30,1.0537085967630886,1.0537085967630886,0.0,0,False
2023-12-01,1.0537085967630886,1.0537085967630886,0.0,0,False
2023-12-02,1.0537085967630886,1.0537085967630886,0.0,0,False
2023-12-03,1.0537085967630886,1.0543662577056567,0.062413929675475543,1,True
2023-12-04,1.0543662577056567,1.0631939948770135,0.8372552807756062,4,True
2023-12-05,1.0631939948770135,1.0688530991694574,0.5322739142350486,0,True
2023-12-06,1.0688530991694574,1.0688530991694574,0.0,0,False
2023-12-07,1.0688530991694574,1.0635143168772672,-0.49948700119208933,1,True
2023-12-08,1.0635143168772672,1.0635143168772672,0.0,0,False
2023-12-09,1.0635143168772672,1.0635143168772672,0.0,0,False
2023-12-10,1.0635143168772672,1.0635143168772672,0.0,0,False
2023-12-11,1.0635143168772672,1.0764348958301113,1.2148946890326862,4,True
2023-12-12,1.0764348958301113,1.0764348958301113,0.0,0,False
2023-12-13,1.0764348958301113,1.0756593470813929,-0.07204790105957981,1,True
2023-12-14,1.0756593470813929,1.0756593470813929,0.0,0,False
2023-12-15,1.0756593470813929,1.0756593470813929,0.0,0,False
2023-12-16,1.0756593470813929,1.0756593470813929,0.0,0,False
2023-12-17,1.0756593470813929,1.0756593470813929,0.0,0,False
2023-12-18,1.0756593470813929,1.07933499426438,0.3417110810183699,1,True
2023-12-19,1.07933499426438,1.0766814043551094,-0.24585415310092174,0,True
2023-12-20,1.0766814043551094,1.0766814043551094,0.0,0,False
2023-12-21,1.0766814043551094,1.0766814043551094,0.0,0,False
2023-12-22,1.0766814043551094,1.0766814043551094,0.0,0,False
2023-12-23,1.0766814043551094,1.0766814043551094,0.0,0,False
2023-12-24,1.0766814043551094,1.0750255503687323,-0.15379238274937368,1,True
2023-12-25,1.0750255503687323,1.078298052839038,0.30441159925764794,0,True
2023-12-26,1.078298052839038,1.078298052839038,0.0,0,False
2023-12-27,1.078298052839038,1.070330548869375,-0.7388962586629355,2,True
2023-12-28,1.070330548869375,1.070330548869375,0.0,0,False
2023-12-29,1.070330548869375,1.070330548869375,0.0,0,False
2023-12-30,1.070330548869375,1.070330548869375,0.0,0,False
2023-12-31,1.070330548869375,1.070330548869375,0.0,0,False
