day,start_equity,end_equity,return_pct,entries,active
2024-01-02,1.0,0.9990134675237569,-0.09865324762431404,1,True
2024-01-03,0.9990134675237569,0.9919886107270097,-0.7031793889785698,9,True
2024-01-04,0.9919886107270097,0.9987143458755809,0.6780052790769542,0,True
2024-01-05,0.9987143458755809,0.9841322155954365,-1.4600901990008075,4,True
2024-01-06,0.9841322155954365,0.9742403656979395,-1.0051342432187416,7,True
2024-01-07,0.9742403656979395,0.9727296673288808,-0.1550642348899678,3,True
2024-01-08,0.9727296673288808,0.9526629859036485,-2.062924787760967,4,True
2024-01-09,0.9526629859036485,0.9526629859036485,0.0,0,False
2024-01-10,0.9526629859036485,0.943745577318766,-0.9360507038513655,4,True
2024-01-11,0.943745577318766,0.961175552270035,1.846893418116835,3,True
2024-01-12,0.961175552270035,0.9404125497026727,-2.160167569631344,3,True
2024-01-13,0.9404125497026727,0.9364921252798264,-0.416883465037321,6,True
2024-01-14,0.9364921252798264,0.9415539156457149,0.5405053848558605,0,True
2024-01-15,0.9415539156457149,0.9363436849546757,-0.5533650919465449,2,True
2024-01-16,0.9363436849546757,0.9375001958229902,0.12351350117456583,1,True
2024-01-17,0.9375001958229902,0.9427786764455864,0.5630378154708016,0,True
2024-01-18,0.9427786764455864,0.9420335241701067,-0.07903787963142728,1,True
2024-01-19,0.9420335241701067,0.9333863217620033,-0.9179293715392167,1,True
2024-01-20,0.9333863217620033,0.950616629492185,1.8459995961431108,6,True
2024-01-21,0.950616629492185,0.952136511100503,0.1598837597791558,1,True
2024-01-22,0.952136511100503,0.9326011144082534,-2.0517432599733043,4,True
2024-01-23,0.9326011144082534,0.9110977703835482,-2.3057386156298265,8,True
2024-01-24,0.9110977703835482,0.9105134550870205,-0.06413310574580056,1,True
2024-01-25,0.9105134550870205,0.9012189579096576,-1.020797345216018,2,True
2024-01-26,0.9012189579096576,0.9012189579096576,0.0,0,False
2024-01-27,0.9012189579096576,0.9012189579096576,0.0,0,False
2024-01-28,0.9012189579096576,0.9003248221350602,-0.09921404412878143,1,True
2024-01-29,0.9003248221350602,0.8989670971223189,-0.1508039075854284,0,True
2024-01-30,0.8989670971223189,0.8989670971223189,0.0,0,False
2024-01-31,0.8989670971223189,0.8967249920473775,-0.24940902532679665,1,True
2024-02-01,0.8967249920473775,0.8967249920473775,0.0,0,False
2024-02-02,0.8967249920473775,0.8966056478032007,-0.013308901305886245,2,True
2024-02-03,0.8966056478032007,0.9014387428706522,0.5390435671795313,1,True
2024-02-04,0.9014387428706522,0.9012029180427891,-0.026160937693020525,1,True
2024-02-05,0.9012029180427891,0.9012029180427891,0.0,0,False
2024-02-06,0.9012029180427891,0.8981843835252763,-0.3349450447928337,2,True
2024-02-07,0.8981843835252763,0.896046624392305,-0.23800894027803388,4,True
2024-02-08,0.896046624392305,0.9077621848217464,1.3074721906783493,1,True
2024-02-09,0.9077621848217464,0.9140669516810984,0.6945394911542779,0,True
2024-02-10,0.9140669516810984,0.9113630080677951,-0.295814612740386,2,True
2024-02-11,0.9113630080677951,0.9104709308728233,-0.09788384947323481,0,True
2024-02-12,0.9104709308728233,0.9114838489706896,0.11125210740063896,1,True
2024-02-13,0.9114838489706896,0.9115182982101011,0.003779467891873445,0,True
2024-02-14,0.9115182982101011,0.9123608670279656,0.09243575466548748,2,True
2024-02-15,0.9123608670279656,0.9171666894505489,0.5267457862631053,1,True
2024-02-16,0.9171666894505489,0.913980475466332,-0.3473974819261816,3,True
2024-02-17,0.913980475466332,0.9121958884125314,-0.19525439565764025,5,True
2024-02-18,0.9121958884125314,0.9139567027519772,0.19303028678523404,1,True
2024-02-19,0.9139567027519772,0.9146465972908807,0.0754843787267312,2,True
2024-02-20,0.9146465972908807,0.9122424456924667,-0.2628503299017315,6,True
2024-02-21,0.9122424456924667,0.9044245761474506,-0.8569947147199053,6,True
2024-02-22,0.9044245761474506,0.9153102164453162,1.2035984630398566,3,True
2024-02-23,0.9153102164453162,0.9161703777559382,0.0939748399141127,3,True
2024-02-24,0.9161703777559382,0.9146874366038265,-0.16186303204258623,5,True
2024-02-25,0.9146874366038265,0.9107716353476027,-0.428102661031704,4,True
2024-02-26,0.9107716353476027,0.9099225759336929,-0.09322418276518363,4,True
2024-02-27,0.9099225759336929,0.9109669571610695,0.11477693322476945,2,True
2024-02-28,0.9109669571610695,0.9270685526244291,1.7675279368571717,5,True
2024-02-29,0.9270685526244291,0.9384894376776471,1.2319353321700754,6,True
2024-03-01,0.9384894376776471,0.9377605464698316,-0.07766642633924015,5,True
2024-03-02,0.9377605464698316,0.9422105847468885,0.4745388674975537,4,True
2024-03-03,0.9422105847468885,0.9438340631761606,0.17230526334071072,9,True
2024-03-04,0.9438340631761606,0.9559040958215087,1.2788299465194664,1,True
2024-03-05,0.9559040958215087,0.9649888970084888,0.9503883524186074,8,True
2024-03-06,0.9649888970084888,0.959997746558633,-0.5172236142124031,13,True
2024-03-07,0.959997746558633,0.9650097089563768,0.5220806419296897,3,True
2024-03-08,0.9650097089563768,0.9661537181393913,0.11854898167311667,5,True
2024-03-09,0.9661537181393913,0.9601805457242548,-0.6182424497252481,5,True
2024-03-10,0.9601805457242548,0.9776805095006901,1.8225701254169113,6,True
2024-03-11,0.9776805095006901,0.9835597274035165,0.6013434701515052,3,True
2024-03-12,0.9835597274035165,0.9823961823427716,-0.11829938013184771,3,True
2024-03-13,0.9823961823427716,0.9878466559471515,0.5548142085998187,5,True
2024-03-14,0.9878466559471515,0.9971959719885698,0.9464339414556378,5,True
2024-03-15,0.9971959719885698,0.973902144539807,-2.3359327657843654,10,True
2024-03-16,0.973902144539807,0.9738660451129818,-0.003706679056780793,3,True
2024-03-17,0.9738660451129818,0.9642318241622881,-0.9892757837733135,5,True
2024-03-18,0.9642318241622881,0.9642713465468601,0.004098846727673688,4,True
2024-03-19,0.9642713465468601,0.9537388423403799,-1.0922759702648,11,True
2024-03-20,0.9537388423403799,0.94729870418026,-0.6752517433720628,4,True
2024-03-21,0.94729870418026,0.9477145911672383,0.04390241273879436,4,True
2024-03-22,0.9477145911672383,0.9513230641730915,0.3807552441931872,6,True
2024-03-23,0.9513230641730915,0.9663418244788996,1.578723450677888,5,True
2024-03-24,0.9663418244788996,0.9689657662451517,0.2715334987872575,4,True
2024-03-25,0.9689657662451517,0.9754118411164018,0.6652531075715284,4,True
2024-03-26,0.9754118411164018,0.9906143942487168,1.558577873620548,4,True
2024-03-27,0.9906143942487168,0.9878948951851908,-0.274526503886352,6,True
2024-03-28,0.9878948951851908,0.9823010938828107,-0.5662344576982004,2,True
2024-03-29,0.9823010938828107,0.97659647619484,-0.5807402357073332,6,True
2024-03-30,0.97659647619484,0.9713990418368122,-0.5321987622030733,2,True
2024-03-31,0.9713990418368122,0.971355805325068,-0.0044509526859748405,0,True
2024-04-01,0.971355805325068,0.9706678060231902,-0.07082876306561126,5,True
2024-04-02,0.9706678060231902,0.9561082901334516,-1.4999483653824641,5,True
2024-04-03,0.9561082901334516,0.9449490106585962,-1.167156439287631,3,True
2024-04-04,0.9449490106585962,0.9446539268786247,-0.031227481762829967,1,True
2024-04-05,0.9446539268786247,0.9398809349052906,-0.5052635507593051,5,True
2024-04-06,0.9398809349052906,0.9362682970361258,-0.3843718640307192,1,True
2024-04-07,0.9362682970361258,0.9464787865649239,1.090551667841444,3,True
2024-04-08,0.9464787865649239,0.939402549806139,-0.7476381783966701,1,True
2024-04-09,0.939402549806139,0.9345050701820222,-0.5213398265873859,3,True
2024-04-10,0.9345050701820222,0.934706576775924,0.02156292141490823,4,True
2024-04-11,0.934706576775924,0.9410527079481402,0.6789436738645849,1,True
2024-04-12,0.9410527079481402,0.9391875097879301,-0.19820336783016312,8,True
2024-04-13,0.9391875097879301,0.9228209072240853,-1.7426341804247847,10,True
2024-04-14,0.9228209072240853,0.9022914206336744,-2.224644720302782,7,True
2024-04-15,0.9022914206336744,0.9047824521372451,0.2760783762989938,5,True
2024-04-16,0.9047824521372451,0.8971926915916569,-0.8388492203468267,1,True
2024-04-17,0.8971926915916569,0.8966166605094453,-0.06420371984859896,0,True
2024-04-18,0.8966166605094453,0.9070326737673232,1.1617019532025763,1,True
2024-04-19,0.9070326737673232,0.9161767260441189,1.0081282120539603,5,True
2024-04-20,0.9161767260441189,0.9161514923191015,-0.002754242091085324,0,True
2024-04-21,0.9161514923191015,0.9161514923191015,0.0,0,False
2024-04-22,0.9161514923191015,0.9161514923191015,0.0,0,False
2024-04-23,0.9161514923191015,0.9229097668972146,0.7376809004595364,3,True
2024-04-24,0.9229097668972146,0.919585883027489,-0.3601526377709052,2,True
2024-04-25,0.919585883027489,0.9200013700114719,0.04518196632325999,2,True
2024-04-26,0.9200013700114719,0.9172980365446038,-0.293840156654801,1,True
2024-04-27,0.9172980365446038,0.9192038730649195,0.20776633595496197,6,True
2024-04-28,0.9192038730649195,0.9227401577010722,0.3847116771126702,3,True
2024-04-29,0.9227401577010722,0.9255427555963754,0.30372557993851856,2,True
2024-04-30,0.9255427555963754,0.9207139532771412,-0.5217265534235405,2,True
2024-05-01,0.9207139532771412,0.9144679928708787,-0.6783822906159975,6,True
2024-05-02,0.9144679928708787,0.9198599270380526,0.5896252475985131,3,True
2024-05-03,0.9198599270380526,0.9220677615184661,0.24001855233792835,1,True
2024-05-04,0.9220677615184661,0.9225380887032605,0.05100787647318583,0,True
2024-05-05,0.9225380887032605,0.920629188032381,-0.2069183586297929,1,True
2024-05-06,0.920629188032381,0.9202350555154899,-0.04281121237678098,0,True
2024-05-07,0.9202350555154899,0.9231090784042572,0.3123139975532929,3,True
2024-05-08,0.9231090784042572,0.9230800093067908,-0.003149042528816093,3,True
2024-05-09,0.9230800093067908,0.9199678514320555,-0.33714930919936936,1,True
2024-05-10,0.9199678514320555,0.9201580587631747,0.02067543238855052,2,True
2024-05-11,0.9201580587631747,0.9185505382543518,-0.1747004760229598,4,True
2024-05-12,0.9185505382543518,0.915743467995241,-0.30559780242963575,0,True
2024-05-13,0.915743467995241,0.9144285711814758,-0.14358789985625675,4,True
2024-05-14,0.9144285711814758,0.9095505702830979,-0.5334479971546902,3,True
2024-05-15,0.9095505702830979,0.9116311682735904,0.2287501166476913,3,True
2024-05-16,0.9116311682735904,0.9140651288874775,0.2669896224035906,2,True
2024-05-17,0.9140651288874775,0.9143719955501034,0.03357164089603515,0,True
2024-05-18,0.9143719955501034,0.9178700698531638,0.38256577411426296,2,True
2024-05-19,0.9178700698531638,0.9174368057849399,-0.04720320255057198,0,True
2024-05-20,0.9174368057849399,0.9205743790917779,0.3419933980252088,2,True
2024-05-21,0.9205743790917779,0.9172392023789916,-0.36229301928614177,2,True
2024-05-22,0.9172392023789916,0.9194308210316858,0.23893643522976404,1,True
2024-05-23,0.9194308210316858,0.9114405801932576,-0.8690420916564912,5,True
2024-05-24,0.9114405801932576,0.920537613058843,0.9980939035714842,3,True
2024-05-25,0.920537613058843,0.9200333724026755,-0.05477675751802691,0,True
2024-05-26,0.9200333724026755,0.9226297942121258,0.2822095249294776,3,True
2024-05-27,0.9226297942121258,0.933354835434153,1.1624425408010897,3,True
2024-05-28,0.933354835434153,0.9385856987812543,0.560436733010361,2,True
2024-05-29,0.9385856987812543,0.9390529433392235,0.04978176831118564,1,True
2024-05-30,0.9390529433392235,0.9282289734177073,-1.1526474623493321,5,True
2024-05-31,0.9282289734177073,0.9280144492445033,-0.02311112660210446,1,True
2024-06-01,0.9280144492445033,0.9261257281783963,-0.20352280803865863,2,True
2024-06-02,0.9261257281783963,0.9317502111275411,0.6073131085784222,0,True
2024-06-03,0.9317502111275411,0.925543350190924,-0.6661507410989365,5,True
2024-06-04,0.925543350190924,0.9292169520131967,0.3969129940282867,5,True
2024-06-05,0.9292169520131967,0.9325267409554202,0.3561911924930605,0,True
2024-06-06,0.9325267409554202,0.9322471714029409,-0.029979789340184304,2,True
2024-06-07,0.9322471714029409,0.9305178593353636,-0.1854993096921831,0,True
2024-06-08,0.9305178593353636,0.941767935503951,1.209012385492847,7,True
2024-06-09,0.941767935503951,0.9455755204762223,0.4043018273109711,1,True
2024-06-10,0.9455755204762223,0.9423914570652703,-0.33673285126378794,0,True
2024-06-11,0.9423914570652703,0.9411634357837941,-0.13030904219997197,2,True
2024-06-12,0.9411634357837941,0.9464132770877793,0.5578033638347968,3,True
2024-06-13,0.9464132770877793,0.9467100839697186,0.031361233947668765,3,True
2024-06-14,0.9467100839697186,0.9379496662758754,-0.9253537954417079,5,True
2024-06-15,0.9379496662758754,0.9406914134923036,0.29231283031574407,5,True
2024-06-16,0.9406914134923036,0.9412207021968642,0.05626592280625342,0,True
2024-06-17,0.9412207021968642,0.9329332174900881,-0.8805038698609824,4,True
2024-06-18,0.9329332174900881,0.9358447093989943,0.3120793486954154,5,True
2024-06-19,0.9358447093989943,0.9436624009238178,0.8353620473896761,0,True
2024-06-20,0.9436624009238178,0.9461111355380045,0.25949265455416093,1,True
2024-06-21,0.9461111355380045,0.9451651609223262,-0.09998557042038003,1,True
2024-06-22,0.9451651609223262,0.9473751793446478,0.23382351716867422,2,True
2024-06-23,0.9473751793446478,0.9471939970971984,-0.019124656355751224,2,True
2024-06-24,0.9471939970971984,0.9445059140167974,-0.2837943534945375,1,True
2024-06-25,0.9445059140167974,0.9472291599162966,0.28832491772528,0,True
2024-06-26,0.9472291599162966,0.9472291599162966,0.0,0,False
2024-06-27,0.9472291599162966,0.9448717725351868,-0.2488719183136312,1,True
2024-06-28,0.9448717725351868,0.943922935753119,-0.10041963466873582,2,True
2024-06-29,0.943922935753119,0.9356665812547865,-0.8746852296522611,5,True
2024-06-30,0.9356665812547865,0.9407247695798688,0.5405973053241864,0,True
2024-07-01,0.9407247695798688,0.9374952768126882,-0.3432983664949041,2,True
2024-07-02,0.9374952768126882,0.9401862031764731,0.28703359156470043,0,True
2024-07-03,0.9401862031764731,0.9378431299180864,-0.24921374622074444,1,True
2024-07-04,0.9378431299180864,0.9297765171440334,-0.8601238860445171,5,True
2024-07-05,0.9297765171440334,0.9055795764892937,-2.602446954571924,9,True
2024-07-06,0.9055795764892937,0.9059541855178153,0.04136677087769325,3,True
2024-07-07,0.9059541855178153,0.9114749947630564,0.6093916594784199,1,True
2024-07-08,0.9114749947630564,0.9117320546831201,0.028202629972384763,2,True
2024-07-09,0.9117320546831201,0.919157325835316,0.814413742947373,2,True
2024-07-10,0.919157325835316,0.9199464048812964,0.0858480940967743,1,True
2024-07-11,0.9199464048812964,0.9147539340182002,-0.5644318881561694,2,True
2024-07-12,0.9147539340182002,0.9147539340182002,0.0,0,False
2024-07-13,0.9147539340182002,0.9142116081624986,-0.05928652892689401,2,True
2024-07-14,0.9142116081624986,0.9263769300572638,1.330689939413121,1,True
2024-07-15,0.9263769300572638,0.9277113236971851,0.1440443513461398,0,True
2024-07-16,0.9277113236971851,0.9230889648423788,-0.49825400819566434,2,True
2024-07-17,0.9230889648423788,0.9256299727471425,0.2752722653550199,1,True
2024-07-18,0.9256299727471425,0.9262456566777565,0.06651512469790788,0,True
2024-07-19,0.9262456566777565,0.9250237808698333,-0.13191703508826924,2,True
2024-07-20,0.9250237808698333,0.9256132967299614,0.06372980590549915,0,True
2024-07-21,0.9256132967299614,0.9254769467385666,-0.014730772761850641,1,True
2024-07-22,0.9254769467385666,0.9254137096053,-0.006832923660549106,1,True
2024-07-23,0.9254137096053,0.9223643417262045,-0.3295140159957355,3,True
2024-07-24,0.9223643417262045,0.9200293425372938,-0.25315367076536033,1,True
2024-07-25,0.9200293425372938,0.9169413739693963,-0.33563805251921597,3,True
2024-07-26,0.9169413739693963,0.9163542679473053,-0.0640287415049734,0,True
2024-07-27,0.9163542679473053,0.9182081665240472,0.20231242889223733,1,True
2024-07-28,0.9182081665240472,0.9122121808142584,-0.6530094077127568,2,True
2024-07-29,0.9122121808142584,0.9118600667909399,-0.03860001332192109,0,True
2024-07-30,0.9118600667909399,0.9102116841912701,-0.1807714428674223,2,True
2024-07-31,0.9102116841912701,0.9059784088552706,-0.46508690335708147,4,True
2024-08-01,0.9059784088552706,0.9060623947318833,0.00927018522647316,1,True
2024-08-02,0.9060623947318833,0.8989013116064182,-0.7903520957388555,4,True
2024-08-03,0.8989013116064182,0.8963329902608551,-0.2857178326921339,7,True
2024-08-04,0.8963329902608551,0.8803411548114385,-1.784140004125323,4,True
2024-08-05,0.8803411548114385,0.8602685967728595,-2.2800885689455708,10,True
2024-08-06,0.8602685967728595,0.8602685967728595,0.0,0,False
2024-08-07,0.8602685967728595,0.86012505114043,-0.016686141161947887,1,True
2024-08-08,0.86012505114043,0.8581229320274323,-0.23277070123037813,0,True
2024-08-09,0.8581229320274323,0.8581229320274323,0.0,0,False
2024-08-10,0.8581229320274323,0.8581229320274323,0.0,0,False
2024-08-11,0.8581229320274323,0.8559780451437953,-0.24995100393943037,1,True
2024-08-12,0.8559780451437953,0.856615849378884,0.07451175163979418,1,True
2024-08-13,0.856615849378884,0.8538412541654422,-0.3239019235347529,0,True
2024-08-14,0.8538412541654422,0.8538412541654422,0.0,0,False
2024-08-15,0.8538412541654422,0.8538412541654422,0.0,0,False
2024-08-16,0.8538412541654422,0.8538412541654422,0.0,0,False
2024-08-17,0.8538412541654422,0.8664583950834824,1.4776916501150428,1,True
2024-08-18,0.8664583950834824,0.876054912934622,1.1075566819587435,1,True
2024-08-19,0.876054912934622,0.8718821386572395,-0.47631423735807754,3,True
2024-08-20,0.8718821386572395,0.8674074526590678,-0.5132214320920703,2,True
2024-08-21,0.8674074526590678,0.8670075593038554,-0.04610213504466776,0,True
2024-08-22,0.8670075593038554,0.8672877450507414,0.032316413378330466,1,True
2024-08-23,0.8672877450507414,0.8675847514991388,0.03424543354755283,0,True
2024-08-24,0.8675847514991388,0.8665455537906911,-0.11978054093874091,2,True
2024-08-25,0.8665455537906911,0.8658559925192517,-0.07957588247068381,2,True
2024-08-26,0.8658559925192517,0.8672774349687152,0.16416615023102654,2,True
2024-08-27,0.8672774349687152,0.863706856558779,-0.4116996783232407,1,True
2024-08-28,0.863706856558779,0.8642017041589327,0.057293466689078976,4,True
2024-08-29,0.8642017041589327,0.8608204878531265,-0.39125314027202984,3,True
2024-08-30,0.8608204878531265,0.8620848756443038,0.14688170286591973,0,True
2024-08-31,0.8620848756443038,0.8620848756443038,0.0,0,False
2024-09-01,0.8620848756443038,0.8599447644565938,-0.24824831616614418,1,True
2024-09-02,0.8599447644565938,0.8605954969569471,0.07567142998592402,1,True
2024-09-03,0.8605954969569471,0.8595037824731517,-0.12685570487595,0,True
2024-09-04,0.8595037824731517,0.8595037824731517,0.0,0,False
2024-09-05,0.8595037824731517,0.8595037824731517,0.0,0,False
2024-09-06,0.8595037824731517,0.8594394920659043,-0.007479944656252346,1,True
2024-09-07,0.8594394920659043,0.8602488365120787,0.09417119572070476,0,True
2024-09-08,0.8602488365120787,0.8602488365120787,0.0,0,False
2024-09-09,0.8602488365120787,0.8602488365120787,0.0,0,False
2024-09-10,0.8602488365120787,0.8602488365120787,0.0,0,False
2024-09-11,0.8602488365120787,0.855964315118057,-0.4980560521759547,2,True
2024-09-12,0.855964315118057,0.855964315118057,0.0,0,False
2024-09-13,0.855964315118057,0.8559010008294315,-0.0073968374039945495,1,True
2024-09-14,0.8559010008294315,0.8569241143349207,0.11953643055653274,0,True
2024-09-15,0.8569241143349207,0.8580617861493524,0.1327622592713018,2,True
2024-09-16,0.8580617861493524,0.8552805731125159,-0.3241273625897545,2,True
2024-09-17,0.8552805731125159,0.8586402933451804,0.39282082842568844,1,True
2024-09-18,0.8586402933451804,0.8586903674208454,0.00583178730988454,0,True
2024-09-19,0.8586903674208454,0.8587590462443827,0.007998089432814659,1,True
2024-09-20,0.8587590462443827,0.8619868013211213,0.3758627161896566,2,True
2024-09-21,0.8619868013211213,0.8568761878341306,-0.592887672892195,2,True
2024-09-22,0.8568761878341306,0.8615527111178083,0.5457641780778566,2,True
2024-09-23,0.8615527111178083,0.8660822801188933,0.5257448491118089,0,True
2024-09-24,0.8660822801188933,0.8660822801188933,0.0,0,False
2024-09-25,0.8660822801188933,0.8660822801188933,0.0,0,False
2024-09-26,0.8660822801188933,0.8660822801188933,0.0,0,False
2024-09-27,0.8660822801188933,0.8660822801188933,0.0,0,False
2024-09-28,0.8660822801188933,0.8660822801188933,0.0,0,False
2024-09-29,0.8660822801188933,0.8660822801188933,0.0,0,False
2024-09-30,0.8660822801188933,0.8642352984382199,-0.21325706841847092,2,True
2024-10-01,0.8642352984382199,0.8644093089120362,0.020134617751743633,0,True
2024-10-02,0.8644093089120362,0.8528410260300366,-1.3382876332694305,11,True
2024-10-03,0.8528410260300366,0.8528410260300366,0.0,0,False
2024-10-04,0.8528410260300366,0.8528410260300366,0.0,0,False
2024-10-05,0.8528410260300366,0.8528410260300366,0.0,0,False
2024-10-06,0.8528410260300366,0.8528410260300366,0.0,0,False
2024-10-07,0.8528410260300366,0.8528410260300366,0.0,0,False
2024-10-08,0.8528410260300366,0.8528410260300366,0.0,0,False
2024-10-09,0.8528410260300366,0.8528410260300366,0.0,0,False
2024-10-10,0.8528410260300366,0.8528410260300366,0.0,0,False
2024-10-11,0.8528410260300366,0.8528410260300366,0.0,0,False
2024-10-12,0.8528410260300366,0.8528410260300366,0.0,0,False
2024-10-13,0.8528410260300366,0.8528410260300366,0.0,0,False
2024-10-14,0.8528410260300366,0.8528410260300366,0.0,0,False
2024-10-15,0.8528410260300366,0.8528410260300366,0.0,0,False
2024-10-16,0.8528410260300366,0.8528410260300366,0.0,0,False
2024-10-17,0.8528410260300366,0.8528410260300366,0.0,0,False
2024-10-18,0.8528410260300366,0.8528410260300366,0.0,0,False
2024-10-19,0.8528410260300366,0.8528410260300366,0.0,0,False
2024-10-20,0.8528410260300366,0.8528410260300366,0.0,0,False
2024-10-21,0.8528410260300366,0.8528410260300366,0.0,0,False
2024-10-22,0.8528410260300366,0.8528410260300366,0.0,0,False
2024-10-23,0.8528410260300366,0.8528410260300366,0.0,0,False
2024-10-24,0.8528410260300366,0.8528410260300366,0.0,0,False
2024-10-25,0.8528410260300366,0.8528410260300366,0.0,0,False
2024-10-26,0.8528410260300366,0.8528410260300366,0.0,0,False
2024-10-27,0.8528410260300366,0.8528410260300366,0.0,0,False
2024-10-28,0.8528410260300366,0.8528410260300366,0.0,0,False
2024-10-29,0.8528410260300366,0.8528410260300366,0.0,0,False
2024-10-30,0.8528410260300366,0.8528410260300366,0.0,0,False
2024-10-31,0.8528410260300366,0.8528410260300366,0.0,0,False
2024-11-01,0.8528410260300366,0.8528410260300366,0.0,0,False
2024-11-02,0.8528410260300366,0.8528410260300366,0.0,0,False
2024-11-03,0.8528410260300366,0.8528410260300366,0.0,0,False
2024-11-04,0.8528410260300366,0.8528410260300366,0.0,0,False
2024-11-05,0.8528410260300366,0.8528410260300366,0.0,0,False
2024-11-06,0.8528410260300366,0.8528410260300366,0.0,0,False
2024-11-07,0.8528410260300366,0.8528410260300366,0.0,0,False
2024-11-08,0.8528410260300366,0.8528410260300366,0.0,0,False
2024-11-09,0.8528410260300366,0.8528410260300366,0.0,0,False
2024-11-10,0.8528410260300366,0.8528410260300366,0.0,0,False
2024-11-11,0.8528410260300366,0.8528410260300366,0.0,0,False
2024-11-12,0.8528410260300366,0.8528410260300366,0.0,0,False
2024-11-13,0.8528410260300366,0.8528410260300366,0.0,0,False
2024-11-14,0.8528410260300366,0.8528410260300366,0.0,0,False
2024-11-15,0.8528410260300366,0.8528410260300366,0.0,0,False
2024-11-16,0.8528410260300366,0.8528410260300366,0.0,0,False
2024-11-17,0.8528410260300366,0.8528410260300366,0.0,0,False
2024-11-18,0.8528410260300366,0.8528410260300366,0.0,0,False
2024-11-19,0.8528410260300366,0.8528410260300366,0.0,0,False
2024-11-20,0.8528410260300366,0.8528410260300366,0.0,0,False
2024-11-21,0.8528410260300366,0.8528410260300366,0.0,0,False
2024-11-22,0.8528410260300366,0.8528410260300366,0.0,0,False
2024-11-23,0.8528410260300366,0.8528410260300366,0.0,0,False
2024-11-24,0.8528410260300366,0.8528410260300366,0.0,0,False
2024-11-25,0.8528410260300366,0.8528410260300366,0.0,0,False
2024-11-26,0.8528410260300366,0.8528410260300366,0.0,0,False
2024-11-27,0.8528410260300366,0.8528410260300366,0.0,0,False
2024-11-28,0.8528410260300366,0.8528410260300366,0.0,0,False
2024-11-29,0.8528410260300366,0.8528410260300366,0.0,0,False
2024-11-30,0.8528410260300366,0.8528410260300366,0.0,0,False
2024-12-01,0.8528410260300366,0.8528410260300366,0.0,0,False
2024-12-02,0.8528410260300366,0.8528410260300366,0.0,0,False
2024-12-03,0.8528410260300366,0.8528410260300366,0.0,0,False
2024-12-04,0.8528410260300366,0.8528410260300366,0.0,0,False
2024-12-05,0.8528410260300366,0.8528410260300366,0.0,0,False
2024-12-06,0.8528410260300366,0.8528410260300366,0.0,0,False
2024-12-07,0.8528410260300366,0.8528410260300366,0.0,0,False
2024-12-08,0.8528410260300366,0.8528410260300366,0.0,0,False
2024-12-09,0.8528410260300366,0.8528410260300366,0.0,0,False
2024-12-10,0.8528410260300366,0.8528410260300366,0.0,0,False
2024-12-11,0.8528410260300366,0.8528410260300366,0.0,0,False
2024-12-12,0.8528410260300366,0.8528410260300366,0.0,0,False
2024-12-13,0.8528410260300366,0.8528410260300366,0.0,0,False
2024-12-14,0.8528410260300366,0.8528410260300366,0.0,0,False
2024-12-15,0.8528410260300366,0.8528410260300366,0.0,0,False
2024-12-16,0.8528410260300366,0.8528410260300366,0.0,0,False
2024-12-17,0.8528410260300366,0.8528410260300366,0.0,0,False
2024-12-18,0.8528410260300366,0.8528410260300366,0.0,0,False
2024-12-19,0.8528410260300366,0.8528410260300366,0.0,0,False
2024-12-20,0.8528410260300366,0.8528410260300366,0.0,0,False
2024-12-21,0.8528410260300366,0.8528410260300366,0.0,0,False
2024-12-22,0.8528410260300366,0.8528410260300366,0.0,0,False
2024-12-23,0.8528410260300366,0.8528410260300366,0.0,0,False
2024-12-24,0.8528410260300366,0.8528410260300366,0.0,0,False
2024-12-25,0.8528410260300366,0.8528410260300366,0.0,0,False
2024-12-26,0.8528410260300366,0.8528410260300366,0.0,0,False
2024-12-27,0.8528410260300366,0.8528410260300366,0.0,0,False
2024-12-28,0.8528410260300366,0.8528410260300366,0.0,0,False
2024-12-29,0.8528410260300366,0.8528410260300366,0.0,0,False
2024-12-30,0.8528410260300366,0.8528410260300366,0.0,0,False
2024-12-31,0.8528410260300366,0.8528410260300366,0.0,0,False
