day,start_equity,end_equity,return_pct,entries,active
2021-09-02,1.0,1.0,0.0,0,False
2021-09-03,1.0,1.0,0.0,0,False
2021-09-04,1.0,1.0,0.0,0,False
2021-09-05,1.0,1.0,0.0,0,False
2021-09-06,1.0,1.0,0.0,0,False
2021-09-07,1.0,1.0,0.0,0,False
2021-09-08,1.0,1.0,0.0,0,False
2021-09-09,1.0,1.0,0.0,0,False
2021-09-10,1.0,1.0,0.0,0,False
2021-09-11,1.0,1.0,0.0,0,False
2021-09-12,1.0,1.0,0.0,0,False
2021-09-13,1.0,1.0,0.0,0,False
2021-09-14,1.0,1.0,0.0,0,False
2021-09-15,1.0,1.0,0.0,0,False
2021-09-16,1.0,1.0,0.0,0,False
2021-09-17,1.0,1.0,0.0,0,False
2021-09-18,1.0,1.0,0.0,0,False
2021-09-19,1.0,1.0,0.0,0,False
2021-09-20,1.0,1.0,0.0,0,False
2021-09-21,1.0,1.0,0.0,0,False
2021-09-22,1.0,1.0,0.0,0,False
2021-09-23,1.0,1.0,0.0,0,False
2021-09-24,1.0,1.0,0.0,0,False
2021-09-25,1.0,1.0,0.0,0,False
2021-09-26,1.0,1.0,0.0,0,False
2021-09-27,1.0,1.0,0.0,0,False
2021-09-28,1.0,1.0,0.0,0,False
2021-09-29,1.0,1.0,0.0,0,False
2021-09-30,1.0,1.0,0.0,0,False
2021-10-01,1.0,1.0,0.0,0,False
2021-10-02,1.0,1.0,0.0,0,False
2021-10-03,1.0,1.0,0.0,0,False
2021-10-04,1.0,1.0,0.0,0,False
2021-10-05,1.0,1.0,0.0,0,False
2021-10-06,1.0,1.001489821323389,0.1489821323388929,1,True
2021-10-07,1.001489821323389,1.0006266840307554,-0.08618532852315841,0,True
2021-10-08,1.0006266840307554,1.0006266840307554,0.0,0,False
2021-10-09,1.0006266840307554,0.9986866545947173,-0.19388144120074946,3,True
2021-10-10,0.9986866545947173,1.0011029499451742,0.24194729541444637,1,True
2021-10-11,1.0011029499451742,0.9973633736513651,-0.3735456272518145,0,True
2021-10-12,0.9973633736513651,0.9973633736513651,0.0,0,False
2021-10-13,0.9973633736513651,1.0110876924455516,1.3760600355657404,4,True
2021-10-14,1.0110876924455516,1.0282484533401646,1.6972574211743918,0,True
2021-10-15,1.0282484533401646,1.0314219553700628,0.3086318311094294,1,True
2021-10-16,1.0314219553700628,1.0380033164140867,0.6380861886600586,0,True
2021-10-17,1.0380033164140867,1.0380033164140867,0.0,0,False
2021-10-18,1.0380033164140867,1.037046249156741,-0.09220271671694924,1,True
2021-10-19,1.037046249156741,1.0391650133542418,0.20430758987111108,0,True
2021-10-20,1.0391650133542418,1.0391650133542418,0.0,0,False
2021-10-21,1.0391650133542418,1.0391650133542418,0.0,0,False
2021-10-22,1.0391650133542418,1.0391650133542418,0.0,0,False
2021-10-23,1.0391650133542418,1.0391650133542418,0.0,0,False
2021-10-24,1.0391650133542418,1.0391650133542418,0.0,0,False
2021-10-25,1.0391650133542418,1.0425405949026472,0.32483595050121217,1,True
2021-10-26,1.0425405949026472,1.0459330885025486,0.32540637904063807,0,True
2021-10-27,1.0459330885025486,1.0437509167689822,-0.2086339707151441,6,True
2021-10-28,1.0437509167689822,1.0470649896695219,0.31751568763154214,0,True
2021-10-29,1.0470649896695219,1.0470649896695219,0.0,0,False
2021-10-30,1.0470649896695219,1.0470649896695219,0.0,0,False
2021-10-31,1.0470649896695219,1.0470649896695219,0.0,0,False
2021-11-01,1.0470649896695219,1.0484417478901664,0.13148737033783497,1,True
2021-11-02,1.0484417478901664,1.0479747927969532,-0.04453801025693371,0,True
2021-11-03,1.0479747927969532,1.0481325261784356,0.015051257202602919,1,True
2021-11-04,1.0481325261784356,1.065521588323273,1.6590518575202662,1,True
2021-11-05,1.065521588323273,1.065521588323273,0.0,0,False
2021-11-06,1.065521588323273,1.0624090979065566,-0.2921095593768519,1,True
2021-11-07,1.0624090979065566,1.062589602782614,0.016990147807760536,0,True
2021-11-08,1.062589602782614,1.062589602782614,0.0,0,False
2021-11-09,1.062589602782614,1.062589602782614,0.0,0,False
2021-11-10,1.062589602782614,1.062589602782614,0.0,0,False
2021-11-11,1.062589602782614,1.0500532477284261,-1.1797927460760804,10,True
2021-11-12,1.0500532477284261,1.052829197148092,0.26436272881125156,0,True
2021-11-13,1.052829197148092,1.0517336895582399,-0.1040536862788155,1,True
2021-11-14,1.0517336895582399,1.0520768736869754,0.03263032573195268,0,True
2021-11-15,1.0520768736869754,1.0520768736869754,0.0,0,False
2021-11-16,1.0520768736869754,1.0730397902190074,1.9925270725292155,5,True
2021-11-17,1.0730397902190074,1.0613512916491012,-1.0892884566303551,0,True
2021-11-18,1.0613512916491012,1.0585681313258277,-0.2622280054843218,2,True
2021-11-19,1.0585681313258277,1.0624548600966424,0.3671685039248862,1,True
2021-11-20,1.0624548600966424,1.0630003084203226,0.05133849391310008,0,True
2021-11-21,1.0630003084203226,1.0630003084203226,0.0,0,False
2021-11-22,1.0630003084203226,1.0576939373084582,-0.4991881065161685,1,True
2021-11-23,1.0576939373084582,1.0576939373084582,0.0,0,False
2021-11-24,1.0576939373084582,1.0576939373084582,0.0,0,False
2021-11-25,1.0576939373084582,1.06035702479926,0.2517824293839288,2,True
2021-11-26,1.06035702479926,1.0409697481326907,-1.8283725399225403,8,True
2021-11-27,1.0409697481326907,1.0572040479097802,1.559536173477749,0,True
2021-11-28,1.0572040479097802,1.0519271629046023,-0.49913590622462367,1,True
2021-11-29,1.0519271629046023,1.0519271629046023,0.0,0,False
2021-11-30,1.0519271629046023,1.0519271629046023,0.0,0,False
2021-12-01,1.0519271629046023,1.0519271629046023,0.0,0,False
2021-12-02,1.0519271629046023,1.0498676285566046,-0.19578678264290383,2,True
2021-12-03,1.0498676285566046,1.0438921317070669,-0.5691666917812421,1,True
2021-12-04,1.0438921317070669,0.9705567959210162,-7.025183307601535,15,True
2021-12-05,0.9705567959210162,0.9677278991279413,-0.29147153520163727,1,True
2021-12-06,0.9677278991279413,0.9631183967346585,-0.4763221559941244,7,True
2021-12-07,0.9631183967346585,0.9875514439946731,2.5368685036909255,0,True
2021-12-08,0.9875514439946731,0.9911108727098747,0.3604297008370283,1,True
2021-12-09,0.9911108727098747,0.988723727711743,-0.2408554949664632,0,True
2021-12-10,0.988723727711743,0.9837842692786946,-0.49957923478585187,1,True
2021-12-11,0.9837842692786946,0.9835125351845363,-0.027621309126790727,1,True
2021-12-12,0.9835125351845363,0.9850871051632692,0.16009658468028043,0,True
2021-12-13,0.9850871051632692,0.9816667795332736,-0.3472104763191153,1,True
2021-12-14,0.9816667795332736,0.9801673345120065,-0.1527448063364245,0,True
2021-12-15,0.9801673345120065,0.9801673345120065,0.0,0,False
2021-12-16,0.9801673345120065,0.9801673345120065,0.0,0,False
2021-12-17,0.9801673345120065,0.9806948062865615,0.053814461672252456,2,True
2021-12-18,0.9806948062865615,0.9864929035784151,0.5912234116756787,0,True
2021-12-19,0.9864929035784151,0.9834909050236352,-0.30431020272830844,1,True
2021-12-20,0.9834909050236352,0.9815640360400051,-0.1959213830842521,0,True
2021-12-21,0.9815640360400051,0.9789801876719917,-0.263237880886269,1,True
2021-12-22,0.9789801876719917,0.9794337858715683,0.046333746615978555,0,True
2021-12-23,0.9794337858715683,0.9794337858715683,0.0,0,False
2021-12-24,0.9794337858715683,0.9794337858715683,0.0,0,False
2021-12-25,0.9794337858715683,0.9811848208637772,0.17878033384879366,1,True
2021-12-26,0.9811848208637772,0.9808491573254343,-0.03421002151740016,0,True
2021-12-27,0.9808491573254343,0.9808491573254343,0.0,0,False
2021-12-28,0.9808491573254343,0.9808491573254343,0.0,0,False
2021-12-29,0.9808491573254343,0.9808491573254343,0.0,0,False
2021-12-30,0.9808491573254343,0.9808491573254343,0.0,0,False
2021-12-31,0.9808491573254343,0.9808491573254343,0.0,0,False
2022-01-01,0.9808491573254343,0.9808491573254343,0.0,0,False
2022-01-02,0.9808491573254343,0.9808491573254343,0.0,0,False
2022-01-03,0.9808491573254343,0.9808491573254343,0.0,0,False
2022-01-04,0.9808491573254343,0.9808491573254343,0.0,0,False
2022-01-05,0.9808491573254343,0.9822880172513104,0.14669533180815542,1,True
2022-01-06,0.9822880172513104,0.9660544709114076,-1.6526259156991796,9,True
2022-01-07,0.9660544709114076,0.9775895082906163,1.1940359189400729,4,True
2022-01-08,0.9775895082906163,0.9754645664710175,-0.2173654485423393,0,True
2022-01-09,0.9754645664710175,0.9761359964308756,0.06883181439250041,1,True
2022-01-10,0.9761359964308756,0.9776239313398241,0.15243110738554222,0,True
2022-01-11,0.9776239313398241,0.9776239313398241,0.0,0,False
2022-01-12,0.9776239313398241,0.9776239313398241,0.0,0,False
2022-01-13,0.9776239313398241,0.9776239313398241,0.0,0,False
2022-01-14,0.9776239313398241,0.9776239313398241,0.0,0,False
2022-01-15,0.9776239313398241,0.9780954630862743,0.048232426737349066,1,True
2022-01-16,0.9780954630862743,0.9770784776475641,-0.10397609201674429,0,True
2022-01-17,0.9770784776475641,0.97926480905711,0.22376210914090144,1,True
2022-01-18,0.97926480905711,0.9863299607870616,0.7214750968897121,0,True
2022-01-19,0.9863299607870616,0.9863299607870616,0.0,0,False
2022-01-20,0.9863299607870616,0.9863299607870616,0.0,0,False
2022-01-21,0.9863299607870616,0.9545034457340381,-3.22676146100509,7,True
2022-01-22,0.9545034457340381,0.9320151285694392,-2.356022627797305,8,True
2022-01-23,0.9320151285694392,0.9398645953776686,0.8422037977299457,0,True
2022-01-24,0.9398645953776686,0.9342596830537286,-0.5963531716701942,2,True
2022-01-25,0.9342596830537286,0.9517194456304643,1.8688339969532342,0,True
2022-01-26,0.9517194456304643,0.9517194456304643,0.0,0,False
2022-01-27,0.9517194456304643,0.9654429842581683,1.4419731246126721,4,True
2022-01-28,0.9654429842581683,0.9526598299716463,-1.3240713843235774,0,True
2022-01-29,0.9526598299716463,0.9526598299716463,0.0,0,False
2022-01-30,0.9526598299716463,0.9594999547627773,0.7180028564166996,1,True
2022-01-31,0.9594999547627773,0.9616604214372948,0.22516589644359097,0,True
2022-02-01,0.9616604214372948,0.9616604214372948,0.0,0,False
2022-02-02,0.9616604214372948,0.9616604214372948,0.0,0,False
2022-02-03,0.9616604214372948,0.9591973727211259,-0.2561245800765777,3,True
2022-02-04,0.9591973727211259,0.9709866205492597,1.2290742409655664,0,True
2022-02-05,0.9709866205492597,0.9709866205492597,0.0,0,False
2022-02-06,0.9709866205492597,0.9709866205492597,0.0,0,False
2022-02-07,0.9709866205492597,0.9709866205492597,0.0,0,False
2022-02-08,0.9709866205492597,0.9709866205492597,0.0,0,False
2022-02-09,0.9709866205492597,0.9735862951933084,0.26773537235540434,2,True
2022-02-10,0.9735862951933084,0.97607446051998,0.2555670040710334,5,True
2022-02-11,0.97607446051998,0.9733762540212565,-0.27643449427886546,0,True
2022-02-12,0.9733762540212565,0.9539699156415226,-1.9937139723268937,4,True
2022-02-13,0.9539699156415226,0.9539699156415226,0.0,0,False
2022-02-14,0.9539699156415226,0.9539699156415226,0.0,0,False
2022-02-15,0.9539699156415226,0.9539699156415226,0.0,0,False
2022-02-16,0.9539699156415226,0.9539699156415226,0.0,0,False
2022-02-17,0.9539699156415226,0.9539699156415226,0.0,0,False
2022-02-18,0.9539699156415226,0.9539699156415226,0.0,0,False
2022-02-19,0.9539699156415226,0.9539699156415226,0.0,0,False
2022-02-20,0.9539699156415226,0.9539699156415226,0.0,0,False
2022-02-21,0.9539699156415226,0.9539699156415226,0.0,0,False
2022-02-22,0.9539699156415226,0.9525466391302694,-0.14919511484762227,2,True
2022-02-23,0.9525466391302694,0.9517359397305362,-0.0851086305310389,0,True
2022-02-24,0.9517359397305362,0.9327717193589489,-1.9925926488555845,4,True
2022-02-25,0.9327717193589489,0.9327717193589489,0.0,0,False
2022-02-26,0.9327717193589489,0.9327717193589489,0.0,0,False
2022-02-27,0.9327717193589489,0.9327717193589489,0.0,0,False
2022-02-28,0.9327717193589489,0.9351506377126545,0.25503757289517814,1,True
2022-03-01,0.9351506377126545,0.9379912708980536,0.3037620968047605,0,True
2022-03-02,0.9379912708980536,0.9379912708980536,0.0,0,False
2022-03-03,0.9379912708980536,0.9379912708980536,0.0,0,False
2022-03-04,0.9379912708980536,0.9362786472776942,-0.18258417466078258,1,True
2022-03-05,0.9362786472776942,0.9356361648975778,-0.0686208514937725,0,True
2022-03-06,0.9356361648975778,0.9296183845947606,-0.643175256428441,3,True
2022-03-07,0.9296183845947606,0.924393174543069,-0.5620811871066222,0,True
2022-03-08,0.924393174543069,0.9255093005664922,0.12074148253797823,1,True
2022-03-09,0.9255093005664922,0.9341733084053023,0.9361340651581784,1,True
2022-03-10,0.9341733084053023,0.9342302438668831,0.006094742920659257,3,True
2022-03-11,0.9342302438668831,0.9299923138327725,-0.4536280067929943,0,True
2022-03-12,0.9299923138327725,0.9299923138327725,0.0,0,False
2022-03-13,0.9299923138327725,0.9299923138327725,0.0,0,False
2022-03-14,0.9299923138327725,0.9253510715468961,-0.4990624349085704,1,True
2022-03-15,0.9253510715468961,0.9263614515440621,0.10918882878441227,1,True
2022-03-16,0.9263614515440621,0.9297281072011929,0.3634278662523416,1,True
2022-03-17,0.9297281072011929,0.9310845467487067,0.14589636873485468,1,True
2022-03-18,0.9310845467487067,0.9301726117688981,-0.09794330525546568,0,True
2022-03-19,0.9301726117688981,0.9301726117688981,0.0,0,False
2022-03-20,0.9301726117688981,0.9255263042363117,-0.49951024936657484,1,True
2022-03-21,0.9255263042363117,0.9315684287256409,0.6528312011958359,3,True
2022-03-22,0.9315684287256409,0.9308773253680676,-0.0741870737846706,0,True
2022-03-23,0.9308773253680676,0.9308773253680676,0.0,0,False
2022-03-24,0.9308773253680676,0.9308773253680676,0.0,0,False
2022-03-25,0.9308773253680676,0.9308773253680676,0.0,0,False
2022-03-26,0.9308773253680676,0.9308773253680676,0.0,0,False
2022-03-27,0.9308773253680676,0.9308773253680676,0.0,0,False
2022-03-28,0.9308773253680676,0.9308773253680676,0.0,0,False
2022-03-29,0.9308773253680676,0.9308773253680676,0.0,0,False
2022-03-30,0.9308773253680676,0.939314461370566,0.9063638970003174,4,True
2022-03-31,0.939314461370566,0.9467028825592002,0.7865759010942552,5,True
2022-04-01,0.9467028825592002,0.925026723856256,-2.2896474809866008,0,True
2022-04-02,0.925026723856256,0.925026723856256,0.0,0,False
2022-04-03,0.925026723856256,0.920409330725357,-0.4991632146204239,1,True
2022-04-04,0.920409330725357,0.920409330725357,0.0,0,False
2022-04-05,0.920409330725357,0.9204328156235527,0.002551571068631908,3,True
2022-04-06,0.9204328156235527,0.8942970167579234,-2.839511849425258,7,True
2022-04-07,0.8942970167579234,0.8885444446513386,-0.6432507320039416,0,True
2022-04-08,0.8885444446513386,0.8885444446513386,0.0,0,False
2022-04-09,0.8885444446513386,0.8885444446513386,0.0,0,False
2022-04-10,0.8885444446513386,0.8885444446513386,0.0,0,False
2022-04-11,0.8885444446513386,0.881048960050387,-0.8435689003596036,6,True
2022-04-12,0.881048960050387,0.885609383791426,0.5176129758757142,0,True
2022-04-13,0.885609383791426,0.885609383791426,0.0,0,False
2022-04-14,0.885609383791426,0.885609383791426,0.0,0,False
2022-04-15,0.885609383791426,0.885609383791426,0.0,0,False
2022-04-16,0.885609383791426,0.885609383791426,0.0,0,False
2022-04-17,0.885609383791426,0.8896795552755288,0.4595899228932998,1,True
2022-04-18,0.8896795552755288,0.8919262914341046,0.25253318964715277,6,True
2022-04-19,0.8919262914341046,0.9086192814491316,1.8715660896358122,0,True
2022-04-20,0.9086192814491316,0.9086192814491316,0.0,0,False
2022-04-21,0.9086192814491316,0.9111522827428854,0.27877476798796597,2,True
2022-04-22,0.9111522827428854,0.9064496785718783,-0.5161161597324493,0,True
2022-04-23,0.9064496785718783,0.9064496785718783,0.0,0,False
2022-04-24,0.9064496785718783,0.9064496785718783,0.0,0,False
2022-04-25,0.9064496785718783,0.9012002547721462,-0.579119163901376,3,True
2022-04-26,0.9012002547721462,0.904745353548728,0.39337525237141957,2,True
2022-04-27,0.904745353548728,0.9034528651372709,-0.1428565956583805,0,True
2022-04-28,0.9034528651372709,0.9034528651372709,0.0,0,False
2022-04-29,0.9034528651372709,0.9034528651372709,0.0,0,False
2022-04-30,0.9034528651372709,0.9008687727978247,-0.28602403502848706,1,True
2022-05-01,0.9008687727978247,0.9065484107489213,0.630462296240708,6,True
2022-05-02,0.9065484107489213,0.9160623028277606,1.0494632129992576,0,True
2022-05-03,0.9160623028277606,0.9173072024817318,0.13589683257659857,3,True
2022-05-04,0.9173072024817318,0.9100153686107733,-0.7949173244503949,1,True
2022-05-05,0.9100153686107733,0.9100153686107733,0.0,0,False
2022-05-06,0.9100153686107733,0.898325224387278,-1.2846095381159772,4,True
2022-05-07,0.898325224387278,0.8943421876724433,-0.4433847126525281,2,True
2022-05-08,0.8943421876724433,0.8829976866673276,-1.2684743224112283,3,True
2022-05-09,0.8829976866673276,0.873525822224162,-1.072694140220798,3,True
2022-05-10,0.873525822224162,0.8600194588246518,-1.5461893690927653,7,True
2022-05-11,0.8600194588246518,0.8338718808463244,-3.0403472514519803,8,True
2022-05-12,0.8338718808463244,0.8248928438481199,-1.0767885576248637,0,True
2022-05-13,0.8248928438481199,0.8248928438481199,0.0,0,False
2022-05-14,0.8248928438481199,0.8147554549620564,-1.2289340320583597,4,True
2022-05-15,0.8147554549620564,0.8379481864582969,2.846588059643085,1,True
2022-05-16,0.8379481864582969,0.8373012150532603,-0.07720899877725618,8,True
2022-05-17,0.8373012150532603,0.8506284303168334,1.5916870803448502,4,True
2022-05-18,0.8506284303168334,0.8353265490053016,-1.7988913568092735,0,True
2022-05-19,0.8353265490053016,0.8511077361957687,1.88922370649649,6,True
2022-05-20,0.8511077361957687,0.858428261300239,0.8601173262965611,0,True
2022-05-21,0.858428261300239,0.858428261300239,0.0,0,False
2022-05-22,0.858428261300239,0.858428261300239,0.0,0,False
2022-05-23,0.858428261300239,0.8586536334604021,0.026254047114182555,1,True
2022-05-24,0.8586536334604021,0.8452526756065162,-1.5606942463959106,7,True
2022-05-25,0.8452526756065162,0.8410526003983178,-0.49690173476051314,1,True
2022-05-26,0.8410526003983178,0.8237146925209811,-2.061453453580142,8,True
2022-05-27,0.8237146925209811,0.8152218188408176,-1.0310455497850923,2,True
2022-05-28,0.8152218188408176,0.8162391555197448,0.12479262151912085,0,True
2022-05-29,0.8162391555197448,0.8121687637436463,-0.49867636814195926,1,True
2022-05-30,0.8121687637436463,0.8121687637436463,0.0,0,False
2022-05-31,0.8121687637436463,0.810182815027053,-0.24452414390319088,1,True
2022-06-01,0.810182815027053,0.814462546510475,0.5282426884454461,1,True
2022-06-02,0.814462546510475,0.815527729983775,0.13078360421405755,1,True
2022-06-03,0.815527729983775,0.8168771242022421,0.16546270210751057,0,True
2022-06-04,0.8168771242022421,0.8168771242022421,0.0,0,False
2022-06-05,0.8168771242022421,0.8168771242022421,0.0,0,False
2022-06-06,0.8168771242022421,0.8186239911354811,0.21384696443116358,1,True
2022-06-07,0.8186239911354811,0.8156334989426409,-0.36530717707066174,4,True
2022-06-08,0.8156334989426409,0.8277542494048026,1.4860535372657635,3,True
2022-06-09,0.8277542494048026,0.826357601858578,-0.16872731819000952,2,True
2022-06-10,0.826357601858578,0.8233520036769925,-0.36371640737926647,4,True
2022-06-11,0.8233520036769925,0.798232196615575,-3.050919527642537,3,True
2022-06-12,0.798232196615575,0.787352554794347,-1.3629670498579993,7,True
2022-06-13,0.787352554794347,0.7582849291118117,-3.6918182973480818,4,True
2022-06-14,0.7582849291118117,0.7679062667997146,1.2688288159930172,4,True
2022-06-15,0.7679062667997146,0.7679558692310405,0.006459438276573692,4,True
2022-06-16,0.7679558692310405,0.7914682528825155,3.061684218263494,1,True
2022-06-17,0.7914682528825155,0.7914682528825155,0.0,0,False
2022-06-18,0.7914682528825155,0.7864796414280344,-0.6302983646296223,5,True
2022-06-19,0.7864796414280344,0.7902754104805185,0.4826277569743631,1,True
2022-06-20,0.7902754104805185,0.7902754104805185,0.0,0,False
2022-06-21,0.7902754104805185,0.7902754104805185,0.0,0,False
2022-06-22,0.7902754104805185,0.7902754104805185,0.0,0,False
2022-06-23,0.7902754104805185,0.7902754104805185,0.0,0,False
2022-06-24,0.7902754104805185,0.7863321572024279,-0.49897203250863775,1,True
2022-06-25,0.7863321572024279,0.7852402185165036,-0.13886481379690174,3,True
2022-06-26,0.7852402185165036,0.7892127506753777,0.5059002411235358,0,True
2022-06-27,0.7892127506753777,0.786049476646244,-0.40081385233913247,4,True
2022-06-28,0.786049476646244,0.7826838325225481,-0.42817204561419464,1,True
2022-06-29,0.7826838325225481,0.7800975848955248,-0.3304332502548246,2,True
2022-06-30,0.7800975848955248,0.7803886896431314,0.03731645286986218,1,True
2022-07-01,0.7803886896431314,0.7801766544193286,-0.02717046346477625,1,True
2022-07-02,0.7801766544193286,0.7788380307278666,-0.17157956263870178,1,True
2022-07-03,0.7788380307278666,0.7799253713428382,0.13961062147356262,1,True
2022-07-04,0.7799253713428382,0.7828831844985137,0.37924309996260064,0,True
2022-07-05,0.7828831844985137,0.7828831844985137,0.0,0,False
2022-07-06,0.7828831844985137,0.7828831844985137,0.0,0,False
2022-07-07,0.7828831844985137,0.7828831844985137,0.0,0,False
2022-07-08,0.7828831844985137,0.7828831844985137,0.0,0,False
2022-07-09,0.7828831844985137,0.7828831844985137,0.0,0,False
2022-07-10,0.7828831844985137,0.7828831844985137,0.0,0,False
2022-07-11,0.7828831844985137,0.7789738723492193,-0.499348079854145,1,True
2022-07-12,0.7789738723492193,0.7801952891210775,0.15679816938849456,2,True
2022-07-13,0.7801952891210775,0.7832849057571318,0.3960055487562508,4,True
2022-07-14,0.7832849057571318,0.7896241260623146,0.8093122002721609,0,True
2022-07-15,0.7896241260623146,0.7896241260623146,0.0,0,False
2022-07-16,0.7896241260623146,0.7896241260623146,0.0,0,False
2022-07-17,0.7896241260623146,0.7896241260623146,0.0,0,False
2022-07-18,0.7896241260623146,0.7896241260623146,0.0,0,False
2022-07-19,0.7896241260623146,0.7896241260623146,0.0,0,False
2022-07-20,0.7896241260623146,0.7897178697608352,0.01187193949963028,1,True
2022-07-21,0.7897178697608352,0.7839913680768228,-0.7251325952326138,5,True
2022-07-22,0.7839913680768228,0.788252978847933,0.5435787872976494,0,True
2022-07-23,0.788252978847933,0.7869675972652864,-0.163067139248263,1,True
2022-07-24,0.7869675972652864,0.7909616074981215,0.5075190194252288,1,True
2022-07-25,0.7909616074981215,0.7916835298134886,0.0912714736750031,1,True
2022-07-26,0.7916835298134886,0.7890719203566867,-0.3298804836090352,1,True
2022-07-27,0.7890719203566867,0.7905596399594075,0.18854043140303922,0,True
2022-07-28,0.7905596399594075,0.7905596399594075,0.0,0,False
2022-07-29,0.7905596399594075,0.7905596399594075,0.0,0,False
2022-07-30,0.7905596399594075,0.7905596399594075,0.0,0,False
2022-07-31,0.7905596399594075,0.789796075542186,-0.09658530218678019,1,True
2022-08-01,0.789796075542186,0.7897520163351155,-0.005578554823826298,1,True
2022-08-02,0.7897520163351155,0.788562972633252,-0.1505591220116509,1,True
2022-08-03,0.788562972633252,0.7911549393989922,0.32869496231666684,1,True
2022-08-04,0.7911549393989922,0.7890389407232264,-0.267456925361953,0,True
2022-08-05,0.7890389407232264,0.7907619974689376,0.21837410763678733,1,True
2022-08-06,0.7907619974689376,0.7906417921263467,-0.015201203772530203,0,True
2022-08-07,0.7906417921263467,0.7915311600052305,0.11248682876880967,2,True
2022-08-08,0.7915311600052305,0.792076443803177,0.0688897450282111,0,True
2022-08-09,0.792076443803177,0.7914023774238519,-0.08510117736724165,5,True
2022-08-10,0.7914023774238519,0.8072171347110098,1.9983206695230793,1,True
2022-08-11,0.8072171347110098,0.8095504148107276,0.2890523502766307,1,True
2022-08-12,0.8095504148107276,0.8081904775104629,-0.1679867337950447,1,True
2022-08-13,0.8081904775104629,0.8082892126614795,0.012216816921761797,0,True
2022-08-14,0.8082892126614795,0.8082892126614795,0.0,0,False
2022-08-15,0.8082892126614795,0.8082892126614795,0.0,0,False
2022-08-16,0.8082892126614795,0.807770697465212,-0.06414971128466673,1,True
2022-08-17,0.807770697465212,0.8051643849802558,-0.3226549927021205,1,True
2022-08-18,0.8051643849802558,0.8012869067355696,-0.48157597591469425,1,True
2022-08-19,0.8012869067355696,0.7839471879408645,-2.1639837926900385,10,True
2022-08-20,0.7839471879408645,0.7881271997781323,0.5332006927975641,1,True
2022-08-21,0.7881271997781323,0.79221293917297,0.5184111645921918,0,True
2022-08-22,0.79221293917297,0.79221293917297,0.0,0,False
2022-08-23,0.79221293917297,0.79221293917297,0.0,0,False
2022-08-24,0.79221293917297,0.79221293917297,0.0,0,False
2022-08-25,0.79221293917297,0.790794938137911,-0.17899241036624103,1,True
2022-08-26,0.790794938137911,0.7895532991721749,-0.1570114963886593,0,True
2022-08-27,0.7895532991721749,0.7904767098302625,0.11695355577081568,3,True
2022-08-28,0.7904767098302625,0.7904095979052779,-0.008490057221177683,0,True
2022-08-29,0.7904095979052779,0.7904488227661389,0.004962599260571743,1,True
2022-08-30,0.7904488227661389,0.7880428037096687,-0.30438644314131347,1,True
2022-08-31,0.7880428037096687,0.7880428037096687,0.0,0,False
2022-09-01,0.7880428037096687,0.7880428037096687,0.0,0,False
2022-09-02,0.7880428037096687,0.7880428037096687,0.0,0,False
2022-09-03,0.7880428037096687,0.7880428037096687,0.0,0,False
2022-09-04,0.7880428037096687,0.7880428037096687,0.0,0,False
2022-09-05,0.7880428037096687,0.7880428037096687,0.0,0,False
2022-09-06,0.7880428037096687,0.7864090116169353,-0.2073227602666261,1,True
2022-09-07,0.7864090116169353,0.7781192058243231,-1.054134129969786,5,True
2022-09-08,0.7781192058243231,0.7786933645424177,0.07378801522914813,0,True
2022-09-09,0.7786933645424177,0.7786933645424177,0.0,0,False
2022-09-10,0.7786933645424177,0.7786933645424177,0.0,0,False
2022-09-11,0.7786933645424177,0.7786933645424177,0.0,0,False
2022-09-12,0.7786933645424177,0.7786933645424177,0.0,0,False
2022-09-13,0.7786933645424177,0.7737854415533971,-0.6302767189886871,4,True
2022-09-14,0.7737854415533971,0.7724263283211333,-0.17564471483662025,0,True
2022-09-15,0.7724263283211333,0.7737116719810139,0.1664033983246327,1,True
2022-09-16,0.7737116719810139,0.7664007149561746,-0.9449200896918475,1,True
2022-09-17,0.7664007149561746,0.7658153658138364,-0.07637638260445945,1,True
2022-09-18,0.7658153658138364,0.7668928511942444,0.1406978011289972,0,True
2022-09-19,0.7668928511942444,0.7695499793568966,0.34647971467127725,8,True
2022-09-20,0.7695499793568966,0.7716957163964675,0.27883010813203324,0,True
2022-09-21,0.7716957163964675,0.7716957163964675,0.0,0,False
2022-09-22,0.7716957163964675,0.7725919600238953,0.11613951048126125,1,True
2022-09-23,0.7725919600238953,0.7729384634478277,0.044849473183972144,0,True
2022-09-24,0.7729384634478277,0.7729384634478277,0.0,0,False
2022-09-25,0.7729384634478277,0.7729384634478277,0.0,0,False
2022-09-26,0.7729384634478277,0.7729384634478277,0.0,0,False
2022-09-27,0.7729384634478277,0.7729384634478277,0.0,0,False
2022-09-28,0.7729384634478277,0.7729384634478277,0.0,0,False
2022-09-29,0.7729384634478277,0.7729384634478277,0.0,0,False
2022-09-30,0.7729384634478277,0.7729384634478277,0.0,0,False
2022-10-01,0.7729384634478277,0.7729384634478277,0.0,0,False
2022-10-02,0.7729384634478277,0.7729384634478277,0.0,0,False
2022-10-03,0.7729384634478277,0.7729384634478277,0.0,0,False
2022-10-04,0.7729384634478277,0.7729384634478277,0.0,0,False
2022-10-05,0.7729384634478277,0.7729384634478277,0.0,0,False
2022-10-06,0.7729384634478277,0.7729384634478277,0.0,0,False
2022-10-07,0.7729384634478277,0.7729384634478277,0.0,0,False
2022-10-08,0.7729384634478277,0.771353989504495,-0.2049935432459793,1,True
2022-10-09,0.771353989504495,0.7703908589571297,-0.12486232786376172,0,True
2022-10-10,0.7703908589571297,0.7703908589571297,0.0,0,False
2022-10-11,0.7703908589571297,0.7921033715584875,2.81837619812233,5,True
2022-10-12,0.7921033715584875,0.7924202294358237,0.04000208668633043,2,True
2022-10-13,0.7924202294358237,0.7922912516333812,-0.01627643990541605,1,True
2022-10-14,0.7922912516333812,0.796636349674846,0.5484218123710027,0,True
2022-10-15,0.796636349674846,0.796636349674846,0.0,0,False
2022-10-16,0.796636349674846,0.796636349674846,0.0,0,False
2022-10-17,0.796636349674846,0.796636349674846,0.0,0,False
2022-10-18,0.796636349674846,0.796636349674846,0.0,0,False
2022-10-19,0.796636349674846,0.796636349674846,0.0,0,False
2022-10-20,0.796636349674846,0.8003247868814266,0.46300136920516266,2,True
2022-10-21,0.8003247868814266,0.7949072819052412,-0.6769133063209809,0,True
2022-10-22,0.7949072819052412,0.7949072819052412,0.0,0,False
2022-10-23,0.7949072819052412,0.7949072819052412,0.0,0,False
2022-10-24,0.7949072819052412,0.7949072819052412,0.0,0,False
2022-10-25,0.7949072819052412,0.7944262562054972,-0.060513434798459276,1,True
2022-10-26,0.7944262562054972,0.7956543237448168,0.1545854671502589,0,True
2022-10-27,0.7956543237448168,0.7956543237448168,0.0,0,False
2022-10-28,0.7956543237448168,0.7956543237448168,0.0,0,False
2022-10-29,0.7956543237448168,0.7956543237448168,0.0,0,False
2022-10-30,0.7956543237448168,0.7956543237448168,0.0,0,False
2022-10-31,0.7956543237448168,0.7956543237448168,0.0,0,False
2022-11-01,0.7956543237448168,0.7956543237448168,0.0,0,False
2022-11-02,0.7956543237448168,0.7991823845670827,0.4434162822946508,2,True
2022-11-03,0.7991823845670827,0.7994678862879314,0.03572422595417013,0,True
2022-11-04,0.7994678862879314,0.7998411311512748,0.04668666118365916,2,True
2022-11-05,0.7998411311512748,0.7983502939335648,-0.18639166700067378,0,True
2022-11-06,0.7983502939335648,0.798678084452568,0.041058482910827365,1,True
2022-11-07,0.798678084452568,0.8009569061363547,0.2853241785579552,3,True
2022-11-08,0.8009569061363547,0.7834507601131664,-2.185653920837549,8,True
2022-11-09,0.7834507601131664,0.7561091589186177,-3.4898940158790914,6,True
2022-11-10,0.7561091589186177,0.7561091589186177,0.0,0,False
2022-11-11,0.7561091589186177,0.7499274571918481,-0.8175673649570281,7,True
2022-11-12,0.7499274571918481,0.7474159657134334,-0.3348979230363369,5,True
2022-11-13,0.7474159657134334,0.750832123848145,0.45706250487314026,1,True
2022-11-14,0.750832123848145,0.748347313014688,-0.3309409326710644,2,True
2022-11-15,0.748347313014688,0.7490817450426429,0.09814053116543597,0,True
2022-11-16,0.7490817450426429,0.7487272548765065,-0.047323295285517375,1,True
2022-11-17,0.7487272548765065,0.7499145979118182,0.15858151651064745,1,True
2022-11-18,0.7499145979118182,0.7516243538130175,0.22799341497821146,0,True
2022-11-19,0.7516243538130175,0.7515667861153505,-0.007659104893942281,3,True
2022-11-20,0.7515667861153505,0.7411207804832882,-1.3898971887854383,2,True
2022-11-21,0.7411207804832882,0.7263507714346558,-1.9929287421951436,4,True
2022-11-22,0.7263507714346558,0.7233751395050396,-0.40966872296959167,0,True
2022-11-23,0.7233751395050396,0.7301926423904352,0.9424574488501758,1,True
2022-11-24,0.7301926423904352,0.7283376830776771,-0.25403697669228453,1,True
2022-11-25,0.7283376830776771,0.7270792797722674,-0.1727774540089988,1,True
2022-11-26,0.7270792797722674,0.7280845152112407,0.13825664778788216,0,True
2022-11-27,0.7280845152112407,0.7280845152112407,0.0,0,False
2022-11-28,0.7280845152112407,0.7289556955003029,0.11965373124429579,4,True
2022-11-29,0.7289556955003029,0.7318290195966508,0.3941699219972339,0,True
2022-11-30,0.7318290195966508,0.7318290195966508,0.0,0,False
2022-12-01,0.7318290195966508,0.7318290195966508,0.0,0,False
2022-12-02,0.7318290195966508,0.7318290195966508,0.0,0,False
2022-12-03,0.7318290195966508,0.7318290195966508,0.0,0,False
2022-12-04,0.7318290195966508,0.7318290195966508,0.0,0,False
2022-12-05,0.7318290195966508,0.7318290195966508,0.0,0,False
2022-12-06,0.7318290195966508,0.7327900952528092,0.1313251634498025,2,True
2022-12-07,0.7327900952528092,0.7291511233636923,-0.4965913039342573,1,True
2022-12-08,0.7291511233636923,0.7271183654489719,-0.27878417101558917,1,True
2022-12-09,0.7271183654489719,0.7271183654489719,0.0,0,False
2022-12-10,0.7271183654489719,0.7271183654489719,0.0,0,False
2022-12-11,0.7271183654489719,0.7271183654489719,0.0,0,False
2022-12-12,0.7271183654489719,0.7267372224447066,-0.05241828873762122,1,True
2022-12-13,0.7267372224447066,0.7267014082494833,-0.004928080483190822,0,True
2022-12-14,0.7267014082494833,0.7267014082494833,0.0,0,False
2022-12-15,0.7267014082494833,0.7267014082494833,0.0,0,False
2022-12-16,0.7267014082494833,0.72793867638927,0.17025811781032907,5,True
2022-12-17,0.72793867638927,0.715794409587229,-1.6683090479927776,5,True
2022-12-18,0.715794409587229,0.7163433635627765,0.07669157067937693,0,True
2022-12-19,0.7163433635627765,0.7163433635627765,0.0,0,False
2022-12-20,0.7163433635627765,0.7163433635627765,0.0,0,False
2022-12-21,0.7163433635627765,0.7163433635627765,0.0,0,False
2022-12-22,0.7163433635627765,0.7163433635627765,0.0,0,False
2022-12-23,0.7163433635627765,0.7163433635627765,0.0,0,False
2022-12-24,0.7163433635627765,0.7163433635627765,0.0,0,False
2022-12-25,0.7163433635627765,0.7163433635627765,0.0,0,False
2022-12-26,0.7163433635627765,0.7163433635627765,0.0,0,False
2022-12-27,0.7163433635627765,0.7163433635627765,0.0,0,False
2022-12-28,0.7163433635627765,0.7177880149235517,0.20167023724351196,4,True
2022-12-29,0.7177880149235517,0.7127298010174098,-0.7046946732149895,0,True
2022-12-30,0.7127298010174098,0.7127298010174098,0.0,0,False
2022-12-31,0.7127298010174098,0.7127298010174098,0.0,0,False
2023-01-01,0.7127298010174098,0.7127298010174098,0.0,0,False
2023-01-02,0.7127298010174098,0.7127298010174098,0.0,0,False
2023-01-03,0.7127298010174098,0.7127298010174098,0.0,0,False
2023-01-04,0.7127298010174098,0.7127298010174098,0.0,0,False
2023-01-05,0.7127298010174098,0.7127298010174098,0.0,0,False
2023-01-06,0.7127298010174098,0.7121375252414107,-0.08309962276779048,1,True
2023-01-07,0.7121375252414107,0.7133764700324752,0.17397549590500994,0,True
2023-01-08,0.7133764700324752,0.7133764700324752,0.0,0,False
2023-01-09,0.7133764700324752,0.7133764700324752,0.0,0,False
2023-01-10,0.7133764700324752,0.7133403992049482,-0.00505635229675061,1,True
2023-01-11,0.7133403992049482,0.7100072399128873,-0.4672606929000289,1,True
2023-01-12,0.7100072399128873,0.7106531813321608,0.09097673699112185,0,True
2023-01-13,0.7106531813321608,0.7106531813321608,0.0,0,False
2023-01-14,0.7106531813321608,0.7126356142534913,0.2789592692196585,4,True
2023-01-15,0.7126356142534913,0.7145575459499179,0.2696934671781559,1,True
2023-01-16,0.7145575459499179,0.7145561370066597,-0.0001971770176245613,0,True
2023-01-17,0.7145561370066597,0.7145561370066597,0.0,0,False
2023-01-18,0.7145561370066597,0.7145561370066597,0.0,0,False
2023-01-19,0.7145561370066597,0.707475181280022,-0.9909586329074793,5,True
2023-01-20,0.707475181280022,0.7074713471929297,-0.0005419394480177253,0,True
2023-01-21,0.7074713471929297,0.7081755837991748,0.09954277428185776,1,True
2023-01-22,0.7081755837991748,0.7080887927089754,-0.012255589176590753,0,True
2023-01-23,0.7080887927089754,0.7080887927089754,0.0,0,False
2023-01-24,0.7080887927089754,0.7080887927089754,0.0,0,False
2023-01-25,0.7080887927089754,0.7129290239278618,0.6835627492943308,6,True
2023-01-26,0.7129290239278618,0.724615157098337,1.6391720323140735,0,True
2023-01-27,0.724615157098337,0.724615157098337,0.0,0,False
2023-01-28,0.724615157098337,0.724615157098337,0.0,0,False
2023-01-29,0.724615157098337,0.724615157098337,0.0,0,False
2023-01-30,0.724615157098337,0.7274943187453209,0.3973366577802784,4,True
2023-01-31,0.7274943187453209,0.7386662585637792,1.5356738232301437,2,True
2023-02-01,0.7386662585637792,0.7405617304130213,0.2566073415790626,0,True
2023-02-02,0.7405617304130213,0.7405617304130213,0.0,0,False
2023-02-03,0.7405617304130213,0.7409895767152483,0.057773212502953974,1,True
2023-02-04,0.7409895767152483,0.7424864040224459,0.20200382761561553,0,True
2023-02-05,0.7424864040224459,0.7447307122468835,0.30226926880800864,5,True
2023-02-06,0.7447307122468835,0.7370389895267847,-1.032819325644907,0,True
2023-02-07,0.7370389895267847,0.7370389895267847,0.0,0,False
2023-02-08,0.7370389895267847,0.7353057158878796,-0.23516715717005754,1,True
2023-02-09,0.7353057158878796,0.7401512878165579,0.658987387691834,4,True
2023-02-10,0.7401512878165579,0.7080182345115837,-4.3414169283912845,3,True
2023-02-11,0.7080182345115837,0.7080182345115837,0.0,0,False
2023-02-12,0.7080182345115837,0.7080182345115837,0.0,0,False
2023-02-13,0.7080182345115837,0.708343447612385,0.04593287078624719,2,True
2023-02-14,0.708343447612385,0.708017849743181,-0.045966101656114144,0,True
2023-02-15,0.708017849743181,0.708017849743181,0.0,0,False
2023-02-16,0.708017849743181,0.708017849743181,0.0,0,False
2023-02-17,0.708017849743181,0.7146948781077576,0.9430593263995313,1,True
2023-02-18,0.7146948781077576,0.7146948781077576,0.0,0,False
2023-02-19,0.7146948781077576,0.7146948781077576,0.0,0,False
2023-02-20,0.7146948781077576,0.7213504002194583,0.9312396542314749,1,True
2023-02-21,0.7213504002194583,0.7177488530041837,-0.4992784663568339,1,True
2023-02-22,0.7177488530041837,0.7177488530041837,0.0,0,False
2023-02-23,0.7177488530041837,0.7245156376851674,0.9427788916221758,1,True
2023-02-24,0.7245156376851674,0.7245156376851674,0.0,0,False
2023-02-25,0.7245156376851674,0.7241950902309122,-0.044243000093036056,1,True
2023-02-26,0.7241950902309122,0.7248255332571547,0.08705430825848293,0,True
2023-02-27,0.7248255332571547,0.7248255332571547,0.0,0,False
2023-02-28,0.7248255332571547,0.7248255332571547,0.0,0,False
2023-03-01,0.7248255332571547,0.7248255332571547,0.0,0,False
2023-03-02,0.7248255332571547,0.7223131187725126,-0.34662334166845055,1,True
2023-03-03,0.7223131187725126,0.714793805864389,-1.0410046159623598,9,True
2023-03-04,0.714793805864389,0.7166559906173998,0.26052054980512107,0,True
2023-03-05,0.7166559906173998,0.7221664159535072,0.7689080128054249,3,True
2023-03-06,0.7221664159535072,0.7209039920208347,-0.17481066756692698,0,True
2023-03-07,0.7209039920208347,0.7209039920208347,0.0,0,False
2023-03-08,0.7209039920208347,0.7209039920208347,0.0,0,False
2023-03-09,0.7209039920208347,0.7209039920208347,0.0,0,False
2023-03-10,0.7209039920208347,0.7044082081147816,-2.288208150965043,7,True
2023-03-11,0.7044082081147816,0.7010400462867449,-0.47815482404029996,5,True
2023-03-12,0.7010400462867449,0.7071580948021682,0.8727102749449545,0,True
2023-03-13,0.7071580948021682,0.7071580948021682,0.0,0,False
2023-03-14,0.7071580948021682,0.7071580948021682,0.0,0,False
2023-03-15,0.7071580948021682,0.7036242165760461,-0.4997295869335505,1,True
2023-03-16,0.7036242165760461,0.7042148943304793,0.08394790010319841,1,True
2023-03-17,0.7042148943304793,0.704293058800673,0.011099519595925145,1,True
2023-03-18,0.704293058800673,0.7114294813109955,1.0132745767046147,1,True
2023-03-19,0.7114294813109955,0.7086535585857175,-0.3901894422708718,1,True
2023-03-20,0.7086535585857175,0.7086389419454519,-0.0020625932218409915,0,True
2023-03-21,0.7086389419454519,0.7086389419454519,0.0,0,False
2023-03-22,0.7086389419454519,0.7086389419454519,0.0,0,False
2023-03-23,0.7086389419454519,0.7209330226452964,1.7348864100091843,6,True
2023-03-24,0.7209330226452964,0.7187690764075428,-0.30015912293952507,1,True
2023-03-25,0.7187690764075428,0.7158531564362969,-0.4056824461369346,1,True
2023-03-26,0.7158531564362969,0.7151792416723367,-0.09414148109859743,0,True
2023-03-27,0.7151792416723367,0.7116107702594738,-0.4989618273201768,1,True
2023-03-28,0.7116107702594738,0.7230850252895559,1.6124341437241396,4,True
2023-03-29,0.7230850252895559,0.7231852642950725,0.013862685854459933,0,True
2023-03-30,0.7231852642950725,0.7231852642950725,0.0,0,False
2023-03-31,0.7231852642950725,0.7231852642950725,0.0,0,False
2023-04-01,0.7231852642950725,0.7231852642950725,0.0,0,False
2023-04-02,0.7231852642950725,0.7231852642950725,0.0,0,False
2023-04-03,0.7231852642950725,0.7231852642950725,0.0,0,False
2023-04-04,0.7231852642950725,0.7231852642950725,0.0,0,False
2023-04-05,0.7231852642950725,0.7231852642950725,0.0,0,False
2023-04-06,0.7231852642950725,0.7231852642950725,0.0,0,False
2023-04-07,0.7231852642950725,0.7213091295112279,-0.2594265780115568,1,True
2023-04-08,0.7213091295112279,0.7208647015603883,-0.06161407538828323,0,True
2023-04-09,0.7208647015603883,0.7208647015603883,0.0,0,False
2023-04-10,0.7208647015603883,0.7208647015603883,0.0,0,False
2023-04-11,0.7208647015603883,0.7208647015603883,0.0,0,False
2023-04-12,0.7208647015603883,0.7237014776888288,0.3935240721733235,1,True
2023-04-13,0.7237014776888288,0.7239645713652016,0.036353895146534754,0,True
2023-04-14,0.7239645713652016,0.7280825161753037,0.5688047416929187,1,True
2023-04-15,0.7280825161753037,0.7276461316100052,-0.0599361412482291,0,True
2023-04-16,0.7276461316100052,0.7276461316100052,0.0,0,False
2023-04-17,0.7276461316100052,0.7276461316100052,0.0,0,False
2023-04-18,0.7276461316100052,0.7276461316100052,0.0,0,False
2023-04-19,0.7276461316100052,0.7225597934425172,-0.6990126033150079,7,True
2023-04-20,0.7225597934425172,0.7155793458379901,-0.9660719663448059,0,True
2023-04-21,0.7155793458379901,0.7155793458379901,0.0,0,False
2023-04-22,0.7155793458379901,0.7155793458379901,0.0,0,False
2023-04-23,0.7155793458379901,0.7155793458379901,0.0,0,False
2023-04-24,0.7155793458379901,0.7155793458379901,0.0,0,False
2023-04-25,0.7155793458379901,0.7155793458379901,0.0,0,False
2023-04-26,0.7155793458379901,0.7155793458379901,0.0,0,False
2023-04-27,0.7155793458379901,0.7151250099102198,-0.06349204045824619,8,True
2023-04-28,0.7151250099102198,0.7201892973940374,0.708168140344223,0,True
2023-04-29,0.7201892973940374,0.7201892973940374,0.0,0,False
2023-04-30,0.7201892973940374,0.7201892973940374,0.0,0,False
2023-05-01,0.7201892973940374,0.7201892973940374,0.0,0,False
2023-05-02,0.7201892973940374,0.7201892973940374,0.0,0,False
2023-05-03,0.7201892973940374,0.7201892973940374,0.0,0,False
2023-05-04,0.7201892973940374,0.7201892973940374,0.0,0,False
2023-05-05,0.7201892973940374,0.7201892973940374,0.0,0,False
2023-05-06,0.7201892973940374,0.7165980383038386,-0.4986548818752934,1,True
2023-05-07,0.7165980383038386,0.7165980383038386,0.0,0,False
2023-05-08,0.7165980383038386,0.7282757748900613,1.6296076687376315,5,True
2023-05-09,0.7282757748900613,0.7147665236389474,-1.8549636987655216,6,True
2023-05-10,0.7147665236389474,0.7097461430369082,-0.7023804887335783,1,True
2023-05-11,0.7097461430369082,0.7056970490960067,-0.5704989002935479,5,True
2023-05-12,0.7056970490960067,0.703076187387926,-0.3713862359829956,0,True
2023-05-13,0.703076187387926,0.703076187387926,0.0,0,False
2023-05-14,0.703076187387926,0.703076187387926,0.0,0,False
2023-05-15,0.703076187387926,0.703076187387926,0.0,0,False
2023-05-16,0.703076187387926,0.703076187387926,0.0,0,False
2023-05-17,0.703076187387926,0.703076187387926,0.0,0,False
2023-05-18,0.703076187387926,0.7014134383751606,-0.23649627772814874,1,True
2023-05-19,0.7014134383751606,0.6995620595321358,-0.26394972518826165,0,True
2023-05-20,0.6995620595321358,0.6995620595321358,0.0,0,False
2023-05-21,0.6995620595321358,0.6995620595321358,0.0,0,False
2023-05-22,0.6995620595321358,0.6995620595321358,0.0,0,False
2023-05-23,0.6995620595321358,0.6995620595321358,0.0,0,False
2023-05-24,0.6995620595321358,0.6995620595321358,0.0,0,False
2023-05-25,0.6995620595321358,0.6995620595321358,0.0,0,False
2023-05-26,0.6995620595321358,0.7009618001960776,0.2000881329782045,1,True
2023-05-27,0.7009618001960776,0.7061527485382829,0.7405465377361864,0,True
2023-05-28,0.7061527485382829,0.7061527485382829,0.0,0,False
2023-05-29,0.7061527485382829,0.7061527485382829,0.0,0,False
2023-05-30,0.7061527485382829,0.708931797048244,0.39354778632720855,2,True
2023-05-31,0.708931797048244,0.7028087237190043,-0.8637041468212092,1,True
2023-06-01,0.7028087237190043,0.702480210289833,-0.04674293560741338,0,True
2023-06-02,0.702480210289833,0.702480210289833,0.0,0,False
2023-06-03,0.702480210289833,0.702480210289833,0.0,0,False
2023-06-04,0.702480210289833,0.6989690629351621,-0.49982153279765074,1,True
2023-06-05,0.6989690629351621,0.6989690629351621,0.0,0,False
2023-06-06,0.6989690629351621,0.6968559316610368,-0.3023211449805441,8,True
2023-06-07,0.6968559316610368,0.6968612677140372,0.000765732593777102,0,True
2023-06-08,0.6968612677140372,0.6968612677140372,0.0,0,False
2023-06-09,0.6968612677140372,0.6968612677140372,0.0,0,False
2023-06-10,0.6968612677140372,0.7029356669155524,0.8716798425949968,6,True
2023-06-11,0.7029356669155524,0.7039813618454864,0.148761114160334,1,True
2023-06-12,0.7039813618454864,0.7039764648697767,-0.0006956115566558729,0,True
2023-06-13,0.7039764648697767,0.7039764648697767,0.0,0,False
2023-06-14,0.7039764648697767,0.7039764648697767,0.0,0,False
2023-06-15,0.7039764648697767,0.7071756933257186,0.45445105278252296,4,True
2023-06-16,0.7071756933257186,0.7125661882015598,0.7622568092648496,0,True
2023-06-17,0.7125661882015598,0.7125661882015598,0.0,0,False
2023-06-18,0.7125661882015598,0.7125661882015598,0.0,0,False
2023-06-19,0.7125661882015598,0.7125661882015598,0.0,0,False
2023-06-20,0.7125661882015598,0.709009579465622,-0.499126789177895,1,True
2023-06-21,0.709009579465622,0.709009579465622,0.0,0,False
2023-06-22,0.709009579465622,0.709009579465622,0.0,0,False
2023-06-23,0.709009579465622,0.709009579465622,0.0,0,False
2023-06-24,0.709009579465622,0.709009579465622,0.0,0,False
2023-06-25,0.709009579465622,0.7082689134184892,-0.10446488574824553,3,True
2023-06-26,0.7082689134184892,0.7059821890665717,-0.3228610360548667,0,True
2023-06-27,0.7059821890665717,0.7059821890665717,0.0,0,False
2023-06-28,0.7059821890665717,0.7059821890665717,0.0,0,False
2023-06-29,0.7059821890665717,0.7037073413758815,-0.32222451584762446,2,True
2023-06-30,0.7037073413758815,0.6992592194798081,-0.6320982650794171,6,True
2023-07-01,0.6992592194798081,0.709327944659902,1.43991311084668,0,True
2023-07-02,0.709327944659902,0.709327944659902,0.0,0,False
2023-07-03,0.709327944659902,0.709327944659902,0.0,0,False
2023-07-04,0.709327944659902,0.709327944659902,0.0,0,False
2023-07-05,0.709327944659902,0.7098194522853598,0.06929201494993986,1,True
2023-07-06,0.7098194522853598,0.7100768012827713,0.03625555718189677,1,True
2023-07-07,0.7100768012827713,0.7095177932578808,-0.07872500888363998,0,True
2023-07-08,0.7095177932578808,0.7095177932578808,0.0,0,False
2023-07-09,0.7095177932578808,0.7095177932578808,0.0,0,False
2023-07-10,0.7095177932578808,0.7095177932578808,0.0,0,False
2023-07-11,0.7095177932578808,0.7095177932578808,0.0,0,False
2023-07-12,0.7095177932578808,0.7084655159430022,-0.14830879857808954,1,True
2023-07-13,0.7084655159430022,0.7080192419085093,-0.06299163818848097,0,True
2023-07-14,0.7080192419085093,0.7080192419085093,0.0,0,False
2023-07-15,0.7080192419085093,0.7147564663604654,0.9515595132408405,5,True
2023-07-16,0.7147564663604654,0.715679252026892,0.1291049063361971,1,True
2023-07-17,0.715679252026892,0.7165714289994312,0.12466156731698597,0,True
2023-07-18,0.7165714289994312,0.7165714289994312,0.0,0,False
2023-07-19,0.7165714289994312,0.7165714289994312,0.0,0,False
2023-07-20,0.7165714289994312,0.7165714289994312,0.0,0,False
2023-07-21,0.7165714289994312,0.7165714289994312,0.0,0,False
2023-07-22,0.7165714289994312,0.7165714289994312,0.0,0,False
2023-07-23,0.7165714289994312,0.7165714289994312,0.0,0,False
2023-07-24,0.7165714289994312,0.7164219385123795,-0.02086191006254179,2,True
2023-07-25,0.7164219385123795,0.7163636334642824,-0.00813836720551242,0,True
2023-07-26,0.7163636334642824,0.7163636334642824,0.0,0,False
2023-07-27,0.7163636334642824,0.7163636334642824,0.0,0,False
2023-07-28,0.7163636334642824,0.7163636334642824,0.0,0,False
2023-07-29,0.7163636334642824,0.7163636334642824,0.0,0,False
2023-07-30,0.7163636334642824,0.7163636334642824,0.0,0,False
2023-07-31,0.7163636334642824,0.7127904152492832,-0.4987994990364619,1,True
2023-08-01,0.7127904152492832,0.7094572707158986,-0.46761915733938286,2,True
2023-08-02,0.7094572707158986,0.7130026720686428,0.4997343038244617,0,True
2023-08-03,0.7130026720686428,0.7130026720686428,0.0,0,False
2023-08-04,0.7130026720686428,0.7130026720686428,0.0,0,False
2023-08-05,0.7130026720686428,0.7130026720686428,0.0,0,False
2023-08-06,0.7130026720686428,0.7130026720686428,0.0,0,False
2023-08-07,0.7130026720686428,0.7133109362033223,0.043234639469891256,1,True
2023-08-08,0.7133109362033223,0.7119594036976669,-0.1894731227379043,1,True
2023-08-09,0.7119594036976669,0.712055306783725,0.013470302598728168,0,True
2023-08-10,0.712055306783725,0.7089830980853975,-0.4314564710154789,1,True
2023-08-11,0.7089830980853975,0.70849669361123,-0.06860593369306667,0,True
2023-08-12,0.70849669361123,0.70849669361123,0.0,0,False
2023-08-13,0.70849669361123,0.7105203890225215,0.285632301398131,1,True
2023-08-14,0.7105203890225215,0.7099291452288994,-0.08321278358183193,0,True
2023-08-15,0.7099291452288994,0.7099291452288994,0.0,0,False
2023-08-16,0.7099291452288994,0.7087571206240835,-0.16509036326970428,6,True
2023-08-17,0.7087571206240835,0.7123470378423243,0.5065088044660326,4,True
2023-08-18,0.7123470378423243,0.729963681882067,2.4730423661341927,5,True
2023-08-19,0.729963681882067,0.7301790656564019,0.02950609457441633,0,True
2023-08-20,0.7301790656564019,0.7301790656564019,0.0,0,False
2023-08-21,0.7301790656564019,0.7301790656564019,0.0,0,False
2023-08-22,0.7301790656564019,0.7307815822434873,0.08251627791380223,1,True
2023-08-23,0.7307815822434873,0.7314588502262223,0.09267721015295827,0,True
2023-08-24,0.7314588502262223,0.7314588502262223,0.0,0,False
2023-08-25,0.7314588502262223,0.7177890647355386,-1.868838621127622,4,True
2023-08-26,0.7177890647355386,0.7197325855374376,0.270764894226283,0,True
2023-08-27,0.7197325855374376,0.7197325855374376,0.0,0,False
2023-08-28,0.7197325855374376,0.7178651811414309,-0.2594580867298357,1,True
2023-08-29,0.7178651811414309,0.7228579200033292,0.6954981231934942,1,True
2023-08-30,0.7228579200033292,0.7198146149874575,-0.4210101226887919,1,True
2023-08-31,0.7198146149874575,0.723563319974493,0.5207875623782332,1,True
2023-09-01,0.723563319974493,0.7222974742921723,-0.17494608244725818,0,True
2023-09-02,0.7222974742921723,0.7202769000549013,-0.2797426696322103,1,True
2023-09-03,0.7202769000549013,0.7220429593680991,0.245191719054616,0,True
2023-09-04,0.7220429593680991,0.720536877867163,-0.20858613485466027,2,True
2023-09-05,0.720536877867163,0.723116024312972,0.3579478754013765,0,True
2023-09-06,0.723116024312972,0.7230559704893006,-0.00830486694419763,2,True
2023-09-07,0.7230559704893006,0.7229251264025944,-0.018095983166788177,1,True
2023-09-08,0.7229251264025944,0.7222517330173842,-0.09314842721833694,1,True
2023-09-09,0.7222517330173842,0.7215107583145915,-0.10259230527520646,2,True
2023-09-10,0.7215107583145915,0.7139326204249398,-1.0503153005443577,3,True
2023-09-11,0.7139326204249398,0.7114179518809871,-0.35222771337383163,0,True
2023-09-12,0.7114179518809871,0.7114179518809871,0.0,0,False
2023-09-13,0.7114179518809871,0.7114179518809871,0.0,0,False
2023-09-14,0.7114179518809871,0.7123541154569755,0.1315912219410853,2,True
2023-09-15,0.7123541154569755,0.7209036670273987,1.2001828002269121,0,True
2023-09-16,0.7209036670273987,0.7181419390614042,-0.3830925118445183,2,True
2023-09-17,0.7181419390614042,0.7183454935917918,0.028344609793107267,1,True
2023-09-18,0.7183454935917918,0.7183454935917918,0.0,0,False
2023-09-19,0.7183454935917918,0.7183454935917918,0.0,0,False
2023-09-20,0.7183454935917918,0.7197070551836794,0.18954132851585204,1,True
2023-09-21,0.7197070551836794,0.7147552350712536,-0.6880327317566715,0,True
2023-09-22,0.7147552350712536,0.7214941305600775,0.9428256217181907,1,True
2023-09-23,0.7214941305600775,0.7214941305600775,0.0,0,False
2023-09-24,0.7214941305600775,0.7178927709802237,-0.499152997552188,1,True
2023-09-25,0.7178927709802237,0.7177733434258993,-0.01663584857686251,1,True
2023-09-26,0.7177733434258993,0.7178872698382387,0.01587219884702229,0,True
2023-09-27,0.7178872698382387,0.7178872698382387,0.0,0,False
2023-09-28,0.7178872698382387,0.7178872698382387,0.0,0,False
2023-09-29,0.7178872698382387,0.7143081974730208,-0.4985563215272548,1,True
2023-09-30,0.7143081974730208,0.7143081974730208,0.0,0,False
2023-10-01,0.7143081974730208,0.7139398982513468,-0.051560268099515305,1,True
2023-10-02,0.7139398982513468,0.7158605125993498,0.2690162509067173,0,True
2023-10-03,0.7158605125993498,0.7206053759395823,0.6628195377062385,2,True
2023-10-04,0.7206053759395823,0.7174808086412786,-0.43360310686408887,3,True
2023-10-05,0.7174808086412786,0.7119886811423758,-0.7654737844909665,0,True
2023-10-06,0.7119886811423758,0.7119886811423758,0.0,0,False
2023-10-07,0.7119886811423758,0.7101449593437599,-0.25895380747593677,1,True
2023-10-08,0.7101449593437599,0.7083930028035381,-0.24670407318538867,1,True
2023-10-09,0.7083930028035381,0.7071391925836534,-0.17699359182298258,1,True
2023-10-10,0.7071391925836534,0.7048907960970655,-0.31795670642621454,1,True
2023-10-11,0.7048907960970655,0.7047771902331578,-0.01611680341646604,0,True
2023-10-12,0.7047771902331578,0.7047771902331578,0.0,0,False
2023-10-13,0.7047771902331578,0.7047771902331578,0.0,0,False
2023-10-14,0.7047771902331578,0.7047771902331578,0.0,0,False
2023-10-15,0.7047771902331578,0.7047771902331578,0.0,0,False
2023-10-16,0.7047771902331578,0.7047771902331578,0.0,0,False
2023-10-17,0.7047771902331578,0.7047771902331578,0.0,0,False
2023-10-18,0.7047771902331578,0.7018424258397025,-0.41641024058743925,3,True
2023-10-19,0.7018424258397025,0.693954525168031,-1.1238848466925022,3,True
2023-10-20,0.693954525168031,0.6929498455354453,-0.1447760042118773,0,True
2023-10-21,0.6929498455354453,0.6933519770293526,0.058031832534233274,2,True
2023-10-22,0.6933519770293526,0.6928925891069381,-0.0662560918024302,0,True
2023-10-23,0.6928925891069381,0.6928925891069381,0.0,0,False
2023-10-24,0.6928925891069381,0.6916192278262233,-0.18377470054283807,1,True
2023-10-25,0.6916192278262233,0.6978238762370589,0.897119131626356,3,True
2023-10-26,0.6978238762370589,0.6943198493649559,-0.5021362827248077,1,True
2023-10-27,0.6943198493649559,0.6896523817029386,-0.672235953831124,5,True
2023-10-28,0.6896523817029386,0.6894149182097847,-0.03443234583886401,1,True
2023-10-29,0.6894149182097847,0.6904094700981717,0.14426027956713217,0,True
2023-10-30,0.6904094700981717,0.6904094700981717,0.0,0,False
2023-10-31,0.6904094700981717,0.6888453448770927,-0.22655037174628134,1,True
2023-11-01,0.6888453448770927,0.6872925608183159,-0.22541838604627218,1,True
2023-11-02,0.6872925608183159,0.6867889346029099,-0.07327683203880442,2,True
2023-11-03,0.6867889346029099,0.6849885278308804,-0.2621484827897702,0,True
2023-11-04,0.6849885278308804,0.6846887770882103,-0.04375996538500404,1,True
2023-11-05,0.6846887770882103,0.6905830110297164,0.8608632328650945,1,True
2023-11-06,0.6905830110297164,0.6837010356886656,-0.9965457057492966,2,True
2023-11-07,0.6837010356886656,0.6783036413869027,-0.7894377834788968,2,True
2023-11-08,0.6783036413869027,0.6792246608629178,0.13578277040233733,0,True
2023-11-09,0.6792246608629178,0.6792246608629178,0.0,0,False
2023-11-10,0.6792246608629178,0.6796065041646105,0.05621752620226239,6,True
2023-11-11,0.6796065041646105,0.6821129979517261,0.36881545008116134,0,True
2023-11-12,0.6821129979517261,0.6829863339428229,0.12803391721303292,1,True
2023-11-13,0.6829863339428229,0.6840215587273925,0.15157327945249932,1,True
2023-11-14,0.6840215587273925,0.6831471633406314,-0.12783155378726097,2,True
2023-11-15,0.6831471633406314,0.6795229482512453,-0.5305174761560227,1,True
2023-11-16,0.6795229482512453,0.6787384146094115,-0.11545359047148152,0,True
2023-11-17,0.6787384146094115,0.6789313066489713,0.028419201773144387,2,True
2023-11-18,0.6789313066489713,0.6774399165477285,-0.21966730457664285,3,True
2023-11-19,0.6774399165477285,0.6747889444912614,-0.391322092441293,2,True
2023-11-20,0.6747889444912614,0.6760336234530462,0.18445455752438278,0,True
2023-11-21,0.6760336234530462,0.679045187451841,0.4454754755262469,2,True
2023-11-22,0.679045187451841,0.6792250738094373,0.026491073189305325,4,True
2023-11-23,0.6792250738094373,0.6797650286952565,0.07949572338235011,2,True
2023-11-24,0.6797650286952565,0.6860864389596383,0.9299404937784361,1,True
2023-11-25,0.6860864389596383,0.684645641650439,-0.2100023010779939,2,True
2023-11-26,0.684645641650439,0.683267278250899,-0.20132508201137211,0,True
2023-11-27,0.683267278250899,0.683267278250899,0.0,0,False
2023-11-28,0.683267278250899,0.6833838704570513,0.01706392357188058,1,True
2023-11-29,0.6833838704570513,0.6853229995863052,0.28375400899598446,1,True
2023-11-30,0.6853229995863052,0.6853166973131765,-0.0009196062488059376,0,True
2023-12-01,0.6853166973131765,0.6853166973131765,0.0,0,False
2023-12-02,0.6853166973131765,0.6853166973131765,0.0,0,False
2023-12-03,0.6853166973131765,0.6859238320946716,0.08859185598066865,1,True
2023-12-04,0.6859238320946716,0.695398006585106,1.3812283590587837,5,True
2023-12-05,0.695398006585106,0.6966518936632534,0.18031214732767697,0,True
2023-12-06,0.6966518936632534,0.6936045291393402,-0.4374300208801585,1,True
2023-12-07,0.6936045291393402,0.6932964771450844,-0.04441320396769699,2,True
2023-12-08,0.6932964771450844,0.6941413238663996,0.12185937029338678,0,True
2023-12-09,0.6941413238663996,0.6941413238663996,0.0,0,False
2023-12-10,0.6941413238663996,0.6924206386102579,-0.24788687792817177,1,True
2023-12-11,0.6924206386102579,0.6931096493989242,0.09950754646035342,5,True
2023-12-12,0.6931096493989242,0.6989276262817139,0.8394020899629817,0,True
2023-12-13,0.6989276262817139,0.7002773871564442,0.19311883290562548,3,True
2023-12-14,0.7002773871564442,0.7053045384196603,0.7178799937592517,0,True
2023-12-15,0.7053045384196603,0.7053045384196603,0.0,0,False
2023-12-16,0.7053045384196603,0.7144761193507491,1.300371744613904,3,True
2023-12-17,0.7144761193507491,0.7068060098995829,-1.0735291556191018,2,True
2023-12-18,0.7068060098995829,0.7066553266707739,-0.021318894675270705,2,True
2023-12-19,0.7066553266707739,0.7179041439313492,1.591839307795384,1,True
2023-12-20,0.7179041439313492,0.7198368268652563,0.2692118370181573,0,True
2023-12-21,0.7198368268652563,0.7189556566148954,-0.12241249926018272,1,True
2023-12-22,0.7189556566148954,0.7172639805342027,-0.2352963030651578,0,True
2023-12-23,0.7172639805342027,0.7170979318325359,-0.023150291409190782,1,True
2023-12-24,0.7170979318325359,0.7168398005271679,-0.03599666013655023,1,True
2023-12-25,0.7168398005271679,0.7234836189433083,0.9268205268812446,1,True
2023-12-26,0.7234836189433083,0.7228593685692729,-0.08628396796973581,0,True
2023-12-27,0.7228593685692729,0.7189571242454581,-0.5398345091021439,7,True
2023-12-28,0.7189571242454581,0.7215184685752847,0.35625828626633105,1,True
2023-12-29,0.7215184685752847,0.7269741438312698,0.7561379914166277,0,True
2023-12-30,0.7269741438312698,0.7263522534571887,-0.08554504714619604,1,True
2023-12-31,0.7263522534571887,0.7268369197696778,0.06672606991748875,0,True
