day,start_equity,end_equity,return_pct,entries,active
2024-01-02,1.0,0.9989153035442373,-0.10846964557627015,1,True
2024-01-03,0.9989153035442373,0.989548024167323,-0.9377451064848441,8,True
2024-01-04,0.989548024167323,1.0089143172080213,1.9570847061207042,5,True
2024-01-05,1.0089143172080213,0.9914974641765378,-1.7262965481232628,4,True
2024-01-06,0.9914974641765378,0.9809143673648281,-1.0673851617461594,7,True
2024-01-07,0.9809143673648281,0.9791581021167578,-0.17904368683969718,3,True
2024-01-08,0.9791581021167578,0.9589229325954663,-2.066588580286144,4,True
2024-01-09,0.9589229325954663,0.9589229325954663,0.0,0,False
2024-01-10,0.9589229325954663,0.9514885159178496,-0.7752882348422308,4,True
2024-01-11,0.9514885159178496,0.9625228131917636,1.1596879089255108,3,True
2024-01-12,0.9625228131917636,0.9420428196182677,-2.127741108346659,3,True
2024-01-13,0.9420428196182677,0.9374915210260653,-0.4831307555687059,6,True
2024-01-14,0.9374915210260653,0.9423994950423193,0.5235219632581334,0,True
2024-01-15,0.9423994950423193,0.9370609153147733,-0.5664879656271826,2,True
2024-01-16,0.9370609153147733,0.9380213506120778,0.10249443569865235,1,True
2024-01-17,0.9380213506120778,0.9431176757162907,0.5433058747423392,0,True
2024-01-18,0.9431176757162907,0.9422649734497077,-0.09041313597852874,1,True
2024-01-19,0.9422649734497077,0.9337216491394329,-0.90667960191676,1,True
2024-01-20,0.9337216491394329,0.954132216311737,2.1859370178591853,7,True
2024-01-21,0.954132216311737,0.9664711792582025,1.293213114023395,1,True
2024-01-22,0.9664711792582025,0.9466563013765278,-2.050229567826667,4,True
2024-01-23,0.9466563013765278,0.9271207195157442,-2.06364039751038,8,True
2024-01-24,0.9271207195157442,0.926403028159182,-0.07741077741602043,1,True
2024-01-25,0.926403028159182,0.9169528673984801,-1.0200917390652209,2,True
2024-01-26,0.9169528673984801,0.9169528673984801,0.0,0,False
2024-01-27,0.9169528673984801,0.9169528673984801,0.0,0,False
2024-01-28,0.9169528673984801,0.9138366717818308,-0.3398425074442879,2,True
2024-01-29,0.9138366717818308,0.9137688704913701,-0.007419410114994918,0,True
2024-01-30,0.9137688704913701,0.9137688704913701,0.0,0,False
2024-01-31,0.9137688704913701,0.9092104823410122,-0.49885570602844487,1,True
2024-02-01,0.9092104823410122,0.9092104823410122,0.0,0,False
2024-02-02,0.9092104823410122,0.9089286996530185,-0.030992019281195216,2,True
2024-02-03,0.9089286996530185,0.9135616705699482,0.5097177499949535,1,True
2024-02-04,0.9135616705699482,0.9128759586096252,-0.07505918674270973,1,True
2024-02-05,0.9128759586096252,0.9128759586096252,0.0,0,False
2024-02-06,0.9128759586096252,0.9097755660681756,-0.33962911523837125,2,True
2024-02-07,0.9097755660681756,0.907298216743115,-0.27230334793086897,4,True
2024-02-08,0.907298216743115,0.9192646304225237,1.318906337363246,1,True
2024-02-09,0.9192646304225237,0.9192646304225237,0.0,0,False
2024-02-10,0.9192646304225237,0.9164999682526584,-0.3007471492288971,2,True
2024-02-11,0.9164999682526584,0.9156245409501543,-0.09551853058687998,0,True
2024-02-12,0.9156245409501543,0.9165486082200056,0.1009220732433036,1,True
2024-02-13,0.9165486082200056,0.9165822617314656,0.0036717650496953524,0,True
2024-02-14,0.9165822617314656,0.9172532184281081,0.07320201630076628,2,True
2024-02-15,0.9172532184281081,0.9189290643678721,0.18270265027098276,1,True
2024-02-16,0.9189290643678721,0.9202520282771702,0.14396801239584534,3,True
2024-02-17,0.9202520282771702,0.9218102682542133,0.16932752432616827,5,True
2024-02-18,0.9218102682542133,0.9234679459322463,0.179828510824942,1,True
2024-02-19,0.9234679459322463,0.9240170249727125,0.05945837566803114,2,True
2024-02-20,0.9240170249727125,0.923034263911323,-0.10635746256065781,8,True
2024-02-21,0.923034263911323,0.9162537106737791,-0.7345938826595177,7,True
2024-02-22,0.9162537106737791,0.9310303419554675,1.6127226672645323,3,True
2024-02-23,0.9310303419554675,0.9316027628617108,0.0614825189307,3,True
2024-02-24,0.9316027628617108,0.9297771398426635,-0.19596582275468455,5,True
2024-02-25,0.9297771398426635,0.9257380841692356,-0.4344111615942059,4,True
2024-02-26,0.9257380841692356,0.9232320034616524,-0.2707116354440875,5,True
2024-02-27,0.9232320034616524,0.9226032307054618,-0.06810560658999654,3,True
2024-02-28,0.9226032307054618,0.9273021246719116,0.5093082063951648,5,True
2024-02-29,0.9273021246719116,0.9286628595748367,0.1467412687538694,8,True
2024-03-01,0.9286628595748367,0.926974865667833,-0.18176606177364718,5,True
2024-03-02,0.926974865667833,0.9294428909568695,0.26624511412813856,4,True
2024-03-03,0.9294428909568695,0.9307574740759488,0.14143775070740716,9,True
2024-03-04,0.9307574740759488,0.9388430858658814,0.8687130659853048,1,True
2024-03-05,0.9388430858658814,0.9383605411765895,-0.05139779975551484,9,True
2024-03-06,0.9383605411765895,0.9329749821197085,-0.5739328137272404,16,True
2024-03-07,0.9329749821197085,0.9311391291258133,-0.19677408602363222,5,True
2024-03-08,0.9311391291258133,0.9330936250403923,0.2099037462225395,5,True
2024-03-09,0.9330936250403923,0.9271497946579281,-0.6370025711200045,5,True
2024-03-10,0.9271497946579281,0.9261025748302569,-0.11295044594790138,8,True
2024-03-11,0.9261025748302569,0.926804813055873,0.07582726197956635,3,True
2024-03-12,0.926804813055873,0.9309357892386839,0.4457223489366946,4,True
2024-03-13,0.9309357892386839,0.9346151470011828,0.3952321744454368,5,True
2024-03-14,0.9346151470011828,0.9357054767668439,0.11666082763153174,5,True
2024-03-15,0.9357054767668439,0.9143917094225187,-2.277828640906432,10,True
2024-03-16,0.9143917094225187,0.9150797803232824,0.07524903098676816,3,True
2024-03-17,0.9150797803232824,0.9099448802921902,-0.5611423333250931,7,True
2024-03-18,0.9099448802921902,0.912387471594421,0.2684328858959528,4,True
2024-03-19,0.912387471594421,0.9058927616063488,-0.7118368226519567,14,True
2024-03-20,0.9058927616063488,0.8997853186661733,-0.67419050013664,4,True
2024-03-21,0.8997853186661733,0.8993327499640383,-0.05029740903150781,4,True
2024-03-22,0.8993327499640383,0.9045401458612407,0.5790288296974033,8,True
2024-03-23,0.9045401458612407,0.912781885567137,0.9111524506244084,5,True
2024-03-24,0.912781885567137,0.9109036058976663,-0.20577530066820948,4,True
2024-03-25,0.9109036058976663,0.9178591286091685,0.7635849354935553,4,True
2024-03-26,0.9178591286091685,0.9242264161189473,0.6937107570556211,5,True
2024-03-27,0.9242264161189473,0.9222637685745446,-0.21235570745146148,6,True
2024-03-28,0.9222637685745446,0.9171036846737071,-0.5595019642605115,2,True
2024-03-29,0.9171036846737071,0.9146850816525093,-0.26372187372230016,6,True
2024-03-30,0.9146850816525093,0.9102416248612233,-0.4857908891722884,2,True
2024-03-31,0.9102416248612233,0.9102015393842231,-0.004403828160060019,0,True
2024-04-01,0.9102015393842231,0.909202649828818,-0.1097437778539545,5,True
2024-04-02,0.909202649828818,0.895735662106729,-1.4811865896590448,5,True
2024-04-03,0.895735662106729,0.8854631404788006,-1.1468251251455008,3,True
2024-04-04,0.8854631404788006,0.8851263706795526,-0.0380331810385548,1,True
2024-04-05,0.8851263706795526,0.8823871169860774,-0.3094760007401054,5,True
2024-04-06,0.8823871169860774,0.8814588276593245,-0.10520204895144714,1,True
2024-04-07,0.8814588276593245,0.8878782074968046,0.7282676894309947,3,True
2024-04-08,0.8878782074968046,0.8853540789438759,-0.28428770203122733,1,True
2024-04-09,0.8853540789438759,0.8799078022366573,-0.6151523821650295,3,True
2024-04-10,0.8799078022366573,0.8767865021085693,-0.35473036153945703,5,True
2024-04-11,0.8767865021085693,0.8800415776583967,0.371250645624599,1,True
2024-04-12,0.8800415776583967,0.8783321388633497,-0.19424523095777912,9,True
2024-04-13,0.8783321388633497,0.8657806959916007,-1.4290087219160474,11,True
2024-04-14,0.8657806959916007,0.8591992233278208,-0.7601778018672345,2,True
2024-04-15,0.8591992233278208,0.8591992233278208,0.0,0,False
2024-04-16,0.8591992233278208,0.8591992233278208,0.0,0,False
2024-04-17,0.8591992233278208,0.8591992233278208,0.0,0,False
2024-04-18,0.8591992233278208,0.8591992233278208,0.0,0,False
2024-04-19,0.8591992233278208,0.8591992233278208,0.0,0,False
2024-04-20,0.8591992233278208,0.8591992233278208,0.0,0,False
2024-04-21,0.8591992233278208,0.8591992233278208,0.0,0,False
2024-04-22,0.8591992233278208,0.8591992233278208,0.0,0,False
2024-04-23,0.8591992233278208,0.8591992233278208,0.0,0,False
2024-04-24,0.8591992233278208,0.8591992233278208,0.0,0,False
2024-04-25,0.8591992233278208,0.8591992233278208,0.0,0,False
2024-04-26,0.8591992233278208,0.8591992233278208,0.0,0,False
2024-04-27,0.8591992233278208,0.8591992233278208,0.0,0,False
2024-04-28,0.8591992233278208,0.8591992233278208,0.0,0,False
2024-04-29,0.8591992233278208,0.8591992233278208,0.0,0,False
2024-04-30,0.8591992233278208,0.8591992233278208,0.0,0,False
2024-05-01,0.8591992233278208,0.8591992233278208,0.0,0,False
2024-05-02,0.8591992233278208,0.8591992233278208,0.0,0,False
2024-05-03,0.8591992233278208,0.8591992233278208,0.0,0,False
2024-05-04,0.8591992233278208,0.8591992233278208,0.0,0,False
2024-05-05,0.8591992233278208,0.8591992233278208,0.0,0,False
2024-05-06,0.8591992233278208,0.8591992233278208,0.0,0,False
2024-05-07,0.8591992233278208,0.8591992233278208,0.0,0,False
2024-05-08,0.8591992233278208,0.8591992233278208,0.0,0,False
2024-05-09,0.8591992233278208,0.8591992233278208,0.0,0,False
2024-05-10,0.8591992233278208,0.8591992233278208,0.0,0,False
2024-05-11,0.8591992233278208,0.8591992233278208,0.0,0,False
2024-05-12,0.8591992233278208,0.8591992233278208,0.0,0,False
2024-05-13,0.8591992233278208,0.8591992233278208,0.0,0,False
2024-05-14,0.8591992233278208,0.8591992233278208,0.0,0,False
2024-05-15,0.8591992233278208,0.8591992233278208,0.0,0,False
2024-05-16,0.8591992233278208,0.8591992233278208,0.0,0,False
2024-05-17,0.8591992233278208,0.8591992233278208,0.0,0,False
2024-05-18,0.8591992233278208,0.8591992233278208,0.0,0,False
2024-05-19,0.8591992233278208,0.8591992233278208,0.0,0,False
2024-05-20,0.8591992233278208,0.8591992233278208,0.0,0,False
2024-05-21,0.8591992233278208,0.8591992233278208,0.0,0,False
2024-05-22,0.8591992233278208,0.8591992233278208,0.0,0,False
2024-05-23,0.8591992233278208,0.8591992233278208,0.0,0,False
2024-05-24,0.8591992233278208,0.8591992233278208,0.0,0,False
2024-05-25,0.8591992233278208,0.8591992233278208,0.0,0,False
2024-05-26,0.8591992233278208,0.8591992233278208,0.0,0,False
2024-05-27,0.8591992233278208,0.8591992233278208,0.0,0,False
2024-05-28,0.8591992233278208,0.8591992233278208,0.0,0,False
2024-05-29,0.8591992233278208,0.8591992233278208,0.0,0,False
2024-05-30,0.8591992233278208,0.8591992233278208,0.0,0,False
2024-05-31,0.8591992233278208,0.8591992233278208,0.0,0,False
2024-06-01,0.8591992233278208,0.8591992233278208,0.0,0,False
2024-06-02,0.8591992233278208,0.8591992233278208,0.0,0,False
2024-06-03,0.8591992233278208,0.8591992233278208,0.0,0,False
2024-06-04,0.8591992233278208,0.8591992233278208,0.0,0,False
2024-06-05,0.8591992233278208,0.8591992233278208,0.0,0,False
2024-06-06,0.8591992233278208,0.8591992233278208,0.0,0,False
2024-06-07,0.8591992233278208,0.8591992233278208,0.0,0,False
2024-06-08,0.8591992233278208,0.8591992233278208,0.0,0,False
2024-06-09,0.8591992233278208,0.8591992233278208,0.0,0,False
2024-06-10,0.8591992233278208,0.8591992233278208,0.0,0,False
2024-06-11,0.8591992233278208,0.8591992233278208,0.0,0,False
2024-06-12,0.8591992233278208,0.8591992233278208,0.0,0,False
2024-06-13,0.8591992233278208,0.8591992233278208,0.0,0,False
2024-06-14,0.8591992233278208,0.8591992233278208,0.0,0,False
2024-06-15,0.8591992233278208,0.8591992233278208,0.0,0,False
2024-06-16,0.8591992233278208,0.8591992233278208,0.0,0,False
2024-06-17,0.8591992233278208,0.8591992233278208,0.0,0,False
2024-06-18,0.8591992233278208,0.8591992233278208,0.0,0,False
2024-06-19,0.8591992233278208,0.8591992233278208,0.0,0,False
2024-06-20,0.8591992233278208,0.8591992233278208,0.0,0,False
2024-06-21,0.8591992233278208,0.8591992233278208,0.0,0,False
2024-06-22,0.8591992233278208,0.8591992233278208,0.0,0,False
2024-06-23,0.8591992233278208,0.8591992233278208,0.0,0,False
2024-06-24,0.8591992233278208,0.8591992233278208,0.0,0,False
2024-06-25,0.8591992233278208,0.8591992233278208,0.0,0,False
2024-06-26,0.8591992233278208,0.8591992233278208,0.0,0,False
2024-06-27,0.8591992233278208,0.8591992233278208,0.0,0,False
2024-06-28,0.8591992233278208,0.8591992233278208,0.0,0,False
2024-06-29,0.8591992233278208,0.8591992233278208,0.0,0,False
2024-06-30,0.8591992233278208,0.8591992233278208,0.0,0,False
2024-07-01,0.8591992233278208,0.8591992233278208,0.0,0,False
2024-07-02,0.8591992233278208,0.8591992233278208,0.0,0,False
2024-07-03,0.8591992233278208,0.8591992233278208,0.0,0,False
2024-07-04,0.8591992233278208,0.8591992233278208,0.0,0,False
2024-07-05,0.8591992233278208,0.8591992233278208,0.0,0,False
2024-07-06,0.8591992233278208,0.8591992233278208,0.0,0,False
2024-07-07,0.8591992233278208,0.8591992233278208,0.0,0,False
2024-07-08,0.8591992233278208,0.8591992233278208,0.0,0,False
2024-07-09,0.8591992233278208,0.8591992233278208,0.0,0,False
2024-07-10,0.8591992233278208,0.8591992233278208,0.0,0,False
2024-07-11,0.8591992233278208,0.8591992233278208,0.0,0,False
2024-07-12,0.8591992233278208,0.8591992233278208,0.0,0,False
2024-07-13,0.8591992233278208,0.8591992233278208,0.0,0,False
2024-07-14,0.8591992233278208,0.8591992233278208,0.0,0,False
2024-07-15,0.8591992233278208,0.8591992233278208,0.0,0,False
2024-07-16,0.8591992233278208,0.8591992233278208,0.0,0,False
2024-07-17,0.8591992233278208,0.8591992233278208,0.0,0,False
2024-07-18,0.8591992233278208,0.8591992233278208,0.0,0,False
2024-07-19,0.8591992233278208,0.8591992233278208,0.0,0,False
2024-07-20,0.8591992233278208,0.8591992233278208,0.0,0,False
2024-07-21,0.8591992233278208,0.8591992233278208,0.0,0,False
2024-07-22,0.8591992233278208,0.8591992233278208,0.0,0,False
2024-07-23,0.8591992233278208,0.8591992233278208,0.0,0,False
2024-07-24,0.8591992233278208,0.8591992233278208,0.0,0,False
2024-07-25,0.8591992233278208,0.8591992233278208,0.0,0,False
2024-07-26,0.8591992233278208,0.8591992233278208,0.0,0,False
2024-07-27,0.8591992233278208,0.8591992233278208,0.0,0,False
2024-07-28,0.8591992233278208,0.8591992233278208,0.0,0,False
2024-07-29,0.8591992233278208,0.8591992233278208,0.0,0,False
2024-07-30,0.8591992233278208,0.8591992233278208,0.0,0,False
2024-07-31,0.8591992233278208,0.8591992233278208,0.0,0,False
2024-08-01,0.8591992233278208,0.8591992233278208,0.0,0,False
2024-08-02,0.8591992233278208,0.8591992233278208,0.0,0,False
2024-08-03,0.8591992233278208,0.8591992233278208,0.0,0,False
2024-08-04,0.8591992233278208,0.8591992233278208,0.0,0,False
2024-08-05,0.8591992233278208,0.8591992233278208,0.0,0,False
2024-08-06,0.8591992233278208,0.8591992233278208,0.0,0,False
2024-08-07,0.8591992233278208,0.8591992233278208,0.0,0,False
2024-08-08,0.8591992233278208,0.8591992233278208,0.0,0,False
2024-08-09,0.8591992233278208,0.8591992233278208,0.0,0,False
2024-08-10,0.8591992233278208,0.8591992233278208,0.0,0,False
2024-08-11,0.8591992233278208,0.8591992233278208,0.0,0,False
2024-08-12,0.8591992233278208,0.8591992233278208,0.0,0,False
2024-08-13,0.8591992233278208,0.8591992233278208,0.0,0,False
2024-08-14,0.8591992233278208,0.8591992233278208,0.0,0,False
2024-08-15,0.8591992233278208,0.8591992233278208,0.0,0,False
2024-08-16,0.8591992233278208,0.8591992233278208,0.0,0,False
2024-08-17,0.8591992233278208,0.8591992233278208,0.0,0,False
2024-08-18,0.8591992233278208,0.8591992233278208,0.0,0,False
2024-08-19,0.8591992233278208,0.8591992233278208,0.0,0,False
2024-08-20,0.8591992233278208,0.8591992233278208,0.0,0,False
2024-08-21,0.8591992233278208,0.8591992233278208,0.0,0,False
2024-08-22,0.8591992233278208,0.8591992233278208,0.0,0,False
2024-08-23,0.8591992233278208,0.8591992233278208,0.0,0,False
2024-08-24,0.8591992233278208,0.8591992233278208,0.0,0,False
2024-08-25,0.8591992233278208,0.8591992233278208,0.0,0,False
2024-08-26,0.8591992233278208,0.8591992233278208,0.0,0,False
2024-08-27,0.8591992233278208,0.8591992233278208,0.0,0,False
2024-08-28,0.8591992233278208,0.8591992233278208,0.0,0,False
2024-08-29,0.8591992233278208,0.8591992233278208,0.0,0,False
2024-08-30,0.8591992233278208,0.8591992233278208,0.0,0,False
2024-08-31,0.8591992233278208,0.8591992233278208,0.0,0,False
2024-09-01,0.8591992233278208,0.8591992233278208,0.0,0,False
2024-09-02,0.8591992233278208,0.8591992233278208,0.0,0,False
2024-09-03,0.8591992233278208,0.8591992233278208,0.0,0,False
2024-09-04,0.8591992233278208,0.8591992233278208,0.0,0,False
2024-09-05,0.8591992233278208,0.8591992233278208,0.0,0,False
2024-09-06,0.8591992233278208,0.8591992233278208,0.0,0,False
2024-09-07,0.8591992233278208,0.8591992233278208,0.0,0,False
2024-09-08,0.8591992233278208,0.8591992233278208,0.0,0,False
2024-09-09,0.8591992233278208,0.8591992233278208,0.0,0,False
2024-09-10,0.8591992233278208,0.8591992233278208,0.0,0,False
2024-09-11,0.8591992233278208,0.8591992233278208,0.0,0,False
2024-09-12,0.8591992233278208,0.8591992233278208,0.0,0,False
2024-09-13,0.8591992233278208,0.8591992233278208,0.0,0,False
2024-09-14,0.8591992233278208,0.8591992233278208,0.0,0,False
2024-09-15,0.8591992233278208,0.8591992233278208,0.0,0,False
2024-09-16,0.8591992233278208,0.8591992233278208,0.0,0,False
2024-09-17,0.8591992233278208,0.8591992233278208,0.0,0,False
2024-09-18,0.8591992233278208,0.8591992233278208,0.0,0,False
2024-09-19,0.8591992233278208,0.8591992233278208,0.0,0,False
2024-09-20,0.8591992233278208,0.8591992233278208,0.0,0,False
2024-09-21,0.8591992233278208,0.8591992233278208,0.0,0,False
2024-09-22,0.8591992233278208,0.8591992233278208,0.0,0,False
2024-09-23,0.8591992233278208,0.8591992233278208,0.0,0,False
2024-09-24,0.8591992233278208,0.8591992233278208,0.0,0,False
2024-09-25,0.8591992233278208,0.8591992233278208,0.0,0,False
2024-09-26,0.8591992233278208,0.8591992233278208,0.0,0,False
2024-09-27,0.8591992233278208,0.8591992233278208,0.0,0,False
2024-09-28,0.8591992233278208,0.8591992233278208,0.0,0,False
2024-09-29,0.8591992233278208,0.8591992233278208,0.0,0,False
2024-09-30,0.8591992233278208,0.8591992233278208,0.0,0,False
2024-10-01,0.8591992233278208,0.8591992233278208,0.0,0,False
2024-10-02,0.8591992233278208,0.8591992233278208,0.0,0,False
2024-10-03,0.8591992233278208,0.8591992233278208,0.0,0,False
2024-10-04,0.8591992233278208,0.8591992233278208,0.0,0,False
2024-10-05,0.8591992233278208,0.8591992233278208,0.0,0,False
2024-10-06,0.8591992233278208,0.8591992233278208,0.0,0,False
2024-10-07,0.8591992233278208,0.8591992233278208,0.0,0,False
2024-10-08,0.8591992233278208,0.8591992233278208,0.0,0,False
2024-10-09,0.8591992233278208,0.8591992233278208,0.0,0,False
2024-10-10,0.8591992233278208,0.8591992233278208,0.0,0,False
2024-10-11,0.8591992233278208,0.8591992233278208,0.0,0,False
2024-10-12,0.8591992233278208,0.8591992233278208,0.0,0,False
2024-10-13,0.8591992233278208,0.8591992233278208,0.0,0,False
2024-10-14,0.8591992233278208,0.8591992233278208,0.0,0,False
2024-10-15,0.8591992233278208,0.8591992233278208,0.0,0,False
2024-10-16,0.8591992233278208,0.8591992233278208,0.0,0,False
2024-10-17,0.8591992233278208,0.8591992233278208,0.0,0,False
2024-10-18,0.8591992233278208,0.8591992233278208,0.0,0,False
2024-10-19,0.8591992233278208,0.8591992233278208,0.0,0,False
2024-10-20,0.8591992233278208,0.8591992233278208,0.0,0,False
2024-10-21,0.8591992233278208,0.8591992233278208,0.0,0,False
2024-10-22,0.8591992233278208,0.8591992233278208,0.0,0,False
2024-10-23,0.8591992233278208,0.8591992233278208,0.0,0,False
2024-10-24,0.8591992233278208,0.8591992233278208,0.0,0,False
2024-10-25,0.8591992233278208,0.8591992233278208,0.0,0,False
2024-10-26,0.8591992233278208,0.8591992233278208,0.0,0,False
2024-10-27,0.8591992233278208,0.8591992233278208,0.0,0,False
2024-10-28,0.8591992233278208,0.8591992233278208,0.0,0,False
2024-10-29,0.8591992233278208,0.8591992233278208,0.0,0,False
2024-10-30,0.8591992233278208,0.8591992233278208,0.0,0,False
2024-10-31,0.8591992233278208,0.8591992233278208,0.0,0,False
2024-11-01,0.8591992233278208,0.8591992233278208,0.0,0,False
2024-11-02,0.8591992233278208,0.8591992233278208,0.0,0,False
2024-11-03,0.8591992233278208,0.8591992233278208,0.0,0,False
2024-11-04,0.8591992233278208,0.8591992233278208,0.0,0,False
2024-11-05,0.8591992233278208,0.8591992233278208,0.0,0,False
2024-11-06,0.8591992233278208,0.8591992233278208,0.0,0,False
2024-11-07,0.8591992233278208,0.8591992233278208,0.0,0,False
2024-11-08,0.8591992233278208,0.8591992233278208,0.0,0,False
2024-11-09,0.8591992233278208,0.8591992233278208,0.0,0,False
2024-11-10,0.8591992233278208,0.8591992233278208,0.0,0,False
2024-11-11,0.8591992233278208,0.8591992233278208,0.0,0,False
2024-11-12,0.8591992233278208,0.8591992233278208,0.0,0,False
2024-11-13,0.8591992233278208,0.8591992233278208,0.0,0,False
2024-11-14,0.8591992233278208,0.8591992233278208,0.0,0,False
2024-11-15,0.8591992233278208,0.8591992233278208,0.0,0,False
2024-11-16,0.8591992233278208,0.8591992233278208,0.0,0,False
2024-11-17,0.8591992233278208,0.8591992233278208,0.0,0,False
2024-11-18,0.8591992233278208,0.8591992233278208,0.0,0,False
2024-11-19,0.8591992233278208,0.8591992233278208,0.0,0,False
2024-11-20,0.8591992233278208,0.8591992233278208,0.0,0,False
2024-11-21,0.8591992233278208,0.8591992233278208,0.0,0,False
2024-11-22,0.8591992233278208,0.8591992233278208,0.0,0,False
2024-11-23,0.8591992233278208,0.8591992233278208,0.0,0,False
2024-11-24,0.8591992233278208,0.8591992233278208,0.0,0,False
2024-11-25,0.8591992233278208,0.8591992233278208,0.0,0,False
2024-11-26,0.8591992233278208,0.8591992233278208,0.0,0,False
2024-11-27,0.8591992233278208,0.8591992233278208,0.0,0,False
2024-11-28,0.8591992233278208,0.8591992233278208,0.0,0,False
2024-11-29,0.8591992233278208,0.8591992233278208,0.0,0,False
2024-11-30,0.8591992233278208,0.8591992233278208,0.0,0,False
2024-12-01,0.8591992233278208,0.8591992233278208,0.0,0,False
2024-12-02,0.8591992233278208,0.8591992233278208,0.0,0,False
2024-12-03,0.8591992233278208,0.8591992233278208,0.0,0,False
2024-12-04,0.8591992233278208,0.8591992233278208,0.0,0,False
2024-12-05,0.8591992233278208,0.8591992233278208,0.0,0,False
2024-12-06,0.8591992233278208,0.8591992233278208,0.0,0,False
2024-12-07,0.8591992233278208,0.8591992233278208,0.0,0,False
2024-12-08,0.8591992233278208,0.8591992233278208,0.0,0,False
2024-12-09,0.8591992233278208,0.8591992233278208,0.0,0,False
2024-12-10,0.8591992233278208,0.8591992233278208,0.0,0,False
2024-12-11,0.8591992233278208,0.8591992233278208,0.0,0,False
2024-12-12,0.8591992233278208,0.8591992233278208,0.0,0,False
2024-12-13,0.8591992233278208,0.8591992233278208,0.0,0,False
2024-12-14,0.8591992233278208,0.8591992233278208,0.0,0,False
2024-12-15,0.8591992233278208,0.8591992233278208,0.0,0,False
2024-12-16,0.8591992233278208,0.8591992233278208,0.0,0,False
2024-12-17,0.8591992233278208,0.8591992233278208,0.0,0,False
2024-12-18,0.8591992233278208,0.8591992233278208,0.0,0,False
2024-12-19,0.8591992233278208,0.8591992233278208,0.0,0,False
2024-12-20,0.8591992233278208,0.8591992233278208,0.0,0,False
2024-12-21,0.8591992233278208,0.8591992233278208,0.0,0,False
2024-12-22,0.8591992233278208,0.8591992233278208,0.0,0,False
2024-12-23,0.8591992233278208,0.8591992233278208,0.0,0,False
2024-12-24,0.8591992233278208,0.8591992233278208,0.0,0,False
2024-12-25,0.8591992233278208,0.8591992233278208,0.0,0,False
2024-12-26,0.8591992233278208,0.8591992233278208,0.0,0,False
2024-12-27,0.8591992233278208,0.8591992233278208,0.0,0,False
2024-12-28,0.8591992233278208,0.8591992233278208,0.0,0,False
2024-12-29,0.8591992233278208,0.8591992233278208,0.0,0,False
2024-12-30,0.8591992233278208,0.8591992233278208,0.0,0,False
2024-12-31,0.8591992233278208,0.8591992233278208,0.0,0,False
