day,start_equity,end_equity,return_pct,entries,active
2021-09-02,1.0,1.0,0.0,0,False
2021-09-03,1.0,1.0,0.0,0,False
2021-09-04,1.0,1.0,0.0,0,False
2021-09-05,1.0,1.0,0.0,0,False
2021-09-06,1.0,1.0,0.0,0,False
2021-09-07,1.0,1.0,0.0,0,False
2021-09-08,1.0,1.0,0.0,0,False
2021-09-09,1.0,1.0,0.0,0,False
2021-09-10,1.0,1.0,0.0,0,False
2021-09-11,1.0,1.0,0.0,0,False
2021-09-12,1.0,1.0,0.0,0,False
2021-09-13,1.0,1.0,0.0,0,False
2021-09-14,1.0,1.0,0.0,0,False
2021-09-15,1.0,1.0,0.0,0,False
2021-09-16,1.0,1.0,0.0,0,False
2021-09-17,1.0,1.0,0.0,0,False
2021-09-18,1.0,1.0,0.0,0,False
2021-09-19,1.0,1.0,0.0,0,False
2021-09-20,1.0,1.0,0.0,0,False
2021-09-21,1.0,1.0,0.0,0,False
2021-09-22,1.0,1.0,0.0,0,False
2021-09-23,1.0,1.0,0.0,0,False
2021-09-24,1.0,1.0,0.0,0,False
2021-09-25,1.0,1.0,0.0,0,False
2021-09-26,1.0,1.0,0.0,0,False
2021-09-27,1.0,1.0,0.0,0,False
2021-09-28,1.0,1.0,0.0,0,False
2021-09-29,1.0,1.0,0.0,0,False
2021-09-30,1.0,1.0,0.0,0,False
2021-10-01,1.0,1.0,0.0,0,False
2021-10-02,1.0,1.0,0.0,0,False
2021-10-03,1.0,1.0,0.0,0,False
2021-10-04,1.0,1.0,0.0,0,False
2021-10-05,1.0,1.0,0.0,0,False
2021-10-06,1.0,0.9978390650138445,-0.21609349861555494,1,True
2021-10-07,0.9978390650138445,0.9978390650138445,0.0,0,False
2021-10-08,0.9978390650138445,0.9978390650138445,0.0,0,False
2021-10-09,0.9978390650138445,0.9954982204974228,-0.2345913883807671,3,True
2021-10-10,0.9954982204974228,0.989627633931084,-0.5897134164042361,1,True
2021-10-11,0.989627633931084,0.989627633931084,0.0,0,False
2021-10-12,0.989627633931084,0.989627633931084,0.0,0,False
2021-10-13,0.989627633931084,1.0022116125007965,1.2715872251591653,4,True
2021-10-14,1.0022116125007965,1.0168353097226095,1.4591426640250926,0,True
2021-10-15,1.0168353097226095,1.0197760626359103,0.2892064118134252,1,True
2021-10-16,1.0197760626359103,1.035347137966096,1.5269112406833374,0,True
2021-10-17,1.035347137966096,1.035347137966096,0.0,0,False
2021-10-18,1.035347137966096,1.0362487808074736,0.08708604180323043,1,True
2021-10-19,1.0362487808074736,1.0362487808074736,0.0,0,False
2021-10-20,1.0362487808074736,1.0362487808074736,0.0,0,False
2021-10-21,1.0362487808074736,1.0362487808074736,0.0,0,False
2021-10-22,1.0362487808074736,1.0362487808074736,0.0,0,False
2021-10-23,1.0362487808074736,1.0362487808074736,0.0,0,False
2021-10-24,1.0362487808074736,1.0362487808074736,0.0,0,False
2021-10-25,1.0362487808074736,1.0386854449299312,0.2351427733945144,1,True
2021-10-26,1.0386854449299312,1.0386854449299312,0.0,0,False
2021-10-27,1.0386854449299312,1.0357582381442267,-0.28181840806500436,6,True
2021-10-28,1.0357582381442267,1.0329167077140082,-0.2743430199801944,0,True
2021-10-29,1.0329167077140082,1.0329167077140082,0.0,0,False
2021-10-30,1.0329167077140082,1.0329167077140082,0.0,0,False
2021-10-31,1.0329167077140082,1.0329167077140082,0.0,0,False
2021-11-01,1.0329167077140082,1.0341079672255684,0.11532967785916615,1,True
2021-11-02,1.0341079672255684,1.0330063689467757,-0.10652642796556977,0,True
2021-11-03,1.0330063689467757,1.032995514451584,-0.001050767499388705,1,True
2021-11-04,1.032995514451584,1.0517379812585135,1.8143802702647482,1,True
2021-11-05,1.0517379812585135,1.043564415770609,-0.7771484565123332,0,True
2021-11-06,1.043564415770609,1.0422889458259026,-0.12222244505765145,1,True
2021-11-07,1.0422889458259026,1.0422889458259026,0.0,0,False
2021-11-08,1.0422889458259026,1.0422889458259026,0.0,0,False
2021-11-09,1.0422889458259026,1.0422889458259026,0.0,0,False
2021-11-10,1.0422889458259026,1.0422889458259026,0.0,0,False
2021-11-11,1.0422889458259026,1.0113319651468335,-2.970095845594811,6,True
2021-11-12,1.0113319651468335,1.0113319651468335,0.0,0,False
2021-11-13,1.0113319651468335,1.0100947009552579,-0.12234006579590062,1,True
2021-11-14,1.0100947009552579,1.0100947009552579,0.0,0,False
2021-11-15,1.0100947009552579,1.0100947009552579,0.0,0,False
2021-11-16,1.0100947009552579,1.0310910015231056,2.0786467395573105,5,True
2021-11-17,1.0310910015231056,1.0199532367314768,-1.0801922211692627,0,True
2021-11-18,1.0199532367314768,1.017113907587528,-0.27837836497756063,2,True
2021-11-19,1.017113907587528,1.0231711966490067,0.5955369419582413,2,True
2021-11-20,1.0231711966490067,1.0236840282495887,0.05012177847281141,0,True
2021-11-21,1.0236840282495887,1.0236840282495887,0.0,0,False
2021-11-22,1.0236840282495887,1.0197785760639209,-0.3815095359400944,1,True
2021-11-23,1.0197785760639209,1.0197785760639209,0.0,0,False
2021-11-24,1.0197785760639209,1.0197785760639209,0.0,0,False
2021-11-25,1.0197785760639209,1.0220087424951616,0.21869124176432386,2,True
2021-11-26,1.0220087424951616,1.0000287871713518,-2.150662162649153,4,True
2021-11-27,1.0000287871713518,1.0000287871713518,0.0,0,False
2021-11-28,1.0000287871713518,0.9986929262963937,-0.1335822420409194,1,True
2021-11-29,0.9986929262963937,0.9986929262963937,0.0,0,False
2021-11-30,0.9986929262963937,0.9986929262963937,0.0,0,False
2021-12-01,0.9986929262963937,0.9986929262963937,0.0,0,False
2021-12-02,0.9986929262963937,0.9958592546335407,-0.28373803280669074,2,True
2021-12-03,0.9958592546335407,0.993489069048095,-0.2380040728062527,1,True
2021-12-04,0.993489069048095,0.9719872855072549,-2.16426976508578,8,True
2021-12-05,0.9719872855072549,0.9722594369038043,0.027999481125662307,1,True
2021-12-06,0.9722594369038043,0.965518606722397,-0.6933159942241085,7,True
2021-12-07,0.965518606722397,0.9917453674881747,2.716339238122867,0,True
2021-12-08,0.9917453674881747,0.9950934147288052,0.33759141715077323,1,True
2021-12-09,0.9950934147288052,0.9936246427938521,-0.14760141241145774,0,True
2021-12-10,0.9936246427938521,0.9898881373034912,-0.37604798929449235,1,True
2021-12-11,0.9898881373034912,0.9870487615303004,-0.28683804423855763,1,True
2021-12-12,0.9870487615303004,0.9870487615303004,0.0,0,False
2021-12-13,0.9870487615303004,0.9838429970189244,-0.3247827905083267,1,True
2021-12-14,0.9838429970189244,0.9838429970189244,0.0,0,False
2021-12-15,0.9838429970189244,0.9838429970189244,0.0,0,False
2021-12-16,0.9838429970189244,0.9838429970189244,0.0,0,False
2021-12-17,0.9838429970189244,0.9840919615525037,0.025305311348833293,2,True
2021-12-18,0.9840919615525037,0.9869287692912931,0.28826652890387994,0,True
2021-12-19,0.9869287692912931,0.9824629782923234,-0.45249375009875914,1,True
2021-12-20,0.9824629782923234,0.9824629782923234,0.0,0,False
2021-12-21,0.9824629782923234,0.9798187588669671,-0.26914188969769937,1,True
2021-12-22,0.9798187588669671,0.979027442739876,-0.08076147960325297,0,True
2021-12-23,0.979027442739876,0.979027442739876,0.0,0,False
2021-12-24,0.979027442739876,0.979027442739876,0.0,0,False
2021-12-25,0.979027442739876,0.9808865419795607,0.18989245434040125,1,True
2021-12-26,0.9808865419795607,0.9808865419795607,0.0,0,False
2021-12-27,0.9808865419795607,0.9808865419795607,0.0,0,False
2021-12-28,0.9808865419795607,0.9808865419795607,0.0,0,False
2021-12-29,0.9808865419795607,0.9808865419795607,0.0,0,False
2021-12-30,0.9808865419795607,0.9808865419795607,0.0,0,False
2021-12-31,0.9808865419795607,0.9808865419795607,0.0,0,False
2022-01-01,0.9808865419795607,0.9808865419795607,0.0,0,False
2022-01-02,0.9808865419795607,0.9808865419795607,0.0,0,False
2022-01-03,0.9808865419795607,0.9808865419795607,0.0,0,False
2022-01-04,0.9808865419795607,0.9808865419795607,0.0,0,False
2022-01-05,0.9808865419795607,0.9818090204635506,0.09404538083763736,1,True
2022-01-06,0.9818090204635506,0.9606549867637634,-2.154597611030251,5,True
2022-01-07,0.9606549867637634,0.9594585045689096,-0.12454858521938617,4,True
2022-01-08,0.9594585045689096,0.9649353487245094,0.5708265786919631,0,True
2022-01-09,0.9649353487245094,0.9654362126784201,0.05190647793893444,1,True
2022-01-10,0.9654362126784201,0.9668642895064481,0.14792037104824907,0,True
2022-01-11,0.9668642895064481,0.9668642895064481,0.0,0,False
2022-01-12,0.9668642895064481,0.9668642895064481,0.0,0,False
2022-01-13,0.9668642895064481,0.9668642895064481,0.0,0,False
2022-01-14,0.9668642895064481,0.9668642895064481,0.0,0,False
2022-01-15,0.9668642895064481,0.967202866147693,0.03501801079215383,1,True
2022-01-16,0.967202866147693,0.9662160614733921,-0.10202664909703119,0,True
2022-01-17,0.9662160614733921,0.9682050882673636,0.2058573515056672,1,True
2022-01-18,0.9682050882673636,0.9733275622173726,0.5290691003468906,0,True
2022-01-19,0.9733275622173726,0.9733275622173726,0.0,0,False
2022-01-20,0.9733275622173726,0.9733275622173726,0.0,0,False
2022-01-21,0.9733275622173726,0.9537461727908453,-2.0117985133307315,7,True
2022-01-22,0.9537461727908453,0.9340990827538906,-2.059991494326363,6,True
2022-01-23,0.9340990827538906,0.9340990827538906,0.0,0,False
2022-01-24,0.9340990827538906,0.9312675046582498,-0.30313466182760873,2,True
2022-01-25,0.9312675046582498,0.9387636380800567,0.8049387940963104,0,True
2022-01-26,0.9387636380800567,0.9387636380800567,0.0,0,False
2022-01-27,0.9387636380800567,0.9434398954070476,0.49812936263218255,4,True
2022-01-28,0.9434398954070476,0.9402624938242656,-0.3367889781056066,0,True
2022-01-29,0.9402624938242656,0.9402624938242656,0.0,0,False
2022-01-30,0.9402624938242656,0.9434906669812516,0.3433268026948877,1,True
2022-01-31,0.9434906669812516,0.9423211470583366,-0.12395670289532257,0,True
2022-02-01,0.9423211470583366,0.9423211470583366,0.0,0,False
2022-02-02,0.9423211470583366,0.9423211470583366,0.0,0,False
2022-02-03,0.9423211470583366,0.9420951406643064,-0.023984009563582376,3,True
2022-02-04,0.9420951406643064,0.9453406723442243,0.3445014775927291,0,True
2022-02-05,0.9453406723442243,0.9453406723442243,0.0,0,False
2022-02-06,0.9453406723442243,0.9453406723442243,0.0,0,False
2022-02-07,0.9453406723442243,0.9453406723442243,0.0,0,False
2022-02-08,0.9453406723442243,0.9453406723442243,0.0,0,False
2022-02-09,0.9453406723442243,0.9464584041103595,0.1182358697593644,2,True
2022-02-10,0.9464584041103595,0.9491904669658602,0.28866169328050084,5,True
2022-02-11,0.9491904669658602,0.9448120303463768,-0.46128114133713316,0,True
2022-02-12,0.9448120303463768,0.9353914251162909,-0.9970877727533023,4,True
2022-02-13,0.9353914251162909,0.9353914251162909,0.0,0,False
2022-02-14,0.9353914251162909,0.9353914251162909,0.0,0,False
2022-02-15,0.9353914251162909,0.9353914251162909,0.0,0,False
2022-02-16,0.9353914251162909,0.9353914251162909,0.0,0,False
2022-02-17,0.9353914251162909,0.9353914251162909,0.0,0,False
2022-02-18,0.9353914251162909,0.9353914251162909,0.0,0,False
2022-02-19,0.9353914251162909,0.9353914251162909,0.0,0,False
2022-02-20,0.9353914251162909,0.9353914251162909,0.0,0,False
2022-02-21,0.9353914251162909,0.9353914251162909,0.0,0,False
2022-02-22,0.9353914251162909,0.9351602972876597,-0.02470920968753454,2,True
2022-02-23,0.9351602972876597,0.9347744277905937,-0.04126239086338357,0,True
2022-02-24,0.9347744277905937,0.9254589034228495,-0.9965531887475843,4,True
2022-02-25,0.9254589034228495,0.9254589034228495,0.0,0,False
2022-02-26,0.9254589034228495,0.9254589034228495,0.0,0,False
2022-02-27,0.9254589034228495,0.9254589034228495,0.0,0,False
2022-02-28,0.9254589034228495,0.9265272481431504,0.11543945564189695,1,True
2022-03-01,0.9265272481431504,0.9278913383981526,0.14722613476678692,0,True
2022-03-02,0.9278913383981526,0.9278913383981526,0.0,0,False
2022-03-03,0.9278913383981526,0.9278913383981526,0.0,0,False
2022-03-04,0.9278913383981526,0.9266096975396818,-0.138124024380204,1,True
2022-03-05,0.9266096975396818,0.9266096975396818,0.0,0,False
2022-03-06,0.9266096975396818,0.9235178920206457,-0.33366859069632326,3,True
2022-03-07,0.9235178920206457,0.9225641077916966,-0.10327728755338272,0,True
2022-03-08,0.9225641077916966,0.9230375155040207,0.051314343179598154,1,True
2022-03-09,0.9230375155040207,0.9271452428001778,0.4450227891240388,1,True
2022-03-10,0.9271452428001778,0.9261378226400175,-0.10865828930078925,3,True
2022-03-11,0.9261378226400175,0.9245874768228777,-0.1673990392402347,0,True
2022-03-12,0.9245874768228777,0.9245874768228777,0.0,0,False
2022-03-13,0.9245874768228777,0.9245874768228777,0.0,0,False
2022-03-14,0.9245874768228777,0.922748575952702,-0.19888879270727466,1,True
2022-03-15,0.922748575952702,0.9231308927731192,0.041432393436369175,1,True
2022-03-16,0.9231308927731192,0.9243107518574382,0.12781059474400447,1,True
2022-03-17,0.9243107518574382,0.922335194924179,-0.21373298203977154,1,True
2022-03-18,0.922335194924179,0.9219877799214241,-0.03766689210894514,0,True
2022-03-19,0.9219877799214241,0.9219877799214241,0.0,0,False
2022-03-20,0.9219877799214241,0.9201410109668358,-0.20030297524612495,1,True
2022-03-21,0.9201410109668358,0.9189856928805443,-0.1255588081089276,3,True
2022-03-22,0.9189856928805443,0.9189856928805443,0.0,0,False
2022-03-23,0.9189856928805443,0.9189856928805443,0.0,0,False
2022-03-24,0.9189856928805443,0.9189856928805443,0.0,0,False
2022-03-25,0.9189856928805443,0.9189856928805443,0.0,0,False
2022-03-26,0.9189856928805443,0.9189856928805443,0.0,0,False
2022-03-27,0.9189856928805443,0.9189856928805443,0.0,0,False
2022-03-28,0.9189856928805443,0.9189856928805443,0.0,0,False
2022-03-29,0.9189856928805443,0.9189856928805443,0.0,0,False
2022-03-30,0.9189856928805443,0.9177117754321511,-0.13862211982866857,4,True
2022-03-31,0.9177117754321511,0.9188093260569915,0.11959644130354885,5,True
2022-04-01,0.9188093260569915,0.910630230740509,-0.8901841856114534,0,True
2022-04-02,0.910630230740509,0.910630230740509,0.0,0,False
2022-04-03,0.910630230740509,0.9088639449050799,-0.19396301328507004,1,True
2022-04-04,0.9088639449050799,0.9088639449050799,0.0,0,False
2022-04-05,0.9088639449050799,0.9090934334997868,0.025250049360336924,3,True
2022-04-06,0.9090934334997868,0.9007476205297521,-0.918036877453321,9,True
2022-04-07,0.9007476205297521,0.902287502532022,0.17095598891110342,1,True
2022-04-08,0.902287502532022,0.9042677299526366,0.21946745522438693,0,True
2022-04-09,0.9042677299526366,0.9042677299526366,0.0,0,False
2022-04-10,0.9042677299526366,0.9042677299526366,0.0,0,False
2022-04-11,0.9042677299526366,0.900166793319105,-0.453509120993012,6,True
2022-04-12,0.900166793319105,0.8965529781879851,-0.40146061351530316,0,True
2022-04-13,0.8965529781879851,0.8965529781879851,0.0,0,False
2022-04-14,0.8965529781879851,0.8965529781879851,0.0,0,False
2022-04-15,0.8965529781879851,0.8965529781879851,0.0,0,False
2022-04-16,0.8965529781879851,0.8965529781879851,0.0,0,False
2022-04-17,0.8965529781879851,0.8967920389574502,0.026664433143519517,1,True
2022-04-18,0.8967920389574502,0.893306215986055,-0.38869914316451704,6,True
2022-04-19,0.893306215986055,0.893306215986055,0.0,0,False
2022-04-20,0.893306215986055,0.893306215986055,0.0,0,False
2022-04-21,0.893306215986055,0.893306215986055,0.0,0,False
2022-04-22,0.893306215986055,0.893306215986055,0.0,0,False
2022-04-23,0.893306215986055,0.893306215986055,0.0,0,False
2022-04-24,0.893306215986055,0.893306215986055,0.0,0,False
2022-04-25,0.893306215986055,0.893306215986055,0.0,0,False
2022-04-26,0.893306215986055,0.893306215986055,0.0,0,False
2022-04-27,0.893306215986055,0.893306215986055,0.0,0,False
2022-04-28,0.893306215986055,0.893306215986055,0.0,0,False
2022-04-29,0.893306215986055,0.893306215986055,0.0,0,False
2022-04-30,0.893306215986055,0.893306215986055,0.0,0,False
2022-05-01,0.893306215986055,0.893306215986055,0.0,0,False
2022-05-02,0.893306215986055,0.893306215986055,0.0,0,False
2022-05-03,0.893306215986055,0.893306215986055,0.0,0,False
2022-05-04,0.893306215986055,0.893306215986055,0.0,0,False
2022-05-05,0.893306215986055,0.893306215986055,0.0,0,False
2022-05-06,0.893306215986055,0.893306215986055,0.0,0,False
2022-05-07,0.893306215986055,0.893306215986055,0.0,0,False
2022-05-08,0.893306215986055,0.893306215986055,0.0,0,False
2022-05-09,0.893306215986055,0.893306215986055,0.0,0,False
2022-05-10,0.893306215986055,0.893306215986055,0.0,0,False
2022-05-11,0.893306215986055,0.893306215986055,0.0,0,False
2022-05-12,0.893306215986055,0.893306215986055,0.0,0,False
2022-05-13,0.893306215986055,0.893306215986055,0.0,0,False
2022-05-14,0.893306215986055,0.893306215986055,0.0,0,False
2022-05-15,0.893306215986055,0.893306215986055,0.0,0,False
2022-05-16,0.893306215986055,0.893306215986055,0.0,0,False
2022-05-17,0.893306215986055,0.893306215986055,0.0,0,False
2022-05-18,0.893306215986055,0.893306215986055,0.0,0,False
2022-05-19,0.893306215986055,0.893306215986055,0.0,0,False
2022-05-20,0.893306215986055,0.893306215986055,0.0,0,False
2022-05-21,0.893306215986055,0.893306215986055,0.0,0,False
2022-05-22,0.893306215986055,0.893306215986055,0.0,0,False
2022-05-23,0.893306215986055,0.893306215986055,0.0,0,False
2022-05-24,0.893306215986055,0.893306215986055,0.0,0,False
2022-05-25,0.893306215986055,0.893306215986055,0.0,0,False
2022-05-26,0.893306215986055,0.893306215986055,0.0,0,False
2022-05-27,0.893306215986055,0.893306215986055,0.0,0,False
2022-05-28,0.893306215986055,0.893306215986055,0.0,0,False
2022-05-29,0.893306215986055,0.893306215986055,0.0,0,False
2022-05-30,0.893306215986055,0.893306215986055,0.0,0,False
2022-05-31,0.893306215986055,0.893306215986055,0.0,0,False
2022-06-01,0.893306215986055,0.893306215986055,0.0,0,False
2022-06-02,0.893306215986055,0.893306215986055,0.0,0,False
2022-06-03,0.893306215986055,0.893306215986055,0.0,0,False
2022-06-04,0.893306215986055,0.893306215986055,0.0,0,False
2022-06-05,0.893306215986055,0.893306215986055,0.0,0,False
2022-06-06,0.893306215986055,0.893306215986055,0.0,0,False
2022-06-07,0.893306215986055,0.893306215986055,0.0,0,False
2022-06-08,0.893306215986055,0.893306215986055,0.0,0,False
2022-06-09,0.893306215986055,0.893306215986055,0.0,0,False
2022-06-10,0.893306215986055,0.893306215986055,0.0,0,False
2022-06-11,0.893306215986055,0.893306215986055,0.0,0,False
2022-06-12,0.893306215986055,0.893306215986055,0.0,0,False
2022-06-13,0.893306215986055,0.893306215986055,0.0,0,False
2022-06-14,0.893306215986055,0.893306215986055,0.0,0,False
2022-06-15,0.893306215986055,0.893306215986055,0.0,0,False
2022-06-16,0.893306215986055,0.893306215986055,0.0,0,False
2022-06-17,0.893306215986055,0.893306215986055,0.0,0,False
2022-06-18,0.893306215986055,0.893306215986055,0.0,0,False
2022-06-19,0.893306215986055,0.893306215986055,0.0,0,False
2022-06-20,0.893306215986055,0.893306215986055,0.0,0,False
2022-06-21,0.893306215986055,0.893306215986055,0.0,0,False
2022-06-22,0.893306215986055,0.893306215986055,0.0,0,False
2022-06-23,0.893306215986055,0.893306215986055,0.0,0,False
2022-06-24,0.893306215986055,0.893306215986055,0.0,0,False
2022-06-25,0.893306215986055,0.893306215986055,0.0,0,False
2022-06-26,0.893306215986055,0.893306215986055,0.0,0,False
2022-06-27,0.893306215986055,0.893306215986055,0.0,0,False
2022-06-28,0.893306215986055,0.893306215986055,0.0,0,False
2022-06-29,0.893306215986055,0.893306215986055,0.0,0,False
2022-06-30,0.893306215986055,0.893306215986055,0.0,0,False
2022-07-01,0.893306215986055,0.893306215986055,0.0,0,False
2022-07-02,0.893306215986055,0.893306215986055,0.0,0,False
2022-07-03,0.893306215986055,0.893306215986055,0.0,0,False
2022-07-04,0.893306215986055,0.893306215986055,0.0,0,False
2022-07-05,0.893306215986055,0.893306215986055,0.0,0,False
2022-07-06,0.893306215986055,0.893306215986055,0.0,0,False
2022-07-07,0.893306215986055,0.893306215986055,0.0,0,False
2022-07-08,0.893306215986055,0.893306215986055,0.0,0,False
2022-07-09,0.893306215986055,0.893306215986055,0.0,0,False
2022-07-10,0.893306215986055,0.893306215986055,0.0,0,False
2022-07-11,0.893306215986055,0.893306215986055,0.0,0,False
2022-07-12,0.893306215986055,0.893306215986055,0.0,0,False
2022-07-13,0.893306215986055,0.893306215986055,0.0,0,False
2022-07-14,0.893306215986055,0.893306215986055,0.0,0,False
2022-07-15,0.893306215986055,0.893306215986055,0.0,0,False
2022-07-16,0.893306215986055,0.893306215986055,0.0,0,False
2022-07-17,0.893306215986055,0.893306215986055,0.0,0,False
2022-07-18,0.893306215986055,0.893306215986055,0.0,0,False
2022-07-19,0.893306215986055,0.893306215986055,0.0,0,False
2022-07-20,0.893306215986055,0.893306215986055,0.0,0,False
2022-07-21,0.893306215986055,0.893306215986055,0.0,0,False
2022-07-22,0.893306215986055,0.893306215986055,0.0,0,False
2022-07-23,0.893306215986055,0.893306215986055,0.0,0,False
2022-07-24,0.893306215986055,0.893306215986055,0.0,0,False
2022-07-25,0.893306215986055,0.893306215986055,0.0,0,False
2022-07-26,0.893306215986055,0.893306215986055,0.0,0,False
2022-07-27,0.893306215986055,0.893306215986055,0.0,0,False
2022-07-28,0.893306215986055,0.893306215986055,0.0,0,False
2022-07-29,0.893306215986055,0.893306215986055,0.0,0,False
2022-07-30,0.893306215986055,0.893306215986055,0.0,0,False
2022-07-31,0.893306215986055,0.893306215986055,0.0,0,False
2022-08-01,0.893306215986055,0.893306215986055,0.0,0,False
2022-08-02,0.893306215986055,0.893306215986055,0.0,0,False
2022-08-03,0.893306215986055,0.893306215986055,0.0,0,False
2022-08-04,0.893306215986055,0.893306215986055,0.0,0,False
2022-08-05,0.893306215986055,0.893306215986055,0.0,0,False
2022-08-06,0.893306215986055,0.893306215986055,0.0,0,False
2022-08-07,0.893306215986055,0.893306215986055,0.0,0,False
2022-08-08,0.893306215986055,0.893306215986055,0.0,0,False
2022-08-09,0.893306215986055,0.893306215986055,0.0,0,False
2022-08-10,0.893306215986055,0.893306215986055,0.0,0,False
2022-08-11,0.893306215986055,0.893306215986055,0.0,0,False
2022-08-12,0.893306215986055,0.893306215986055,0.0,0,False
2022-08-13,0.893306215986055,0.893306215986055,0.0,0,False
2022-08-14,0.893306215986055,0.893306215986055,0.0,0,False
2022-08-15,0.893306215986055,0.893306215986055,0.0,0,False
2022-08-16,0.893306215986055,0.893306215986055,0.0,0,False
2022-08-17,0.893306215986055,0.893306215986055,0.0,0,False
2022-08-18,0.893306215986055,0.893306215986055,0.0,0,False
2022-08-19,0.893306215986055,0.893306215986055,0.0,0,False
2022-08-20,0.893306215986055,0.893306215986055,0.0,0,False
2022-08-21,0.893306215986055,0.893306215986055,0.0,0,False
2022-08-22,0.893306215986055,0.893306215986055,0.0,0,False
2022-08-23,0.893306215986055,0.893306215986055,0.0,0,False
2022-08-24,0.893306215986055,0.893306215986055,0.0,0,False
2022-08-25,0.893306215986055,0.893306215986055,0.0,0,False
2022-08-26,0.893306215986055,0.893306215986055,0.0,0,False
2022-08-27,0.893306215986055,0.893306215986055,0.0,0,False
2022-08-28,0.893306215986055,0.893306215986055,0.0,0,False
2022-08-29,0.893306215986055,0.893306215986055,0.0,0,False
2022-08-30,0.893306215986055,0.893306215986055,0.0,0,False
2022-08-31,0.893306215986055,0.893306215986055,0.0,0,False
2022-09-01,0.893306215986055,0.893306215986055,0.0,0,False
2022-09-02,0.893306215986055,0.893306215986055,0.0,0,False
2022-09-03,0.893306215986055,0.893306215986055,0.0,0,False
2022-09-04,0.893306215986055,0.893306215986055,0.0,0,False
2022-09-05,0.893306215986055,0.893306215986055,0.0,0,False
2022-09-06,0.893306215986055,0.893306215986055,0.0,0,False
2022-09-07,0.893306215986055,0.893306215986055,0.0,0,False
2022-09-08,0.893306215986055,0.893306215986055,0.0,0,False
2022-09-09,0.893306215986055,0.893306215986055,0.0,0,False
2022-09-10,0.893306215986055,0.893306215986055,0.0,0,False
2022-09-11,0.893306215986055,0.893306215986055,0.0,0,False
2022-09-12,0.893306215986055,0.893306215986055,0.0,0,False
2022-09-13,0.893306215986055,0.893306215986055,0.0,0,False
2022-09-14,0.893306215986055,0.893306215986055,0.0,0,False
2022-09-15,0.893306215986055,0.893306215986055,0.0,0,False
2022-09-16,0.893306215986055,0.893306215986055,0.0,0,False
2022-09-17,0.893306215986055,0.893306215986055,0.0,0,False
2022-09-18,0.893306215986055,0.893306215986055,0.0,0,False
2022-09-19,0.893306215986055,0.893306215986055,0.0,0,False
2022-09-20,0.893306215986055,0.893306215986055,0.0,0,False
2022-09-21,0.893306215986055,0.893306215986055,0.0,0,False
2022-09-22,0.893306215986055,0.893306215986055,0.0,0,False
2022-09-23,0.893306215986055,0.893306215986055,0.0,0,False
2022-09-24,0.893306215986055,0.893306215986055,0.0,0,False
2022-09-25,0.893306215986055,0.893306215986055,0.0,0,False
2022-09-26,0.893306215986055,0.893306215986055,0.0,0,False
2022-09-27,0.893306215986055,0.893306215986055,0.0,0,False
2022-09-28,0.893306215986055,0.893306215986055,0.0,0,False
2022-09-29,0.893306215986055,0.893306215986055,0.0,0,False
2022-09-30,0.893306215986055,0.893306215986055,0.0,0,False
2022-10-01,0.893306215986055,0.893306215986055,0.0,0,False
2022-10-02,0.893306215986055,0.893306215986055,0.0,0,False
2022-10-03,0.893306215986055,0.893306215986055,0.0,0,False
2022-10-04,0.893306215986055,0.893306215986055,0.0,0,False
2022-10-05,0.893306215986055,0.893306215986055,0.0,0,False
2022-10-06,0.893306215986055,0.893306215986055,0.0,0,False
2022-10-07,0.893306215986055,0.893306215986055,0.0,0,False
2022-10-08,0.893306215986055,0.893306215986055,0.0,0,False
2022-10-09,0.893306215986055,0.893306215986055,0.0,0,False
2022-10-10,0.893306215986055,0.893306215986055,0.0,0,False
2022-10-11,0.893306215986055,0.893306215986055,0.0,0,False
2022-10-12,0.893306215986055,0.893306215986055,0.0,0,False
2022-10-13,0.893306215986055,0.893306215986055,0.0,0,False
2022-10-14,0.893306215986055,0.893306215986055,0.0,0,False
2022-10-15,0.893306215986055,0.893306215986055,0.0,0,False
2022-10-16,0.893306215986055,0.893306215986055,0.0,0,False
2022-10-17,0.893306215986055,0.893306215986055,0.0,0,False
2022-10-18,0.893306215986055,0.893306215986055,0.0,0,False
2022-10-19,0.893306215986055,0.893306215986055,0.0,0,False
2022-10-20,0.893306215986055,0.893306215986055,0.0,0,False
2022-10-21,0.893306215986055,0.893306215986055,0.0,0,False
2022-10-22,0.893306215986055,0.893306215986055,0.0,0,False
2022-10-23,0.893306215986055,0.893306215986055,0.0,0,False
2022-10-24,0.893306215986055,0.893306215986055,0.0,0,False
2022-10-25,0.893306215986055,0.893306215986055,0.0,0,False
2022-10-26,0.893306215986055,0.893306215986055,0.0,0,False
2022-10-27,0.893306215986055,0.893306215986055,0.0,0,False
2022-10-28,0.893306215986055,0.893306215986055,0.0,0,False
2022-10-29,0.893306215986055,0.893306215986055,0.0,0,False
2022-10-30,0.893306215986055,0.893306215986055,0.0,0,False
2022-10-31,0.893306215986055,0.893306215986055,0.0,0,False
2022-11-01,0.893306215986055,0.893306215986055,0.0,0,False
2022-11-02,0.893306215986055,0.893306215986055,0.0,0,False
2022-11-03,0.893306215986055,0.893306215986055,0.0,0,False
2022-11-04,0.893306215986055,0.893306215986055,0.0,0,False
2022-11-05,0.893306215986055,0.893306215986055,0.0,0,False
2022-11-06,0.893306215986055,0.893306215986055,0.0,0,False
2022-11-07,0.893306215986055,0.893306215986055,0.0,0,False
2022-11-08,0.893306215986055,0.893306215986055,0.0,0,False
2022-11-09,0.893306215986055,0.893306215986055,0.0,0,False
2022-11-10,0.893306215986055,0.893306215986055,0.0,0,False
2022-11-11,0.893306215986055,0.893306215986055,0.0,0,False
2022-11-12,0.893306215986055,0.893306215986055,0.0,0,False
2022-11-13,0.893306215986055,0.893306215986055,0.0,0,False
2022-11-14,0.893306215986055,0.893306215986055,0.0,0,False
2022-11-15,0.893306215986055,0.893306215986055,0.0,0,False
2022-11-16,0.893306215986055,0.893306215986055,0.0,0,False
2022-11-17,0.893306215986055,0.893306215986055,0.0,0,False
2022-11-18,0.893306215986055,0.893306215986055,0.0,0,False
2022-11-19,0.893306215986055,0.893306215986055,0.0,0,False
2022-11-20,0.893306215986055,0.893306215986055,0.0,0,False
2022-11-21,0.893306215986055,0.893306215986055,0.0,0,False
2022-11-22,0.893306215986055,0.893306215986055,0.0,0,False
2022-11-23,0.893306215986055,0.893306215986055,0.0,0,False
2022-11-24,0.893306215986055,0.893306215986055,0.0,0,False
2022-11-25,0.893306215986055,0.893306215986055,0.0,0,False
2022-11-26,0.893306215986055,0.893306215986055,0.0,0,False
2022-11-27,0.893306215986055,0.893306215986055,0.0,0,False
2022-11-28,0.893306215986055,0.893306215986055,0.0,0,False
2022-11-29,0.893306215986055,0.893306215986055,0.0,0,False
2022-11-30,0.893306215986055,0.893306215986055,0.0,0,False
2022-12-01,0.893306215986055,0.893306215986055,0.0,0,False
2022-12-02,0.893306215986055,0.893306215986055,0.0,0,False
2022-12-03,0.893306215986055,0.893306215986055,0.0,0,False
2022-12-04,0.893306215986055,0.893306215986055,0.0,0,False
2022-12-05,0.893306215986055,0.893306215986055,0.0,0,False
2022-12-06,0.893306215986055,0.893306215986055,0.0,0,False
2022-12-07,0.893306215986055,0.893306215986055,0.0,0,False
2022-12-08,0.893306215986055,0.893306215986055,0.0,0,False
2022-12-09,0.893306215986055,0.893306215986055,0.0,0,False
2022-12-10,0.893306215986055,0.893306215986055,0.0,0,False
2022-12-11,0.893306215986055,0.893306215986055,0.0,0,False
2022-12-12,0.893306215986055,0.893306215986055,0.0,0,False
2022-12-13,0.893306215986055,0.893306215986055,0.0,0,False
2022-12-14,0.893306215986055,0.893306215986055,0.0,0,False
2022-12-15,0.893306215986055,0.893306215986055,0.0,0,False
2022-12-16,0.893306215986055,0.893306215986055,0.0,0,False
2022-12-17,0.893306215986055,0.893306215986055,0.0,0,False
2022-12-18,0.893306215986055,0.893306215986055,0.0,0,False
2022-12-19,0.893306215986055,0.893306215986055,0.0,0,False
2022-12-20,0.893306215986055,0.893306215986055,0.0,0,False
2022-12-21,0.893306215986055,0.893306215986055,0.0,0,False
2022-12-22,0.893306215986055,0.893306215986055,0.0,0,False
2022-12-23,0.893306215986055,0.893306215986055,0.0,0,False
2022-12-24,0.893306215986055,0.893306215986055,0.0,0,False
2022-12-25,0.893306215986055,0.893306215986055,0.0,0,False
2022-12-26,0.893306215986055,0.893306215986055,0.0,0,False
2022-12-27,0.893306215986055,0.893306215986055,0.0,0,False
2022-12-28,0.893306215986055,0.893306215986055,0.0,0,False
2022-12-29,0.893306215986055,0.893306215986055,0.0,0,False
2022-12-30,0.893306215986055,0.893306215986055,0.0,0,False
2022-12-31,0.893306215986055,0.893306215986055,0.0,0,False
2023-01-01,0.893306215986055,0.893306215986055,0.0,0,False
2023-01-02,0.893306215986055,0.893306215986055,0.0,0,False
2023-01-03,0.893306215986055,0.893306215986055,0.0,0,False
2023-01-04,0.893306215986055,0.893306215986055,0.0,0,False
2023-01-05,0.893306215986055,0.893306215986055,0.0,0,False
2023-01-06,0.893306215986055,0.893306215986055,0.0,0,False
2023-01-07,0.893306215986055,0.893306215986055,0.0,0,False
2023-01-08,0.893306215986055,0.893306215986055,0.0,0,False
2023-01-09,0.893306215986055,0.893306215986055,0.0,0,False
2023-01-10,0.893306215986055,0.893306215986055,0.0,0,False
2023-01-11,0.893306215986055,0.893306215986055,0.0,0,False
2023-01-12,0.893306215986055,0.893306215986055,0.0,0,False
2023-01-13,0.893306215986055,0.893306215986055,0.0,0,False
2023-01-14,0.893306215986055,0.893306215986055,0.0,0,False
2023-01-15,0.893306215986055,0.893306215986055,0.0,0,False
2023-01-16,0.893306215986055,0.893306215986055,0.0,0,False
2023-01-17,0.893306215986055,0.893306215986055,0.0,0,False
2023-01-18,0.893306215986055,0.893306215986055,0.0,0,False
2023-01-19,0.893306215986055,0.893306215986055,0.0,0,False
2023-01-20,0.893306215986055,0.893306215986055,0.0,0,False
2023-01-21,0.893306215986055,0.893306215986055,0.0,0,False
2023-01-22,0.893306215986055,0.893306215986055,0.0,0,False
2023-01-23,0.893306215986055,0.893306215986055,0.0,0,False
2023-01-24,0.893306215986055,0.893306215986055,0.0,0,False
2023-01-25,0.893306215986055,0.893306215986055,0.0,0,False
2023-01-26,0.893306215986055,0.893306215986055,0.0,0,False
2023-01-27,0.893306215986055,0.893306215986055,0.0,0,False
2023-01-28,0.893306215986055,0.893306215986055,0.0,0,False
2023-01-29,0.893306215986055,0.893306215986055,0.0,0,False
2023-01-30,0.893306215986055,0.893306215986055,0.0,0,False
2023-01-31,0.893306215986055,0.893306215986055,0.0,0,False
2023-02-01,0.893306215986055,0.893306215986055,0.0,0,False
2023-02-02,0.893306215986055,0.893306215986055,0.0,0,False
2023-02-03,0.893306215986055,0.893306215986055,0.0,0,False
2023-02-04,0.893306215986055,0.893306215986055,0.0,0,False
2023-02-05,0.893306215986055,0.893306215986055,0.0,0,False
2023-02-06,0.893306215986055,0.893306215986055,0.0,0,False
2023-02-07,0.893306215986055,0.893306215986055,0.0,0,False
2023-02-08,0.893306215986055,0.893306215986055,0.0,0,False
2023-02-09,0.893306215986055,0.893306215986055,0.0,0,False
2023-02-10,0.893306215986055,0.893306215986055,0.0,0,False
2023-02-11,0.893306215986055,0.893306215986055,0.0,0,False
2023-02-12,0.893306215986055,0.893306215986055,0.0,0,False
2023-02-13,0.893306215986055,0.893306215986055,0.0,0,False
2023-02-14,0.893306215986055,0.893306215986055,0.0,0,False
2023-02-15,0.893306215986055,0.893306215986055,0.0,0,False
2023-02-16,0.893306215986055,0.893306215986055,0.0,0,False
2023-02-17,0.893306215986055,0.893306215986055,0.0,0,False
2023-02-18,0.893306215986055,0.893306215986055,0.0,0,False
2023-02-19,0.893306215986055,0.893306215986055,0.0,0,False
2023-02-20,0.893306215986055,0.893306215986055,0.0,0,False
2023-02-21,0.893306215986055,0.893306215986055,0.0,0,False
2023-02-22,0.893306215986055,0.893306215986055,0.0,0,False
2023-02-23,0.893306215986055,0.893306215986055,0.0,0,False
2023-02-24,0.893306215986055,0.893306215986055,0.0,0,False
2023-02-25,0.893306215986055,0.893306215986055,0.0,0,False
2023-02-26,0.893306215986055,0.893306215986055,0.0,0,False
2023-02-27,0.893306215986055,0.893306215986055,0.0,0,False
2023-02-28,0.893306215986055,0.893306215986055,0.0,0,False
2023-03-01,0.893306215986055,0.893306215986055,0.0,0,False
2023-03-02,0.893306215986055,0.893306215986055,0.0,0,False
2023-03-03,0.893306215986055,0.893306215986055,0.0,0,False
2023-03-04,0.893306215986055,0.893306215986055,0.0,0,False
2023-03-05,0.893306215986055,0.893306215986055,0.0,0,False
2023-03-06,0.893306215986055,0.893306215986055,0.0,0,False
2023-03-07,0.893306215986055,0.893306215986055,0.0,0,False
2023-03-08,0.893306215986055,0.893306215986055,0.0,0,False
2023-03-09,0.893306215986055,0.893306215986055,0.0,0,False
2023-03-10,0.893306215986055,0.893306215986055,0.0,0,False
2023-03-11,0.893306215986055,0.893306215986055,0.0,0,False
2023-03-12,0.893306215986055,0.893306215986055,0.0,0,False
2023-03-13,0.893306215986055,0.893306215986055,0.0,0,False
2023-03-14,0.893306215986055,0.893306215986055,0.0,0,False
2023-03-15,0.893306215986055,0.893306215986055,0.0,0,False
2023-03-16,0.893306215986055,0.893306215986055,0.0,0,False
2023-03-17,0.893306215986055,0.893306215986055,0.0,0,False
2023-03-18,0.893306215986055,0.893306215986055,0.0,0,False
2023-03-19,0.893306215986055,0.893306215986055,0.0,0,False
2023-03-20,0.893306215986055,0.893306215986055,0.0,0,False
2023-03-21,0.893306215986055,0.893306215986055,0.0,0,False
2023-03-22,0.893306215986055,0.893306215986055,0.0,0,False
2023-03-23,0.893306215986055,0.893306215986055,0.0,0,False
2023-03-24,0.893306215986055,0.893306215986055,0.0,0,False
2023-03-25,0.893306215986055,0.893306215986055,0.0,0,False
2023-03-26,0.893306215986055,0.893306215986055,0.0,0,False
2023-03-27,0.893306215986055,0.893306215986055,0.0,0,False
2023-03-28,0.893306215986055,0.893306215986055,0.0,0,False
2023-03-29,0.893306215986055,0.893306215986055,0.0,0,False
2023-03-30,0.893306215986055,0.893306215986055,0.0,0,False
2023-03-31,0.893306215986055,0.893306215986055,0.0,0,False
2023-04-01,0.893306215986055,0.893306215986055,0.0,0,False
2023-04-02,0.893306215986055,0.893306215986055,0.0,0,False
2023-04-03,0.893306215986055,0.893306215986055,0.0,0,False
2023-04-04,0.893306215986055,0.893306215986055,0.0,0,False
2023-04-05,0.893306215986055,0.893306215986055,0.0,0,False
2023-04-06,0.893306215986055,0.893306215986055,0.0,0,False
2023-04-07,0.893306215986055,0.893306215986055,0.0,0,False
2023-04-08,0.893306215986055,0.893306215986055,0.0,0,False
2023-04-09,0.893306215986055,0.893306215986055,0.0,0,False
2023-04-10,0.893306215986055,0.893306215986055,0.0,0,False
2023-04-11,0.893306215986055,0.893306215986055,0.0,0,False
2023-04-12,0.893306215986055,0.893306215986055,0.0,0,False
2023-04-13,0.893306215986055,0.893306215986055,0.0,0,False
2023-04-14,0.893306215986055,0.893306215986055,0.0,0,False
2023-04-15,0.893306215986055,0.893306215986055,0.0,0,False
2023-04-16,0.893306215986055,0.893306215986055,0.0,0,False
2023-04-17,0.893306215986055,0.893306215986055,0.0,0,False
2023-04-18,0.893306215986055,0.893306215986055,0.0,0,False
2023-04-19,0.893306215986055,0.893306215986055,0.0,0,False
2023-04-20,0.893306215986055,0.893306215986055,0.0,0,False
2023-04-21,0.893306215986055,0.893306215986055,0.0,0,False
2023-04-22,0.893306215986055,0.893306215986055,0.0,0,False
2023-04-23,0.893306215986055,0.893306215986055,0.0,0,False
2023-04-24,0.893306215986055,0.893306215986055,0.0,0,False
2023-04-25,0.893306215986055,0.893306215986055,0.0,0,False
2023-04-26,0.893306215986055,0.893306215986055,0.0,0,False
2023-04-27,0.893306215986055,0.893306215986055,0.0,0,False
2023-04-28,0.893306215986055,0.893306215986055,0.0,0,False
2023-04-29,0.893306215986055,0.893306215986055,0.0,0,False
2023-04-30,0.893306215986055,0.893306215986055,0.0,0,False
2023-05-01,0.893306215986055,0.893306215986055,0.0,0,False
2023-05-02,0.893306215986055,0.893306215986055,0.0,0,False
2023-05-03,0.893306215986055,0.893306215986055,0.0,0,False
2023-05-04,0.893306215986055,0.893306215986055,0.0,0,False
2023-05-05,0.893306215986055,0.893306215986055,0.0,0,False
2023-05-06,0.893306215986055,0.893306215986055,0.0,0,False
2023-05-07,0.893306215986055,0.893306215986055,0.0,0,False
2023-05-08,0.893306215986055,0.893306215986055,0.0,0,False
2023-05-09,0.893306215986055,0.893306215986055,0.0,0,False
2023-05-10,0.893306215986055,0.893306215986055,0.0,0,False
2023-05-11,0.893306215986055,0.893306215986055,0.0,0,False
2023-05-12,0.893306215986055,0.893306215986055,0.0,0,False
2023-05-13,0.893306215986055,0.893306215986055,0.0,0,False
2023-05-14,0.893306215986055,0.893306215986055,0.0,0,False
2023-05-15,0.893306215986055,0.893306215986055,0.0,0,False
2023-05-16,0.893306215986055,0.893306215986055,0.0,0,False
2023-05-17,0.893306215986055,0.893306215986055,0.0,0,False
2023-05-18,0.893306215986055,0.893306215986055,0.0,0,False
2023-05-19,0.893306215986055,0.893306215986055,0.0,0,False
2023-05-20,0.893306215986055,0.893306215986055,0.0,0,False
2023-05-21,0.893306215986055,0.893306215986055,0.0,0,False
2023-05-22,0.893306215986055,0.893306215986055,0.0,0,False
2023-05-23,0.893306215986055,0.893306215986055,0.0,0,False
2023-05-24,0.893306215986055,0.893306215986055,0.0,0,False
2023-05-25,0.893306215986055,0.893306215986055,0.0,0,False
2023-05-26,0.893306215986055,0.893306215986055,0.0,0,False
2023-05-27,0.893306215986055,0.893306215986055,0.0,0,False
2023-05-28,0.893306215986055,0.893306215986055,0.0,0,False
2023-05-29,0.893306215986055,0.893306215986055,0.0,0,False
2023-05-30,0.893306215986055,0.893306215986055,0.0,0,False
2023-05-31,0.893306215986055,0.893306215986055,0.0,0,False
2023-06-01,0.893306215986055,0.893306215986055,0.0,0,False
2023-06-02,0.893306215986055,0.893306215986055,0.0,0,False
2023-06-03,0.893306215986055,0.893306215986055,0.0,0,False
2023-06-04,0.893306215986055,0.893306215986055,0.0,0,False
2023-06-05,0.893306215986055,0.893306215986055,0.0,0,False
2023-06-06,0.893306215986055,0.893306215986055,0.0,0,False
2023-06-07,0.893306215986055,0.893306215986055,0.0,0,False
2023-06-08,0.893306215986055,0.893306215986055,0.0,0,False
2023-06-09,0.893306215986055,0.893306215986055,0.0,0,False
2023-06-10,0.893306215986055,0.893306215986055,0.0,0,False
2023-06-11,0.893306215986055,0.893306215986055,0.0,0,False
2023-06-12,0.893306215986055,0.893306215986055,0.0,0,False
2023-06-13,0.893306215986055,0.893306215986055,0.0,0,False
2023-06-14,0.893306215986055,0.893306215986055,0.0,0,False
2023-06-15,0.893306215986055,0.893306215986055,0.0,0,False
2023-06-16,0.893306215986055,0.893306215986055,0.0,0,False
2023-06-17,0.893306215986055,0.893306215986055,0.0,0,False
2023-06-18,0.893306215986055,0.893306215986055,0.0,0,False
2023-06-19,0.893306215986055,0.893306215986055,0.0,0,False
2023-06-20,0.893306215986055,0.893306215986055,0.0,0,False
2023-06-21,0.893306215986055,0.893306215986055,0.0,0,False
2023-06-22,0.893306215986055,0.893306215986055,0.0,0,False
2023-06-23,0.893306215986055,0.893306215986055,0.0,0,False
2023-06-24,0.893306215986055,0.893306215986055,0.0,0,False
2023-06-25,0.893306215986055,0.893306215986055,0.0,0,False
2023-06-26,0.893306215986055,0.893306215986055,0.0,0,False
2023-06-27,0.893306215986055,0.893306215986055,0.0,0,False
2023-06-28,0.893306215986055,0.893306215986055,0.0,0,False
2023-06-29,0.893306215986055,0.893306215986055,0.0,0,False
2023-06-30,0.893306215986055,0.893306215986055,0.0,0,False
2023-07-01,0.893306215986055,0.893306215986055,0.0,0,False
2023-07-02,0.893306215986055,0.893306215986055,0.0,0,False
2023-07-03,0.893306215986055,0.893306215986055,0.0,0,False
2023-07-04,0.893306215986055,0.893306215986055,0.0,0,False
2023-07-05,0.893306215986055,0.893306215986055,0.0,0,False
2023-07-06,0.893306215986055,0.893306215986055,0.0,0,False
2023-07-07,0.893306215986055,0.893306215986055,0.0,0,False
2023-07-08,0.893306215986055,0.893306215986055,0.0,0,False
2023-07-09,0.893306215986055,0.893306215986055,0.0,0,False
2023-07-10,0.893306215986055,0.893306215986055,0.0,0,False
2023-07-11,0.893306215986055,0.893306215986055,0.0,0,False
2023-07-12,0.893306215986055,0.893306215986055,0.0,0,False
2023-07-13,0.893306215986055,0.893306215986055,0.0,0,False
2023-07-14,0.893306215986055,0.893306215986055,0.0,0,False
2023-07-15,0.893306215986055,0.893306215986055,0.0,0,False
2023-07-16,0.893306215986055,0.893306215986055,0.0,0,False
2023-07-17,0.893306215986055,0.893306215986055,0.0,0,False
2023-07-18,0.893306215986055,0.893306215986055,0.0,0,False
2023-07-19,0.893306215986055,0.893306215986055,0.0,0,False
2023-07-20,0.893306215986055,0.893306215986055,0.0,0,False
2023-07-21,0.893306215986055,0.893306215986055,0.0,0,False
2023-07-22,0.893306215986055,0.893306215986055,0.0,0,False
2023-07-23,0.893306215986055,0.893306215986055,0.0,0,False
2023-07-24,0.893306215986055,0.893306215986055,0.0,0,False
2023-07-25,0.893306215986055,0.893306215986055,0.0,0,False
2023-07-26,0.893306215986055,0.893306215986055,0.0,0,False
2023-07-27,0.893306215986055,0.893306215986055,0.0,0,False
2023-07-28,0.893306215986055,0.893306215986055,0.0,0,False
2023-07-29,0.893306215986055,0.893306215986055,0.0,0,False
2023-07-30,0.893306215986055,0.893306215986055,0.0,0,False
2023-07-31,0.893306215986055,0.893306215986055,0.0,0,False
2023-08-01,0.893306215986055,0.893306215986055,0.0,0,False
2023-08-02,0.893306215986055,0.893306215986055,0.0,0,False
2023-08-03,0.893306215986055,0.893306215986055,0.0,0,False
2023-08-04,0.893306215986055,0.893306215986055,0.0,0,False
2023-08-05,0.893306215986055,0.893306215986055,0.0,0,False
2023-08-06,0.893306215986055,0.893306215986055,0.0,0,False
2023-08-07,0.893306215986055,0.893306215986055,0.0,0,False
2023-08-08,0.893306215986055,0.893306215986055,0.0,0,False
2023-08-09,0.893306215986055,0.893306215986055,0.0,0,False
2023-08-10,0.893306215986055,0.893306215986055,0.0,0,False
2023-08-11,0.893306215986055,0.893306215986055,0.0,0,False
2023-08-12,0.893306215986055,0.893306215986055,0.0,0,False
2023-08-13,0.893306215986055,0.893306215986055,0.0,0,False
2023-08-14,0.893306215986055,0.893306215986055,0.0,0,False
2023-08-15,0.893306215986055,0.893306215986055,0.0,0,False
2023-08-16,0.893306215986055,0.893306215986055,0.0,0,False
2023-08-17,0.893306215986055,0.893306215986055,0.0,0,False
2023-08-18,0.893306215986055,0.893306215986055,0.0,0,False
2023-08-19,0.893306215986055,0.893306215986055,0.0,0,False
2023-08-20,0.893306215986055,0.893306215986055,0.0,0,False
2023-08-21,0.893306215986055,0.893306215986055,0.0,0,False
2023-08-22,0.893306215986055,0.893306215986055,0.0,0,False
2023-08-23,0.893306215986055,0.893306215986055,0.0,0,False
2023-08-24,0.893306215986055,0.893306215986055,0.0,0,False
2023-08-25,0.893306215986055,0.893306215986055,0.0,0,False
2023-08-26,0.893306215986055,0.893306215986055,0.0,0,False
2023-08-27,0.893306215986055,0.893306215986055,0.0,0,False
2023-08-28,0.893306215986055,0.893306215986055,0.0,0,False
2023-08-29,0.893306215986055,0.893306215986055,0.0,0,False
2023-08-30,0.893306215986055,0.893306215986055,0.0,0,False
2023-08-31,0.893306215986055,0.893306215986055,0.0,0,False
2023-09-01,0.893306215986055,0.893306215986055,0.0,0,False
2023-09-02,0.893306215986055,0.893306215986055,0.0,0,False
2023-09-03,0.893306215986055,0.893306215986055,0.0,0,False
2023-09-04,0.893306215986055,0.893306215986055,0.0,0,False
2023-09-05,0.893306215986055,0.893306215986055,0.0,0,False
2023-09-06,0.893306215986055,0.893306215986055,0.0,0,False
2023-09-07,0.893306215986055,0.893306215986055,0.0,0,False
2023-09-08,0.893306215986055,0.893306215986055,0.0,0,False
2023-09-09,0.893306215986055,0.893306215986055,0.0,0,False
2023-09-10,0.893306215986055,0.893306215986055,0.0,0,False
2023-09-11,0.893306215986055,0.893306215986055,0.0,0,False
2023-09-12,0.893306215986055,0.893306215986055,0.0,0,False
2023-09-13,0.893306215986055,0.893306215986055,0.0,0,False
2023-09-14,0.893306215986055,0.893306215986055,0.0,0,False
2023-09-15,0.893306215986055,0.893306215986055,0.0,0,False
2023-09-16,0.893306215986055,0.893306215986055,0.0,0,False
2023-09-17,0.893306215986055,0.893306215986055,0.0,0,False
2023-09-18,0.893306215986055,0.893306215986055,0.0,0,False
2023-09-19,0.893306215986055,0.893306215986055,0.0,0,False
2023-09-20,0.893306215986055,0.893306215986055,0.0,0,False
2023-09-21,0.893306215986055,0.893306215986055,0.0,0,False
2023-09-22,0.893306215986055,0.893306215986055,0.0,0,False
2023-09-23,0.893306215986055,0.893306215986055,0.0,0,False
2023-09-24,0.893306215986055,0.893306215986055,0.0,0,False
2023-09-25,0.893306215986055,0.893306215986055,0.0,0,False
2023-09-26,0.893306215986055,0.893306215986055,0.0,0,False
2023-09-27,0.893306215986055,0.893306215986055,0.0,0,False
2023-09-28,0.893306215986055,0.893306215986055,0.0,0,False
2023-09-29,0.893306215986055,0.893306215986055,0.0,0,False
2023-09-30,0.893306215986055,0.893306215986055,0.0,0,False
2023-10-01,0.893306215986055,0.893306215986055,0.0,0,False
2023-10-02,0.893306215986055,0.893306215986055,0.0,0,False
2023-10-03,0.893306215986055,0.893306215986055,0.0,0,False
2023-10-04,0.893306215986055,0.893306215986055,0.0,0,False
2023-10-05,0.893306215986055,0.893306215986055,0.0,0,False
2023-10-06,0.893306215986055,0.893306215986055,0.0,0,False
2023-10-07,0.893306215986055,0.893306215986055,0.0,0,False
2023-10-08,0.893306215986055,0.893306215986055,0.0,0,False
2023-10-09,0.893306215986055,0.893306215986055,0.0,0,False
2023-10-10,0.893306215986055,0.893306215986055,0.0,0,False
2023-10-11,0.893306215986055,0.893306215986055,0.0,0,False
2023-10-12,0.893306215986055,0.893306215986055,0.0,0,False
2023-10-13,0.893306215986055,0.893306215986055,0.0,0,False
2023-10-14,0.893306215986055,0.893306215986055,0.0,0,False
2023-10-15,0.893306215986055,0.893306215986055,0.0,0,False
2023-10-16,0.893306215986055,0.893306215986055,0.0,0,False
2023-10-17,0.893306215986055,0.893306215986055,0.0,0,False
2023-10-18,0.893306215986055,0.893306215986055,0.0,0,False
2023-10-19,0.893306215986055,0.893306215986055,0.0,0,False
2023-10-20,0.893306215986055,0.893306215986055,0.0,0,False
2023-10-21,0.893306215986055,0.893306215986055,0.0,0,False
2023-10-22,0.893306215986055,0.893306215986055,0.0,0,False
2023-10-23,0.893306215986055,0.893306215986055,0.0,0,False
2023-10-24,0.893306215986055,0.893306215986055,0.0,0,False
2023-10-25,0.893306215986055,0.893306215986055,0.0,0,False
2023-10-26,0.893306215986055,0.893306215986055,0.0,0,False
2023-10-27,0.893306215986055,0.893306215986055,0.0,0,False
2023-10-28,0.893306215986055,0.893306215986055,0.0,0,False
2023-10-29,0.893306215986055,0.893306215986055,0.0,0,False
2023-10-30,0.893306215986055,0.893306215986055,0.0,0,False
2023-10-31,0.893306215986055,0.893306215986055,0.0,0,False
2023-11-01,0.893306215986055,0.893306215986055,0.0,0,False
2023-11-02,0.893306215986055,0.893306215986055,0.0,0,False
2023-11-03,0.893306215986055,0.893306215986055,0.0,0,False
2023-11-04,0.893306215986055,0.893306215986055,0.0,0,False
2023-11-05,0.893306215986055,0.893306215986055,0.0,0,False
2023-11-06,0.893306215986055,0.893306215986055,0.0,0,False
2023-11-07,0.893306215986055,0.893306215986055,0.0,0,False
2023-11-08,0.893306215986055,0.893306215986055,0.0,0,False
2023-11-09,0.893306215986055,0.893306215986055,0.0,0,False
2023-11-10,0.893306215986055,0.893306215986055,0.0,0,False
2023-11-11,0.893306215986055,0.893306215986055,0.0,0,False
2023-11-12,0.893306215986055,0.893306215986055,0.0,0,False
2023-11-13,0.893306215986055,0.893306215986055,0.0,0,False
2023-11-14,0.893306215986055,0.893306215986055,0.0,0,False
2023-11-15,0.893306215986055,0.893306215986055,0.0,0,False
2023-11-16,0.893306215986055,0.893306215986055,0.0,0,False
2023-11-17,0.893306215986055,0.893306215986055,0.0,0,False
2023-11-18,0.893306215986055,0.893306215986055,0.0,0,False
2023-11-19,0.893306215986055,0.893306215986055,0.0,0,False
2023-11-20,0.893306215986055,0.893306215986055,0.0,0,False
2023-11-21,0.893306215986055,0.893306215986055,0.0,0,False
2023-11-22,0.893306215986055,0.893306215986055,0.0,0,False
2023-11-23,0.893306215986055,0.893306215986055,0.0,0,False
2023-11-24,0.893306215986055,0.893306215986055,0.0,0,False
2023-11-25,0.893306215986055,0.893306215986055,0.0,0,False
2023-11-26,0.893306215986055,0.893306215986055,0.0,0,False
2023-11-27,0.893306215986055,0.893306215986055,0.0,0,False
2023-11-28,0.893306215986055,0.893306215986055,0.0,0,False
2023-11-29,0.893306215986055,0.893306215986055,0.0,0,False
2023-11-30,0.893306215986055,0.893306215986055,0.0,0,False
2023-12-01,0.893306215986055,0.893306215986055,0.0,0,False
2023-12-02,0.893306215986055,0.893306215986055,0.0,0,False
2023-12-03,0.893306215986055,0.893306215986055,0.0,0,False
2023-12-04,0.893306215986055,0.893306215986055,0.0,0,False
2023-12-05,0.893306215986055,0.893306215986055,0.0,0,False
2023-12-06,0.893306215986055,0.893306215986055,0.0,0,False
2023-12-07,0.893306215986055,0.893306215986055,0.0,0,False
2023-12-08,0.893306215986055,0.893306215986055,0.0,0,False
2023-12-09,0.893306215986055,0.893306215986055,0.0,0,False
2023-12-10,0.893306215986055,0.893306215986055,0.0,0,False
2023-12-11,0.893306215986055,0.893306215986055,0.0,0,False
2023-12-12,0.893306215986055,0.893306215986055,0.0,0,False
2023-12-13,0.893306215986055,0.893306215986055,0.0,0,False
2023-12-14,0.893306215986055,0.893306215986055,0.0,0,False
2023-12-15,0.893306215986055,0.893306215986055,0.0,0,False
2023-12-16,0.893306215986055,0.893306215986055,0.0,0,False
2023-12-17,0.893306215986055,0.893306215986055,0.0,0,False
2023-12-18,0.893306215986055,0.893306215986055,0.0,0,False
2023-12-19,0.893306215986055,0.893306215986055,0.0,0,False
2023-12-20,0.893306215986055,0.893306215986055,0.0,0,False
2023-12-21,0.893306215986055,0.893306215986055,0.0,0,False
2023-12-22,0.893306215986055,0.893306215986055,0.0,0,False
2023-12-23,0.893306215986055,0.893306215986055,0.0,0,False
2023-12-24,0.893306215986055,0.893306215986055,0.0,0,False
2023-12-25,0.893306215986055,0.893306215986055,0.0,0,False
2023-12-26,0.893306215986055,0.893306215986055,0.0,0,False
2023-12-27,0.893306215986055,0.893306215986055,0.0,0,False
2023-12-28,0.893306215986055,0.893306215986055,0.0,0,False
2023-12-29,0.893306215986055,0.893306215986055,0.0,0,False
2023-12-30,0.893306215986055,0.893306215986055,0.0,0,False
2023-12-31,0.893306215986055,0.893306215986055,0.0,0,False
