day,start_equity,end_equity,return_pct,entries,active
2021-09-02,1.0,1.0,0.0,0,False
2021-09-03,1.0,1.0,0.0,0,False
2021-09-04,1.0,1.0,0.0,0,False
2021-09-05,1.0,1.0,0.0,0,False
2021-09-06,1.0,1.0,0.0,0,False
2021-09-07,1.0,1.0,0.0,0,False
2021-09-08,1.0,1.0,0.0,0,False
2021-09-09,1.0,1.0,0.0,0,False
2021-09-10,1.0,1.0,0.0,0,False
2021-09-11,1.0,1.0,0.0,0,False
2021-09-12,1.0,1.0,0.0,0,False
2021-09-13,1.0,1.0,0.0,0,False
2021-09-14,1.0,1.0,0.0,0,False
2021-09-15,1.0,1.0,0.0,0,False
2021-09-16,1.0,1.0,0.0,0,False
2021-09-17,1.0,1.0,0.0,0,False
2021-09-18,1.0,1.0,0.0,0,False
2021-09-19,1.0,1.0,0.0,0,False
2021-09-20,1.0,1.0,0.0,0,False
2021-09-21,1.0,1.0,0.0,0,False
2021-09-22,1.0,1.0,0.0,0,False
2021-09-23,1.0,1.0,0.0,0,False
2021-09-24,1.0,1.0,0.0,0,False
2021-09-25,1.0,1.0,0.0,0,False
2021-09-26,1.0,1.0,0.0,0,False
2021-09-27,1.0,1.0,0.0,0,False
2021-09-28,1.0,1.0,0.0,0,False
2021-09-29,1.0,1.0,0.0,0,False
2021-09-30,1.0,1.0,0.0,0,False
2021-10-01,1.0,1.0,0.0,0,False
2021-10-02,1.0,1.0,0.0,0,False
2021-10-03,1.0,1.0,0.0,0,False
2021-10-04,1.0,1.0,0.0,0,False
2021-10-05,1.0,0.9991229226558256,-0.08770773441744151,1,True
2021-10-06,0.9991229226558256,0.9998486930470231,0.07264075067643372,5,True
2021-10-07,0.9998486930470231,0.9879237306946332,-1.192676695515671,2,True
2021-10-08,0.9879237306946332,0.9870889239760444,-0.08450113026456929,1,True
2021-10-09,0.9870889239760444,0.9879165053656258,0.08384061146669008,4,True
2021-10-10,0.9879165053656258,0.9825171346025049,-0.5465412040183137,1,True
2021-10-11,0.9825171346025049,0.9825171346025049,0.0,0,False
2021-10-12,0.9825171346025049,0.9825171346025049,0.0,0,False
2021-10-13,0.9825171346025049,0.9998561376634829,1.7647532496207097,4,True
2021-10-14,0.9998561376634829,1.0177196198287073,1.7866052417269351,1,True
2021-10-15,1.0177196198287073,1.0152787328288657,-0.23983884679872336,6,True
2021-10-16,1.0152787328288657,1.0371138384919327,2.150651339088716,4,True
2021-10-17,1.0371138384919327,1.0371138384919327,0.0,0,False
2021-10-18,1.0371138384919327,1.0378316326351944,0.06921073816790191,2,True
2021-10-19,1.0378316326351944,1.0378316326351944,0.0,0,False
2021-10-20,1.0378316326351944,1.0378316326351944,0.0,0,False
2021-10-21,1.0378316326351944,1.0378316326351944,0.0,0,False
2021-10-22,1.0378316326351944,1.0378316326351944,0.0,0,False
2021-10-23,1.0378316326351944,1.0378316326351944,0.0,0,False
2021-10-24,1.0378316326351944,1.0419658468694004,0.3983511490884828,1,True
2021-10-25,1.0419658468694004,1.0338823564995328,-0.7757922578896959,3,True
2021-10-26,1.0338823564995328,1.0338823564995328,0.0,0,False
2021-10-27,1.0338823564995328,1.0299490004338818,-0.38044522579612217,7,True
2021-10-28,1.0299490004338818,1.022106708197277,-0.7614252971070545,9,True
2021-10-29,1.022106708197277,1.0194891743638914,-0.2560920315259674,3,True
2021-10-30,1.0194891743638914,1.0206927846633345,0.1180601353804489,3,True
2021-10-31,1.0206927846633345,1.0165626331541773,-0.40464198152625475,15,True
2021-11-01,1.0165626331541773,0.9997078920371283,-1.6580130497962808,9,True
2021-11-02,0.9997078920371283,1.0062237653498343,0.6517777207328379,3,True
2021-11-03,1.0062237653498343,1.002113940014412,-0.4084404957373944,2,True
2021-11-04,1.002113940014412,0.994250557767879,-0.784679459345694,6,True
2021-11-05,0.994250557767879,0.9796373305363454,-1.4697730986785396,7,True
2021-11-06,0.9796373305363454,0.9773446167414236,-0.23403699751484153,3,True
2021-11-07,0.9773446167414236,0.9773446167414236,0.0,0,False
2021-11-08,0.9773446167414236,0.9773446167414236,0.0,0,False
2021-11-09,0.9773446167414236,0.9832232366658821,0.6014889552528935,2,True
2021-11-10,0.9832232366658821,1.0153345590928713,3.26592387461051,1,True
2021-11-11,1.0153345590928713,0.9889736040336488,-2.596282656110338,18,True
2021-11-12,0.9889736040336488,0.9557766225605177,-3.3567105671711728,9,True
2021-11-13,0.9557766225605177,0.9557094195669142,-0.007031244750821397,1,True
2021-11-14,0.9557094195669142,0.9470453787113645,-0.9065559759237174,2,True
2021-11-15,0.9470453787113645,0.9470453787113645,0.0,0,False
2021-11-16,0.9470453787113645,0.9698697324508202,2.4100591431545304,9,True
2021-11-17,0.9698697324508202,0.960152121421944,-1.001950128324991,1,True
2021-11-18,0.960152121421944,0.9486262409202338,-1.2004223335611464,4,True
2021-11-19,0.9486262409202338,0.9580601674970827,0.9944829870716321,8,True
2021-11-20,0.9580601674970827,0.966096090831195,0.8387702157690136,0,True
2021-11-21,0.966096090831195,0.9592686337328209,-0.7067057990577275,3,True
2021-11-22,0.9592686337328209,0.9327165260531143,-2.7679532871187407,11,True
2021-11-23,0.9327165260531143,0.9311202818435967,-0.17113926524623402,0,True
2021-11-24,0.9311202818435967,0.9182637572544212,-1.3807587311619796,4,True
2021-11-25,0.9182637572544212,0.9354540070768437,1.8720383644259986,11,True
2021-11-26,0.9354540070768437,0.893286326553583,-4.507723544317111,16,True
2021-11-27,0.893286326553583,0.8965298770169102,0.36310311340388424,9,True
2021-11-28,0.8965298770169102,0.8621565647829987,-3.8340397922135394,11,True
2021-11-29,0.8621565647829987,0.8560471047553426,-0.7086253561374711,2,True
2021-11-30,0.8560471047553426,0.8471054220303682,-1.0445316239379054,3,True
2021-12-01,0.8471054220303682,0.8515280443456769,0.522086413366174,3,True
2021-12-02,0.8515280443456769,0.8523816833131134,0.10024789824654157,8,True
2021-12-03,0.8523816833131134,0.8436567456203196,-1.023595164419877,3,True
2021-12-04,0.8436567456203196,0.7916928644412835,-6.159362969453685,26,True
2021-12-05,0.7916928644412835,0.7963687190057444,0.5906147161956143,4,True
2021-12-06,0.7963687190057444,0.7826245696628827,-1.7258524870264913,19,True
2021-12-07,0.7826245696628827,0.7828491161803272,0.028691473044495375,1,True
2021-12-08,0.7828491161803272,0.78157511161226,-0.16273947836631386,4,True
2021-12-09,0.78157511161226,0.7725648513791911,-1.1528335663711586,4,True
2021-12-10,0.7725648513791911,0.7625186284076961,-1.300372771756353,4,True
2021-12-11,0.7625186284076961,0.7566422011491574,-0.7706601569603677,2,True
2021-12-12,0.7566422011491574,0.7566422011491574,0.0,0,False
2021-12-13,0.7566422011491574,0.7518775866497948,-0.6297050960316963,2,True
2021-12-14,0.7518775866497948,0.7481306194966894,-0.49834803159928276,1,True
2021-12-15,0.7481306194966894,0.7494573791988076,0.17734332315002543,1,True
2021-12-16,0.7494573791988076,0.7491209867658751,-0.044884798291278116,1,True
2021-12-17,0.7491209867658751,0.7427339231276141,-0.8526077564367074,5,True
2021-12-18,0.7427339231276141,0.739117079604933,-0.4869635558654384,2,True
2021-12-19,0.739117079604933,0.7354460904355006,-0.4966722148261882,1,True
2021-12-20,0.7354460904355006,0.7354460904355006,0.0,0,False
2021-12-21,0.7354460904355006,0.7317842740111442,-0.49790412539796325,1,True
2021-12-22,0.7317842740111442,0.7264796575465331,-0.7248880104425814,2,True
2021-12-23,0.7264796575465331,0.7273640187522372,0.12173241143333957,0,True
2021-12-24,0.7273640187522372,0.7273640187522372,0.0,0,False
2021-12-25,0.7273640187522372,0.7264677619811583,-0.12321983875644982,2,True
2021-12-26,0.7264677619811583,0.7258176628428602,-0.08948767891986398,0,True
2021-12-27,0.7258176628428602,0.7258176628428602,0.0,0,False
2021-12-28,0.7258176628428602,0.7243108844539285,-0.2075973713604573,1,True
2021-12-29,0.7243108844539285,0.7243108844539285,0.0,0,False
2021-12-30,0.7243108844539285,0.7243108844539285,0.0,0,False
2021-12-31,0.7243108844539285,0.7243108844539285,0.0,0,False
2022-01-01,0.7243108844539285,0.7243108844539285,0.0,0,False
2022-01-02,0.7243108844539285,0.7243108844539285,0.0,0,False
2022-01-03,0.7243108844539285,0.7243108844539285,0.0,0,False
2022-01-04,0.7243108844539285,0.7243108844539285,0.0,0,False
2022-01-05,0.7243108844539285,0.7257283312559206,0.19569591351105142,1,True
2022-01-06,0.7257283312559206,0.6920113546433395,-4.645950166260104,15,True
2022-01-07,0.6920113546433395,0.6809123320336931,-1.603878684240212,5,True
2022-01-08,0.6809123320336931,0.6809123320336931,0.0,0,False
2022-01-09,0.6809123320336931,0.6798728412891838,-0.15266146544954395,1,True
2022-01-10,0.6798728412891838,0.6798728412891838,0.0,0,False
2022-01-11,0.6798728412891838,0.6798728412891838,0.0,0,False
2022-01-12,0.6798728412891838,0.6798728412891838,0.0,0,False
2022-01-13,0.6798728412891838,0.6798728412891838,0.0,0,False
2022-01-14,0.6798728412891838,0.6798728412891838,0.0,0,False
2022-01-15,0.6798728412891838,0.6803209539952291,0.06591125263888387,1,True
2022-01-16,0.6803209539952291,0.6797615014129215,-0.08223362502980391,0,True
2022-01-17,0.6797615014129215,0.6839994706842324,0.6234494396199386,1,True
2022-01-18,0.6839994706842324,0.6839994706842324,0.0,0,False
2022-01-19,0.6839994706842324,0.6805918710931814,-0.4981874602391412,1,True
2022-01-20,0.6805918710931814,0.6805918710931814,0.0,0,False
2022-01-21,0.6805918710931814,0.6564523751800158,-3.5468387059034767,9,True
2022-01-22,0.6564523751800158,0.6260863085078041,-4.625783654737258,25,True
2022-01-23,0.6260863085078041,0.6245059568834216,-0.2524175345966384,0,True
2022-01-24,0.6245059568834216,0.6173819648555595,-1.1407404444009006,6,True
2022-01-25,0.6173819648555595,0.6280972048180261,1.735593291095494,0,True
2022-01-26,0.6280972048180261,0.6289604621645157,0.13744008727754053,1,True
2022-01-27,0.6289604621645157,0.6255162421729145,-0.5476051673817928,14,True
2022-01-28,0.6255162421729145,0.6221058239729654,-0.5452165699330158,0,True
2022-01-29,0.6221058239729654,0.6221058239729654,0.0,0,False
2022-01-30,0.6221058239729654,0.6230589839673014,0.1532150893956974,1,True
2022-01-31,0.6230589839673014,0.620776931732518,-0.3662658421603293,2,True
2022-02-01,0.620776931732518,0.6176812484922755,-0.49867884613605806,1,True
2022-02-02,0.6176812484922755,0.6195429097205901,0.3013951342798249,1,True
2022-02-03,0.6195429097205901,0.6212456334307206,0.2748354768354,4,True
2022-02-04,0.6212456334307206,0.6234304974671183,0.35169084800357187,1,True
2022-02-05,0.6234304974671183,0.6234304974671183,0.0,0,False
2022-02-06,0.6234304974671183,0.6234304974671183,0.0,0,False
2022-02-07,0.6234304974671183,0.6234304974671183,0.0,0,False
2022-02-08,0.6234304974671183,0.6180880053756292,-0.8569507127409781,3,True
2022-02-09,0.6180880053756292,0.6183649822666388,0.04481188578335793,2,True
2022-02-10,0.6183649822666388,0.6284910744063857,1.6375591164023096,5,True
2022-02-11,0.6284910744063857,0.627544188714849,-0.15066016529051707,0,True
2022-02-12,0.627544188714849,0.612020505655253,-2.473719514698558,5,True
2022-02-13,0.612020505655253,0.612020505655253,0.0,0,False
2022-02-14,0.612020505655253,0.612020505655253,0.0,0,False
2022-02-15,0.612020505655253,0.612020505655253,0.0,0,False
2022-02-16,0.612020505655253,0.612020505655253,0.0,0,False
2022-02-17,0.612020505655253,0.612020505655253,0.0,0,False
2022-02-18,0.612020505655253,0.612020505655253,0.0,0,False
2022-02-19,0.612020505655253,0.612020505655253,0.0,0,False
2022-02-20,0.612020505655253,0.612020505655253,0.0,0,False
2022-02-21,0.612020505655253,0.612020505655253,0.0,0,False
2022-02-22,0.612020505655253,0.6082530250043829,-0.6155807879078212,2,True
2022-02-23,0.6082530250043829,0.6082530250043829,0.0,0,False
2022-02-24,0.6082530250043829,0.5894323531039888,-3.094217558598833,11,True
2022-02-25,0.5894323531039888,0.6001409655289639,1.8167669909164186,0,True
2022-02-26,0.6001409655289639,0.6001409655289639,0.0,0,False
2022-02-27,0.6001409655289639,0.6001409655289639,0.0,0,False
2022-02-28,0.6001409655289639,0.5951754973739617,-0.8273836382133415,2,True
2022-03-01,0.5951754973739617,0.5951754973739617,0.0,0,False
2022-03-02,0.5951754973739617,0.5951754973739617,0.0,0,False
2022-03-03,0.5951754973739617,0.5951754973739617,0.0,0,False
2022-03-04,0.5951754973739617,0.5950077634563873,-0.028182261923492824,3,True
2022-03-05,0.5950077634563873,0.5937415096898742,-0.2128129823311009,3,True
2022-03-06,0.5937415096898742,0.5904740950044947,-0.5503092898265005,4,True
2022-03-07,0.5904740950044947,0.5902725411139185,-0.03413424776487206,0,True
2022-03-08,0.5902725411139185,0.5873361722388563,-0.49745984617900474,1,True
2022-03-09,0.5873361722388563,0.5905026467616972,0.5391247249034059,2,True
2022-03-10,0.5905026467616972,0.5870825404776818,-0.5791855976888693,4,True
2022-03-11,0.5870825404776818,0.5859969265942349,-0.1849167380388539,2,True
2022-03-12,0.5859969265942349,0.5859969265942349,0.0,0,False
2022-03-13,0.5859969265942349,0.5859969265942349,0.0,0,False
2022-03-14,0.5859969265942349,0.5832658702311747,-0.4660530182185152,1,True
2022-03-15,0.5832658702311747,0.584135004196319,0.14901162737326334,1,True
2022-03-16,0.584135004196319,0.5864957878544624,0.404150349009047,1,True
2022-03-17,0.5864957878544624,0.5836573035138557,-0.4839735253667543,1,True
2022-03-18,0.5836573035138557,0.5833496798659069,-0.05270621066451042,0,True
2022-03-19,0.5833496798659069,0.5833496798659069,0.0,0,False
2022-03-20,0.5833496798659069,0.5793632630095205,-0.6833665970816694,4,True
2022-03-21,0.5793632630095205,0.5845972925696543,0.9034106741503622,4,True
2022-03-22,0.5845972925696543,0.5845972925696543,0.0,0,False
2022-03-23,0.5845972925696543,0.5838056359583021,-0.13541913748391643,2,True
2022-03-24,0.5838056359583021,0.5825655753210875,-0.21240984341973634,0,True
2022-03-25,0.5825655753210875,0.5825655753210875,0.0,0,False
2022-03-26,0.5825655753210875,0.5839969269365664,0.2456979396164849,1,True
2022-03-27,0.5839969269365664,0.5870317163215425,0.5196584510976043,2,True
2022-03-28,0.5870317163215425,0.5853794108476333,-0.2814678369105539,5,True
2022-03-29,0.5853794108476333,0.5858974088489464,0.08848927579516719,1,True
2022-03-30,0.5858974088489464,0.5836992418390039,-0.3751795069824593,7,True
2022-03-31,0.5836992418390039,0.5815456128841618,-0.3689620956259687,8,True
2022-04-01,0.5815456128841618,0.566605925800019,-2.5689622194981054,15,True
2022-04-02,0.566605925800019,0.5681856069726331,0.27879714995633353,2,True
2022-04-03,0.5681856069726331,0.5644350776690932,-0.6600887557717705,3,True
2022-04-04,0.5644350776690932,0.557675760310316,-1.1975367276411464,3,True
2022-04-05,0.557675760310316,0.5539457334322321,-0.6688522513527029,8,True
2022-04-06,0.5539457334322321,0.5436713265238112,-1.8547677666476359,16,True
2022-04-07,0.5436713265238112,0.542423019339966,-0.22960695606789594,3,True
2022-04-08,0.542423019339966,0.5409478524196252,-0.27195876055109425,0,True
2022-04-09,0.5409478524196252,0.5400105424503514,-0.17327177935566596,1,True
2022-04-10,0.5400105424503514,0.5400105424503514,0.0,0,False
2022-04-11,0.5400105424503514,0.5302738313368824,-1.803059449411426,7,True
2022-04-12,0.5302738313368824,0.5296189818539927,-0.1234927021080412,1,True
2022-04-13,0.5296189818539927,0.5304574711090094,0.15831933592740377,2,True
2022-04-14,0.5304574711090094,0.5304574711090094,0.0,0,False
2022-04-15,0.5304574711090094,0.5323289235674175,0.3527997172884545,1,True
2022-04-16,0.5323289235674175,0.5323289235674175,0.0,0,False
2022-04-17,0.5323289235674175,0.5341873018990104,0.3491033925301368,1,True
2022-04-18,0.5341873018990104,0.5370495095689022,0.5358060103107576,9,True
2022-04-19,0.5370495095689022,0.5373930097407061,0.06396061548956666,2,True
2022-04-20,0.5373930097407061,0.5403486282922296,0.5499919980257229,1,True
2022-04-21,0.5403486282922296,0.5372467059186103,-0.5740594518436892,5,True
2022-04-22,0.5372467059186103,0.5325852915211238,-0.8676487628744511,2,True
2022-04-23,0.5325852915211238,0.5271269968220699,-1.0248677133881001,2,True
2022-04-24,0.5271269968220699,0.5271269968220699,0.0,0,False
2022-04-25,0.5271269968220699,0.5270059816999477,-0.022957488964081563,3,True
2022-04-26,0.5270059816999477,0.5226699617657047,-0.8227648422996059,2,True
2022-04-27,0.5226699617657047,0.5193604662934518,-0.633190294899022,1,True
2022-04-28,0.5193604662934518,0.5206526530857789,0.24880345659521463,1,True
2022-04-29,0.5206526530857789,0.5148539731423645,-1.113732909848264,4,True
2022-04-30,0.5148539731423645,0.516477528549209,0.31534289168155816,5,True
2022-05-01,0.516477528549209,0.5193760475733714,0.5612091260396745,10,True
2022-05-02,0.5193760475733714,0.5201108898315959,0.1414855886515909,1,True
2022-05-03,0.5201108898315959,0.5157978183641478,-0.8292599812406487,3,True
2022-05-04,0.5157978183641478,0.5106673406038597,-0.9946683715257865,2,True
2022-05-05,0.5106673406038597,0.5106673406038597,0.0,0,False
2022-05-06,0.5106673406038597,0.4863108136076748,-4.769548600343909,13,True
2022-05-07,0.4863108136076748,0.4825938965305329,-0.7643089508061918,2,True
2022-05-08,0.4825938965305329,0.47881463239572863,-0.7831147807658145,3,True
2022-05-09,0.47881463239572863,0.4716215350447376,-1.502271832212121,5,True
2022-05-10,0.4716215350447376,0.46850877030208377,-0.6600132757632715,26,True
2022-05-11,0.46850877030208377,0.4523019682714677,-3.4592313010845643,44,True
2022-05-12,0.4523019682714677,0.41534369489905604,-8.171150241431102,35,True
2022-05-13,0.41534369489905604,0.43326604321833395,4.315064497038712,13,True
2022-05-14,0.43326604321833395,0.4145064994820347,-4.329797829747262,19,True
2022-05-15,0.4145064994820347,0.42098089634809704,1.5619530391327352,4,True
2022-05-16,0.42098089634809704,0.42156523020027614,0.13880293791193044,13,True
2022-05-17,0.42156523020027614,0.42052697908160674,-0.2462848082077751,4,True
2022-05-18,0.42052697908160674,0.41381675045439026,-1.5956713744908924,2,True
2022-05-19,0.41381675045439026,0.4122061865636722,-0.3891973654883696,9,True
2022-05-20,0.4122061865636722,0.41011979236737994,-0.5061530525985902,2,True
2022-05-21,0.41011979236737994,0.41011979236737994,0.0,0,False
2022-05-22,0.41011979236737994,0.4095023113120561,-0.15056114501558193,1,True
2022-05-23,0.4095023113120561,0.40992448808567405,0.1030950893208038,4,True
2022-05-24,0.40992448808567405,0.39763866761593364,-2.9970935688947375,19,True
2022-05-25,0.39763866761593364,0.3967485808396961,-0.22384311404474166,1,True
2022-05-26,0.3967485808396961,0.39608175263045214,-0.16807324372343224,14,True
2022-05-27,0.39608175263045214,0.3871133909930969,-2.2642703375741813,6,True
2022-05-28,0.3871133909930969,0.38698830933316997,-0.03231137512603732,1,True
2022-05-29,0.38698830933316997,0.3920167476634822,1.299377322011841,4,True
2022-05-30,0.3920167476634822,0.3920167476634822,0.0,0,False
2022-05-31,0.3920167476634822,0.3878907753656043,-1.052498986961592,13,True
2022-06-01,0.3878907753656043,0.3889363539648591,0.2695549019615884,6,True
2022-06-02,0.3889363539648591,0.3820737173146949,-1.764462637705555,12,True
2022-06-03,0.3820737173146949,0.38194699172653096,-0.033167837100811504,0,True
2022-06-04,0.38194699172653096,0.38194699172653096,0.0,0,False
2022-06-05,0.38194699172653096,0.38194699172653096,0.0,0,False
2022-06-06,0.38194699172653096,0.38336167749108574,0.3703879845106117,1,True
2022-06-07,0.38336167749108574,0.3758318405685346,-1.9641600516332902,5,True
2022-06-08,0.3758318405685346,0.3766535843000765,0.2186466506666429,9,True
2022-06-09,0.3766535843000765,0.37728723616784093,0.16823200260842608,8,True
2022-06-10,0.37728723616784093,0.37668370062350326,-0.1599671249067125,8,True
2022-06-11,0.37668370062350326,0.36255037293762327,-3.752041211893664,10,True
2022-06-12,0.36255037293762327,0.3502294525208338,-3.398402356328356,19,True
2022-06-13,0.3502294525208338,0.3363892851807979,-3.951742847558659,19,True
2022-06-14,0.3363892851807979,0.339043797705171,0.7891192262400315,16,True
2022-06-15,0.339043797705171,0.3360276125526098,-0.8896151980883671,12,True
2022-06-16,0.3360276125526098,0.34291289489782145,2.0490227850348486,13,True
2022-06-17,0.34291289489782145,0.3421944973996845,-0.20949853704131938,2,True
2022-06-18,0.3421944973996845,0.33715379814354934,-1.4730509387027357,9,True
2022-06-19,0.33715379814354934,0.33466951323514044,-0.7368402557194953,4,True
2022-06-20,0.33466951323514044,0.33568039968888375,0.30205513611665236,2,True
2022-06-21,0.33568039968888375,0.3385945371718775,0.8681285787596194,1,True
2022-06-22,0.3385945371718775,0.33737474813628165,-0.36025065430297376,9,True
2022-06-23,0.33737474813628165,0.33441124028261615,-0.8784023908239846,2,True
2022-06-24,0.33441124028261615,0.3317105516621738,-0.8075950491855388,2,True
2022-06-25,0.3317105516621738,0.3332347299481766,0.45949044381172754,4,True
2022-06-26,0.3332347299481766,0.3321741555606693,-0.3182664627039977,0,True
2022-06-27,0.3321741555606693,0.33040394948750634,-0.5329150517971781,5,True
2022-06-28,0.33040394948750634,0.32761734706630746,-0.8433925882306181,4,True
2022-06-29,0.32761734706630746,0.321272482840005,-1.9366691913961231,5,True
2022-06-30,0.321272482840005,0.3181578383199782,-0.9694713012747824,4,True
2022-07-01,0.3181578383199782,0.32038784835341266,0.7009131207359243,1,True
2022-07-02,0.32038784835341266,0.32085251138910376,0.14503141679036435,2,True
2022-07-03,0.32085251138910376,0.31904582886245536,-0.5630881674656418,3,True
2022-07-04,0.31904582886245536,0.3198094969286025,0.23935999065398672,0,True
2022-07-05,0.3198094969286025,0.3199893401034468,0.056234469761373695,1,True
2022-07-06,0.3199893401034468,0.32222808566461514,0.6996312941064176,0,True
2022-07-07,0.32222808566461514,0.32222808566461514,0.0,0,False
2022-07-08,0.32222808566461514,0.32222808566461514,0.0,0,False
2022-07-09,0.32222808566461514,0.32222808566461514,0.0,0,False
2022-07-10,0.32222808566461514,0.32222808566461514,0.0,0,False
2022-07-11,0.32222808566461514,0.3206242848563798,-0.4977222283176874,1,True
2022-07-12,0.3206242848563798,0.3200161353537725,-0.18967668119078684,2,True
2022-07-13,0.3200161353537725,0.3250311305737079,1.567106988024669,5,True
2022-07-14,0.3250311305737079,0.33280521688531556,2.3917974557962296,0,True
2022-07-15,0.33280521688531556,0.33280521688531556,0.0,0,False
2022-07-16,0.33280521688531556,0.33280521688531556,0.0,0,False
2022-07-17,0.33280521688531556,0.33280521688531556,0.0,0,False
2022-07-18,0.33280521688531556,0.33285603645396256,0.015270063709516002,1,True
2022-07-19,0.33285603645396256,0.3296721794390563,-0.9565267461648097,4,True
2022-07-20,0.3296721794390563,0.3285302170658984,-0.34639330959044257,3,True
2022-07-21,0.3285302170658984,0.3278886844142878,-0.19527356032578158,8,True
2022-07-22,0.3278886844142878,0.3278886844142878,0.0,0,False
2022-07-23,0.3278886844142878,0.32945365563430157,0.4772873522028709,3,True
2022-07-24,0.32945365563430157,0.33132950331276173,0.5693813519381363,3,True
2022-07-25,0.33132950331276173,0.33127615657695964,-0.016100810603558724,1,True
2022-07-26,0.33127615657695964,0.3305996536705859,-0.20421116731247357,1,True
2022-07-27,0.3305996536705859,0.33148735793612205,0.2685133682628349,1,True
2022-07-28,0.33148735793612205,0.33148735793612205,0.0,0,False
2022-07-29,0.33148735793612205,0.32944543914045904,-0.6159869288458575,6,True
2022-07-30,0.32944543914045904,0.3310554633038712,0.48870737673978315,2,True
2022-07-31,0.3310554633038712,0.3262613620518074,-1.4481263061541405,6,True
2022-08-01,0.3262613620518074,0.32560480753196896,-0.20123575642223557,2,True
2022-08-02,0.32560480753196896,0.31827466734811805,-2.2512383153713844,8,True
2022-08-03,0.31827466734811805,0.3202522845959095,0.6213555305136564,2,True
2022-08-04,0.3202522845959095,0.3196656732485031,-0.18317163549561588,0,True
2022-08-05,0.3196656732485031,0.32324001199606195,1.1181490684425865,2,True
2022-08-06,0.32324001199606195,0.32324001199606195,0.0,0,False
2022-08-07,0.32324001199606195,0.322599406817083,-0.19818251305682155,2,True
2022-08-08,0.322599406817083,0.322599406817083,0.0,0,False
2022-08-09,0.322599406817083,0.32183108401983057,-0.23816621513134129,7,True
2022-08-10,0.32183108401983057,0.3218067933582363,-0.007547643096139645,2,True
2022-08-11,0.3218067933582363,0.3225758280812175,0.23897404866934924,3,True
2022-08-12,0.3225758280812175,0.32078887849392984,-0.5539626443546553,5,True
2022-08-13,0.32078887849392984,0.3196261260955224,-0.36246655553224816,0,True
2022-08-14,0.3196261260955224,0.3196261260955224,0.0,0,False
2022-08-15,0.3196261260955224,0.3196159948738545,-0.0031697101208982836,1,True
2022-08-16,0.3196159948738545,0.31581267255857337,-1.1899662020301016,3,True
2022-08-17,0.31581267255857337,0.3142422936050177,-0.49725013908820115,1,True
2022-08-18,0.3142422936050177,0.3126783987156097,-0.4976716760391686,1,True
2022-08-19,0.3126783987156097,0.3021150019920984,-3.3783583282064322,12,True
2022-08-20,0.3021150019920984,0.3016001091098559,-0.17042943211934558,2,True
2022-08-21,0.3016001091098559,0.3019874046057959,0.12841357951860477,1,True
2022-08-22,0.3019874046057959,0.30188338513386503,-0.03444497033464611,0,True
2022-08-23,0.30188338513386503,0.30188338513386503,0.0,0,False
2022-08-24,0.30188338513386503,0.30188338513386503,0.0,0,False
2022-08-25,0.30188338513386503,0.30072412238511714,-0.38401011974668053,1,True
2022-08-26,0.30072412238511714,0.30164480866933113,0.3061564456192656,1,True
2022-08-27,0.30164480866933113,0.29539101280718855,-2.073231722346036,7,True
2022-08-28,0.29539101280718855,0.2956652009491264,0.09282210021630544,1,True
2022-08-29,0.2956652009491264,0.29557826212459676,-0.02940448326369527,2,True
2022-08-30,0.29557826212459676,0.2941095337760297,-0.4968999878441349,1,True
2022-08-31,0.2941095337760297,0.2934636484228874,-0.21960707796510048,2,True
2022-09-01,0.2934636484228874,0.2909739583273781,-0.8483810887274235,2,True
2022-09-02,0.2909739583273781,0.2909739583273781,0.0,0,False
2022-09-03,0.2909739583273781,0.2909739583273781,0.0,0,False
2022-09-04,0.2909739583273781,0.2909739583273781,0.0,0,False
2022-09-05,0.2909739583273781,0.2909739583273781,0.0,0,False
2022-09-06,0.2909739583273781,0.2895260954510028,-0.49759190983900137,1,True
2022-09-07,0.2895260954510028,0.28515989251829227,-1.5080516061632188,5,True
2022-09-08,0.28515989251829227,0.2847454248110206,-0.14534572292457248,2,True
2022-09-09,0.2847454248110206,0.2847454248110206,0.0,0,False
2022-09-10,0.2847454248110206,0.2850844713712686,0.11907006424176636,2,True
2022-09-11,0.2850844713712686,0.2880515269223909,1.0407636504544238,0,True
2022-09-12,0.2880515269223909,0.2880515269223909,0.0,0,False
2022-09-13,0.2880515269223909,0.28219348633872665,-2.033678018045204,8,True
2022-09-14,0.28219348633872665,0.2860142906316875,1.3539661536958958,5,True
2022-09-15,0.2860142906316875,0.28241123250271977,-1.2597475884893905,4,True
2022-09-16,0.28241123250271977,0.28213954946976455,-0.09620121358048239,3,True
2022-09-17,0.28213954946976455,0.2807351980643667,-0.49775063724213364,1,True
2022-09-18,0.2807351980643667,0.2807351980643667,0.0,0,False
2022-09-19,0.2807351980643667,0.28408358006088474,1.192718982017471,11,True
2022-09-20,0.28408358006088474,0.28381900190581394,-0.09313391327091525,0,True
2022-09-21,0.28381900190581394,0.28381900190581394,0.0,0,False
2022-09-22,0.28381900190581394,0.2855294520198611,0.6026552494940995,2,True
2022-09-23,0.2855294520198611,0.2831984801830392,-0.8163682661569083,3,True
2022-09-24,0.2831984801830392,0.2831984801830392,0.0,0,False
2022-09-25,0.2831984801830392,0.2831984801830392,0.0,0,False
2022-09-26,0.2831984801830392,0.2831984801830392,0.0,0,False
2022-09-27,0.2831984801830392,0.2831984801830392,0.0,0,False
2022-09-28,0.2831984801830392,0.2831984801830392,0.0,0,False
2022-09-29,0.2831984801830392,0.2831984801830392,0.0,0,False
2022-09-30,0.2831984801830392,0.2819987354447819,-0.4236409522685003,1,True
2022-10-01,0.2819987354447819,0.2819987354447819,0.0,0,False
2022-10-02,0.2819987354447819,0.2819987354447819,0.0,0,False
2022-10-03,0.2819987354447819,0.2819987354447819,0.0,0,False
2022-10-04,0.2819987354447819,0.2819987354447819,0.0,0,False
2022-10-05,0.2819987354447819,0.2819987354447819,0.0,0,False
2022-10-06,0.2819987354447819,0.2819987354447819,0.0,0,False
2022-10-07,0.2819987354447819,0.2819987354447819,0.0,0,False
2022-10-08,0.2819987354447819,0.2811660612643248,-0.29527585616430096,1,True
2022-10-09,0.2811660612643248,0.2811660612643248,0.0,0,False
2022-10-10,0.2811660612643248,0.27945931201668467,-0.6070253429469319,2,True
2022-10-11,0.27945931201668467,0.28222504262534065,0.989672016544163,6,True
2022-10-12,0.28222504262534065,0.2805703574927445,-0.5862998964244248,2,True
2022-10-13,0.2805703574927445,0.2802247181739279,-0.12319167352721205,1,True
2022-10-14,0.2802247181739279,0.2802247181739279,0.0,0,False
2022-10-15,0.2802247181739279,0.2802247181739279,0.0,0,False
2022-10-16,0.2802247181739279,0.2802247181739279,0.0,0,False
2022-10-17,0.2802247181739279,0.2802247181739279,0.0,0,False
2022-10-18,0.2802247181739279,0.2802247181739279,0.0,0,False
2022-10-19,0.2802247181739279,0.2802247181739279,0.0,0,False
2022-10-20,0.2802247181739279,0.2825477282192399,0.8289811335880026,2,True
2022-10-21,0.2825477282192399,0.2822381012934601,-0.10958393745765793,0,True
2022-10-22,0.2822381012934601,0.2822381012934601,0.0,0,False
2022-10-23,0.2822381012934601,0.2822381012934601,0.0,0,False
2022-10-24,0.2822381012934601,0.2822381012934601,0.0,0,False
2022-10-25,0.2822381012934601,0.28118687424894556,-0.3724610673388584,2,True
2022-10-26,0.28118687424894556,0.28118687424894556,0.0,0,False
2022-10-27,0.28118687424894556,0.28118687424894556,0.0,0,False
2022-10-28,0.28118687424894556,0.2801041619767589,-0.38505078698235495,1,True
2022-10-29,0.2801041619767589,0.2801041619767589,0.0,0,False
2022-10-30,0.2801041619767589,0.27654257341732713,-1.2715228985877403,8,True
2022-10-31,0.27654257341732713,0.2775176698343042,0.35260264086194315,4,True
2022-11-01,0.2775176698343042,0.27553091156550524,-0.7159033404918635,1,True
2022-11-02,0.27553091156550524,0.2790635857306282,1.282133516363415,3,True
2022-11-03,0.2790635857306282,0.2842497590438524,1.8584199366771692,8,True
2022-11-04,0.2842497590438524,0.2849240657066124,0.23722330144735349,15,True
2022-11-05,0.2849240657066124,0.2781926368672554,-2.3625343203856786,8,True
2022-11-06,0.2781926368672554,0.27668814575681877,-0.540809105294382,2,True
2022-11-07,0.27668814575681877,0.27354268020027217,-1.1368270035360117,9,True
2022-11-08,0.27354268020027217,0.265754588051608,-2.8471213863087708,16,True
2022-11-09,0.265754588051608,0.24053813463208487,-9.488623923447093,36,True
2022-11-10,0.24053813463208487,0.24158714344576193,0.436109149711994,22,True
2022-11-11,0.24158714344576193,0.24578092642212923,1.7359297007909058,18,True
2022-11-12,0.24578092642212923,0.24170225895442268,-1.65947273740088,12,True
2022-11-13,0.24170225895442268,0.2402351880409992,-0.6069744320015391,3,True
2022-11-14,0.2402351880409992,0.23216513591675667,-3.3592298405782595,12,True
2022-11-15,0.23216513591675667,0.2317651417893986,-0.17228862799687494,3,True
2022-11-16,0.2317651417893986,0.23075475703289722,-0.4359519937728651,2,True
2022-11-17,0.23075475703289722,0.2297857783722421,-0.4199170899506055,3,True
2022-11-18,0.2297857783722421,0.23051346539492915,0.31668061785279367,0,True
2022-11-19,0.23051346539492915,0.23067183650538256,0.06870362656778983,3,True
2022-11-20,0.23067183650538256,0.2296382188628778,-0.44809009117184884,3,True
2022-11-21,0.2296382188628778,0.22072189268101522,-3.8827710065051146,10,True
2022-11-22,0.22072189268101522,0.22524839908382177,2.050773644528414,5,True
2022-11-23,0.22524839908382177,0.2291906188748686,1.750165509313928,1,True
2022-11-24,0.2291906188748686,0.22745960863741557,-0.7552709818363534,2,True
2022-11-25,0.22745960863741557,0.22616073441337173,-0.57103510896932,3,True
2022-11-26,0.22616073441337173,0.22616073441337173,0.0,0,False
2022-11-27,0.22616073441337173,0.22616073441337173,0.0,0,False
2022-11-28,0.22616073441337173,0.22053480803381822,-2.487578754175146,8,True
2022-11-29,0.22053480803381822,0.22053480803381822,0.0,0,False
2022-11-30,0.22053480803381822,0.22053480803381822,0.0,0,False
2022-12-01,0.22053480803381822,0.22059909393921384,0.029150004014666386,2,True
2022-12-02,0.22059909393921384,0.22054644627957704,-0.023865764222641417,2,True
2022-12-03,0.22054644627957704,0.22054644627957704,0.0,0,False
2022-12-04,0.22054644627957704,0.21913292053613384,-0.6409197551300982,3,True
2022-12-05,0.21913292053613384,0.2211218756623227,0.9076477972011832,2,True
2022-12-06,0.2211218756623227,0.2216002644888307,0.216346223129249,2,True
2022-12-07,0.2216002644888307,0.22142209135318444,-0.08040294358729883,2,True
2022-12-08,0.22142209135318444,0.2183121316982586,-1.4045390123089474,2,True
2022-12-09,0.2183121316982586,0.2183121316982586,0.0,0,False
2022-12-10,0.2183121316982586,0.2183121316982586,0.0,0,False
2022-12-11,0.2183121316982586,0.2183121316982586,0.0,0,False
2022-12-12,0.2183121316982586,0.2177650642430785,-0.25058958058099545,1,True
2022-12-13,0.2177650642430785,0.21803997593828842,0.12624233192108925,1,True
2022-12-14,0.21803997593828842,0.21803997593828842,0.0,0,False
2022-12-15,0.21803997593828842,0.21803997593828842,0.0,0,False
2022-12-16,0.21803997593828842,0.21654654337323004,-0.6849352090742555,5,True
2022-12-17,0.21654654337323004,0.21687414772556707,0.15128588396462472,7,True
2022-12-18,0.21687414772556707,0.21687414772556707,0.0,0,False
2022-12-19,0.21687414772556707,0.21579408724959365,-0.49801255119634735,1,True
2022-12-20,0.21579408724959365,0.21579408724959365,0.0,0,False
2022-12-21,0.21579408724959365,0.21579408724959365,0.0,0,False
2022-12-22,0.21579408724959365,0.21579408724959365,0.0,0,False
2022-12-23,0.21579408724959365,0.21579408724959365,0.0,0,False
2022-12-24,0.21579408724959365,0.21579408724959365,0.0,0,False
2022-12-25,0.21579408724959365,0.21579408724959365,0.0,0,False
2022-12-26,0.21579408724959365,0.21579408724959365,0.0,0,False
2022-12-27,0.21579408724959365,0.21579408724959365,0.0,0,False
2022-12-28,0.21579408724959365,0.21629901515317707,0.2339859771039121,4,True
2022-12-29,0.21629901515317707,0.21556511689864297,-0.33929801021718164,0,True
2022-12-30,0.21556511689864297,0.21842725700780996,1.3277380637205516,1,True
2022-12-31,0.21842725700780996,0.21842725700780996,0.0,0,False
2023-01-01,0.21842725700780996,0.21842725700780996,0.0,0,False
2023-01-02,0.21842725700780996,0.2184986934371427,0.032704906114444654,1,True
2023-01-03,0.2184986934371427,0.2185262859520292,0.012628228779054673,0,True
2023-01-04,0.2185262859520292,0.2185262859520292,0.0,0,False
2023-01-05,0.2185262859520292,0.2185262859520292,0.0,0,False
2023-01-06,0.2185262859520292,0.21814128097077182,-0.1761824576755444,1,True
2023-01-07,0.21814128097077182,0.21799796826979165,-0.06569719419561304,0,True
2023-01-08,0.21799796826979165,0.21799796826979165,0.0,0,False
2023-01-09,0.21799796826979165,0.2178688567866955,-0.059226002939793965,1,True
2023-01-10,0.2178688567866955,0.21423676413129117,-1.6671004332483919,7,True
2023-01-11,0.21423676413129117,0.21242820700842707,-0.8441861648711968,3,True
2023-01-12,0.21242820700842707,0.21242820700842707,0.0,0,False
2023-01-13,0.21242820700842707,0.21230196442458069,-0.05942835258284651,1,True
2023-01-14,0.21230196442458069,0.20941334361404942,-1.3606189741863783,6,True
2023-01-15,0.20941334361404942,0.2084500963647961,-0.4599741509445532,4,True
2023-01-16,0.2084500963647961,0.20877083840827187,0.15386994252786224,2,True
2023-01-17,0.20877083840827187,0.20800837124865312,-0.36521727145036875,0,True
2023-01-18,0.20800837124865312,0.20800837124865312,0.0,0,False
2023-01-19,0.20800837124865312,0.20360157701942225,-2.1185658071246505,9,True
2023-01-20,0.20360157701942225,0.20360157701942225,0.0,0,False
2023-01-21,0.20360157701942225,0.20351472230123824,-0.04265915787858843,4,True
2023-01-22,0.20351472230123824,0.20504287856952427,0.7508824182380636,2,True
2023-01-23,0.20504287856952427,0.20365706549582177,-0.6758650109531139,2,True
2023-01-24,0.20365706549582177,0.20334605863636399,-0.15271105802325824,4,True
2023-01-25,0.20334605863636399,0.19969464434675283,-1.7956651405478419,11,True
2023-01-26,0.19969464434675283,0.19943876922544268,-0.12813319162723324,4,True
2023-01-27,0.19943876922544268,0.19872795128635068,-0.35640910834567885,3,True
2023-01-28,0.19872795128635068,0.19839139378324927,-0.16935589630089343,0,True
2023-01-29,0.19839139378324927,0.19757733729151808,-0.41032853099494115,1,True
2023-01-30,0.19757733729151808,0.1969983538161624,-0.29304144052787473,5,True
2023-01-31,0.1969983538161624,0.19755412223056731,0.28211830385320713,6,True
2023-02-01,0.19755412223056731,0.19604528082667108,-0.7637610326021171,2,True
2023-02-02,0.19604528082667108,0.19604528082667108,0.0,0,False
2023-02-03,0.19604528082667108,0.19461044986812154,-0.7318875274626602,4,True
2023-02-04,0.19461044986812154,0.19461044986812154,0.0,0,False
2023-02-05,0.19461044986812154,0.1953889269199546,0.4000181143204884,6,True
2023-02-06,0.1953889269199546,0.1905478493260134,-2.4776622044321184,3,True
2023-02-07,0.1905478493260134,0.19022216105740156,-0.17092203861855948,0,True
2023-02-08,0.19022216105740156,0.18741150942260024,-1.4775626662937413,5,True
2023-02-09,0.18741150942260024,0.1830397187604155,-2.3327226143441626,10,True
2023-02-10,0.1830397187604155,0.18020125143441593,-1.5507384655211953,11,True
2023-02-11,0.18020125143441593,0.18097629432094292,0.43009850395465676,4,True
2023-02-12,0.18097629432094292,0.17942855463215002,-0.8552168086987888,2,True
2023-02-13,0.17942855463215002,0.18142171567751542,1.1108382662122107,3,True
2023-02-14,0.18142171567751542,0.18118015768125256,-0.13314723397954698,1,True
2023-02-15,0.18118015768125256,0.18138609457193383,0.1136641524750015,0,True
2023-02-16,0.18138609457193383,0.18138609457193383,0.0,0,False
2023-02-17,0.18138609457193383,0.18157062229203969,0.10173201013083943,1,True
2023-02-18,0.18157062229203969,0.1811510419749974,-0.23108381286892632,1,True
2023-02-19,0.1811510419749974,0.18139496366450364,0.13465099998701824,2,True
2023-02-20,0.18139496366450364,0.17939373866560035,-1.103241765082641,6,True
2023-02-21,0.17939373866560035,0.17501235537614582,-2.442327877240835,10,True
2023-02-22,0.17501235537614582,0.1718238158250975,-1.821893970968691,6,True
2023-02-23,0.1718238158250975,0.17395129747892887,1.2381762351250325,2,True
2023-02-24,0.17395129747892887,0.17290456011464023,-0.6017416250749363,1,True
2023-02-25,0.17290456011464023,0.17076890027872402,-1.2351668657554216,3,True
2023-02-26,0.17076890027872402,0.17025058332484627,-0.30351952435822005,2,True
2023-02-27,0.17025058332484627,0.1694006193661879,-0.4992429054040959,1,True
2023-02-28,0.1694006193661879,0.16802780526066385,-0.8103949741508742,3,True
2023-03-01,0.16802780526066385,0.16732823632487473,-0.41634117323848807,1,True
2023-03-02,0.16732823632487473,0.1671140095276996,-0.12802788213174265,1,True
2023-03-03,0.1671140095276996,0.16603035734999755,-0.6484508275306666,9,True
2023-03-04,0.16603035734999755,0.16583979138962063,-0.11477778125550397,0,True
2023-03-05,0.16583979138962063,0.1669451720352094,0.6665352364028321,4,True
2023-03-06,0.1669451720352094,0.1669451720352094,0.0,0,False
2023-03-07,0.1669451720352094,0.1669451720352094,0.0,0,False
2023-03-08,0.1669451720352094,0.1669451720352094,0.0,0,False
2023-03-09,0.1669451720352094,0.1669451720352094,0.0,0,False
2023-03-10,0.1669451720352094,0.1624502706522647,-2.6924416730042977,12,True
2023-03-11,0.1624502706522647,0.16256728516442556,0.0720309739657754,7,True
2023-03-12,0.16256728516442556,0.1628846082253032,0.19519490686992214,0,True
2023-03-13,0.1628846082253032,0.1628846082253032,0.0,0,False
2023-03-14,0.1628846082253032,0.16264950141660298,-0.14433948748246994,1,True
2023-03-15,0.16264950141660298,0.16137041344326858,-0.7864075587039165,7,True
2023-03-16,0.16137041344326858,0.1602109847779759,-0.7184889971793229,8,True
2023-03-17,0.1602109847779759,0.1591889880457577,-0.6379067787608328,3,True
2023-03-18,0.1591889880457577,0.16095137499274065,1.1071035557285835,3,True
2023-03-19,0.16095137499274065,0.15856293050562073,-1.4839540744697843,4,True
2023-03-20,0.15856293050562073,0.15916844317748352,0.3818753033460798,6,True
2023-03-21,0.15916844317748352,0.1572348439593258,-1.2148131749970204,4,True
2023-03-22,0.1572348439593258,0.1572348439593258,0.0,0,False
2023-03-23,0.1572348439593258,0.15843917915320693,0.7659467606255799,8,True
2023-03-24,0.15843917915320693,0.15752869556629395,-0.5746581065233625,1,True
2023-03-25,0.15752869556629395,0.15677780395761717,-0.4766697305385703,1,True
2023-03-26,0.15677780395761717,0.15677780395761717,0.0,0,False
2023-03-27,0.15677780395761717,0.1559973144835292,-0.4978316154364393,1,True
2023-03-28,0.1559973144835292,0.15874619264676743,1.7621317215229748,4,True
2023-03-29,0.15874619264676743,0.15886200436153516,0.0729540109509541,1,True
2023-03-30,0.15886200436153516,0.16029600495587248,0.9026705914359834,3,True
2023-03-31,0.16029600495587248,0.16029600495587248,0.0,0,False
2023-04-01,0.16029600495587248,0.1600987615161502,-0.12304950443186025,1,True
2023-04-02,0.1600987615161502,0.15980552550037885,-0.18315945294915537,0,True
2023-04-03,0.15980552550037885,0.15980552550037885,0.0,0,False
2023-04-04,0.15980552550037885,0.1582159480714193,-0.9946949105685166,2,True
2023-04-05,0.1582159480714193,0.15777835506422871,-0.27657958159380547,2,True
2023-04-06,0.15777835506422871,0.1548084947111074,-1.8822989705478577,6,True
2023-04-07,0.1548084947111074,0.15412487654984094,-0.44158956686592976,1,True
2023-04-08,0.15412487654984094,0.15360327468068885,-0.33842808560720083,1,True
2023-04-09,0.15360327468068885,0.15360327468068885,0.0,0,False
2023-04-10,0.15360327468068885,0.15360327468068885,0.0,0,False
2023-04-11,0.15360327468068885,0.15360327468068885,0.0,0,False
2023-04-12,0.15360327468068885,0.1546443791454408,0.6777879357821037,1,True
2023-04-13,0.1546443791454408,0.15467769879584253,0.02154598219854531,0,True
2023-04-14,0.15467769879584253,0.1559641870486159,0.8317218725055975,2,True
2023-04-15,0.1559641870486159,0.15595657957395856,-0.00487770609477467,1,True
2023-04-16,0.15595657957395856,0.15557896763679657,-0.24212632656701594,1,True
2023-04-17,0.15557896763679657,0.15472544744528807,-0.548608982610721,4,True
2023-04-18,0.15472544744528807,0.15472544744528807,0.0,0,False
2023-04-19,0.15472544744528807,0.15221310766894836,-1.6237405144542194,10,True
2023-04-20,0.15221310766894836,0.15113628064588588,-0.707446973229453,0,True
2023-04-21,0.15113628064588588,0.15079612212250226,-0.22506741725411006,1,True
2023-04-22,0.15079612212250226,0.15027632472248587,-0.3447021002265127,1,True
2023-04-23,0.15027632472248587,0.15027632472248587,0.0,0,False
2023-04-24,0.15027632472248587,0.15027632472248587,0.0,0,False
2023-04-25,0.15027632472248587,0.15027632472248587,0.0,0,False
2023-04-26,0.15027632472248587,0.15027632472248587,0.0,0,False
2023-04-27,0.15027632472248587,0.14866770805901022,-1.0704391835814842,12,True
2023-04-28,0.14866770805901022,0.14866770805901022,0.0,0,False
2023-04-29,0.14866770805901022,0.1479272523225036,-0.49806090789583646,1,True
2023-04-30,0.1479272523225036,0.1479272523225036,0.0,0,False
2023-05-01,0.1479272523225036,0.1479272523225036,0.0,0,False
2023-05-02,0.1479272523225036,0.1479272523225036,0.0,0,False
2023-05-03,0.1479272523225036,0.1479272523225036,0.0,0,False
2023-05-04,0.1479272523225036,0.1479272523225036,0.0,0,False
2023-05-05,0.1479272523225036,0.1479272523225036,0.0,0,False
2023-05-06,0.1479272523225036,0.1464571785571127,-0.9937815664864069,2,True
2023-05-07,0.1464571785571127,0.1464571785571127,0.0,0,False
2023-05-08,0.1464571785571127,0.14265909881032665,-2.593303916000922,8,True
2023-05-09,0.14265909881032665,0.14265735344236882,-0.0012234536544641905,6,True
2023-05-10,0.14265735344236882,0.14216088329652155,-0.3480158112198817,2,True
2023-05-11,0.14216088329652155,0.1452805191696255,2.1944404119922156,6,True
2023-05-12,0.1452805191696255,0.1446994757834592,-0.3999458354687513,0,True
2023-05-13,0.1446994757834592,0.14448574907502015,-0.14770385813898113,1,True
2023-05-14,0.14448574907502015,0.14448574907502015,0.0,0,False
2023-05-15,0.14448574907502015,0.14448574907502015,0.0,0,False
2023-05-16,0.14448574907502015,0.14448574907502015,0.0,0,False
2023-05-17,0.14448574907502015,0.14448574907502015,0.0,0,False
2023-05-18,0.14448574907502015,0.14423598525474884,-0.17286398269051872,1,True
2023-05-19,0.14423598525474884,0.14423598525474884,0.0,0,False
2023-05-20,0.14423598525474884,0.14423598525474884,0.0,0,False
2023-05-21,0.14423598525474884,0.14423598525474884,0.0,0,False
2023-05-22,0.14423598525474884,0.14385526539792026,-0.26395622157407983,1,True
2023-05-23,0.14385526539792026,0.14385526539792026,0.0,0,False
2023-05-24,0.14385526539792026,0.14313850035060638,-0.4982543011764151,1,True
2023-05-25,0.14313850035060638,0.1427624707518752,-0.2627033242699306,1,True
2023-05-26,0.1427624707518752,0.14312203308097726,0.2518605395440243,1,True
2023-05-27,0.14312203308097726,0.1416643003888058,-1.0185243046028414,3,True
2023-05-28,0.1416643003888058,0.1416643003888058,0.0,0,False
2023-05-29,0.1416643003888058,0.14231428274689636,0.4588187400119015,1,True
2023-05-30,0.14231428274689636,0.14451810664514989,1.5485612938604287,5,True
2023-05-31,0.14451810664514989,0.1453831752457643,0.5985883850101237,2,True
2023-06-01,0.1453831752457643,0.14608527389730952,0.4829297821830725,0,True
2023-06-02,0.14608527389730952,0.14843628006205767,1.6093382324085415,3,True
2023-06-03,0.14843628006205767,0.14567501372751537,-1.8602368190498098,4,True
2023-06-04,0.14567501372751537,0.1440829347650549,-1.092897760379452,4,True
2023-06-05,0.1440829347650549,0.1434155022708108,-0.46322799805018633,1,True
2023-06-06,0.1434155022708108,0.1377106518988028,-3.9778477791302835,12,True
2023-06-07,0.1377106518988028,0.13646018319219833,-0.9080406557971932,2,True
2023-06-08,0.13646018319219833,0.1352029600647027,-0.9213113291258623,4,True
2023-06-09,0.1352029600647027,0.13462987386121783,-0.4238710478014718,1,True
2023-06-10,0.13462987386121783,0.13882862117715888,3.1187337516703773,8,True
2023-06-11,0.13882862117715888,0.13864089696239015,-0.13522011036123383,1,True
2023-06-12,0.13864089696239015,0.13864089696239015,0.0,0,False
2023-06-13,0.13864089696239015,0.13779367971715661,-0.611087538955668,2,True
2023-06-14,0.13779367971715661,0.13779367971715661,0.0,0,False
2023-06-15,0.13779367971715661,0.13767774520940138,-0.08413630290824425,7,True
2023-06-16,0.13767774520940138,0.1374601628149123,-0.158037447634074,0,True
2023-06-17,0.1374601628149123,0.13718385165919347,-0.2010118059374566,1,True
2023-06-18,0.13718385165919347,0.13718385165919347,0.0,0,False
2023-06-19,0.13718385165919347,0.13818718434172345,0.7313781253369012,1,True
2023-06-20,0.13818718434172345,0.1381025333810175,-0.06125818476525602,1,True
2023-06-21,0.1381025333810175,0.1381025333810175,0.0,0,False
2023-06-22,0.1381025333810175,0.14192916258844873,2.7708609782514104,6,True
2023-06-23,0.14192916258844873,0.1420802870449871,0.10647879109706437,0,True
2023-06-24,0.1420802870449871,0.1418919358448702,-0.13256673676148578,1,True
2023-06-25,0.1418919358448702,0.14022126593356496,-1.1774241441964484,8,True
2023-06-26,0.14022126593356496,0.14022126593356496,0.0,0,False
2023-06-27,0.14022126593356496,0.14022126593356496,0.0,0,False
2023-06-28,0.14022126593356496,0.14022126593356496,0.0,0,False
2023-06-29,0.14022126593356496,0.14034772079619226,0.09018237125830719,2,True
2023-06-30,0.14034772079619226,0.13771414597814013,-1.8764642582806967,10,True
2023-07-01,0.13771414597814013,0.13818932635866912,0.3450483442742458,5,True
2023-07-02,0.13818932635866912,0.13818932635866912,0.0,0,False
2023-07-03,0.13818932635866912,0.13818932635866912,0.0,0,False
2023-07-04,0.13818932635866912,0.13790735126048653,-0.20404983916827435,1,True
2023-07-05,0.13790735126048653,0.1372063796694357,-0.50829167890174,2,True
2023-07-06,0.1372063796694357,0.13766423651438497,0.3336993848626957,4,True
2023-07-07,0.13766423651438497,0.13751156420880906,-0.11090193752679722,0,True
2023-07-08,0.13751156420880906,0.13751156420880906,0.0,0,False
2023-07-09,0.13751156420880906,0.13751156420880906,0.0,0,False
2023-07-10,0.13751156420880906,0.13741583191067439,-0.06961763447712599,1,True
2023-07-11,0.13741583191067439,0.13741583191067439,0.0,0,False
2023-07-12,0.13741583191067439,0.13722491133470202,-0.1389363753198869,1,True
2023-07-13,0.13722491133470202,0.13722491133470202,0.0,0,False
2023-07-14,0.13722491133470202,0.1365404220343379,-0.4988083385928488,1,True
2023-07-15,0.1365404220343379,0.13642015267617666,-0.08808333559345849,7,True
2023-07-16,0.13642015267617666,0.13601440912593316,-0.29742200274957,2,True
2023-07-17,0.13601440912593316,0.13428459016766947,-1.2717909590461707,3,True
2023-07-18,0.13428459016766947,0.1323243148957919,-1.4597916778313347,2,True
2023-07-19,0.1323243148957919,0.13180010299195108,-0.39615690000258663,1,True
2023-07-20,0.13180010299195108,0.1313365295467703,-0.35172464562420735,2,True
2023-07-21,0.1313365295467703,0.1313365295467703,0.0,0,False
2023-07-22,0.1313365295467703,0.1313365295467703,0.0,0,False
2023-07-23,0.1313365295467703,0.1313365295467703,0.0,0,False
2023-07-24,0.1313365295467703,0.12954478410642312,-1.364239976897763,8,True
2023-07-25,0.12954478410642312,0.1292456001641219,-0.23095020333310234,0,True
2023-07-26,0.1292456001641219,0.1292456001641219,0.0,0,False
2023-07-27,0.1292456001641219,0.1292456001641219,0.0,0,False
2023-07-28,0.1292456001641219,0.1292456001641219,0.0,0,False
2023-07-29,0.1292456001641219,0.1292456001641219,0.0,0,False
2023-07-30,0.1292456001641219,0.1292456001641219,0.0,0,False
2023-07-31,0.1292456001641219,0.12860227483733824,-0.4977541409276087,1,True
2023-08-01,0.12860227483733824,0.12942713692822283,0.6414055209582381,3,True
2023-08-02,0.12942713692822283,0.1293094044072233,-0.09096432463372439,0,True
2023-08-03,0.1293094044072233,0.1293094044072233,0.0,0,False
2023-08-04,0.1293094044072233,0.1293094044072233,0.0,0,False
2023-08-05,0.1293094044072233,0.1293094044072233,0.0,0,False
2023-08-06,0.1293094044072233,0.12950729747026155,0.15303841506766336,1,True
2023-08-07,0.12950729747026155,0.12903501426025937,-0.3646769095082214,3,True
2023-08-08,0.12903501426025937,0.12738251867625355,-1.2806567221148146,5,True
2023-08-09,0.12738251867625355,0.12706848031886014,-0.24653175385199733,0,True
2023-08-10,0.12706848031886014,0.1264355639449005,-0.49809077150481107,1,True
2023-08-11,0.1264355639449005,0.1264355639449005,0.0,0,False
2023-08-12,0.1264355639449005,0.1264355639449005,0.0,0,False
2023-08-13,0.1264355639449005,0.12690212105135196,0.36900781069382216,2,True
2023-08-14,0.12690212105135196,0.12594927405538464,-0.7508519070234754,8,True
2023-08-15,0.12594927405538464,0.12495569631697595,-0.7888713498831135,2,True
2023-08-16,0.12495569631697595,0.12638656546531313,1.1451011762660945,8,True
2023-08-17,0.12638656546531313,0.12424939424271078,-1.690979745144583,8,True
2023-08-18,0.12424939424271078,0.13123008579008985,5.618290205699417,7,True
2023-08-19,0.13123008579008985,0.13179615740096215,0.43135810470913416,3,True
2023-08-20,0.13179615740096215,0.13116219319018005,-0.4810187362696783,1,True
2023-08-21,0.13116219319018005,0.1306747638708772,-0.3716233370664179,1,True
2023-08-22,0.1306747638708772,0.13036943261785355,-0.2336573979390244,4,True
2023-08-23,0.13036943261785355,0.13085340535805912,0.3712317607642124,1,True
2023-08-24,0.13085340535805912,0.13085340535805912,0.0,0,False
2023-08-25,0.13085340535805912,0.13103522532639386,0.1389493592751645,10,True
2023-08-26,0.13103522532639386,0.13128552975791197,0.1910207204929959,2,True
2023-08-27,0.13128552975791197,0.13128552975791197,0.0,0,False
2023-08-28,0.13128552975791197,0.13056500093728945,-0.5488257707846,2,True
2023-08-29,0.13056500093728945,0.13159568767311436,0.7894050690659071,3,True
2023-08-30,0.13159568767311436,0.13110715504532683,-0.37123756593077095,3,True
2023-08-31,0.13110715504532683,0.13130447785151955,0.15050498664586076,3,True
2023-09-01,0.13130447785151955,0.13149701526934304,0.14663431207670996,4,True
2023-09-02,0.13149701526934304,0.13371643992338852,1.687813711588415,7,True
2023-09-03,0.13371643992338852,0.13314281763040853,-0.4289841199097477,4,True
2023-09-04,0.13314281763040853,0.13188327659113971,-0.946007499079049,7,True
2023-09-05,0.13188327659113971,0.1325833210878705,0.5308061149413401,2,True
2023-09-06,0.1325833210878705,0.13708681677237125,3.3967286741263925,5,True
2023-09-07,0.13708681677237125,0.13624150006526337,-0.6166287371830337,3,True
2023-09-08,0.13624150006526337,0.13705927335868454,0.6002380280820674,12,True
2023-09-09,0.13705927335868454,0.13473541973428016,-1.6955099552606323,8,True
2023-09-10,0.13473541973428016,0.13220810569826916,-1.8757606878690658,7,True
2023-09-11,0.13220810569826916,0.13165110753127654,-0.4213040978469418,2,True
2023-09-12,0.13165110753127654,0.1310288884208437,-0.4726273269558434,2,True
2023-09-13,0.1310288884208437,0.13076979014782925,-0.19774133485913614,2,True
2023-09-14,0.13076979014782925,0.13018851707900628,-0.44450103358418813,4,True
2023-09-15,0.13018851707900628,0.12966035514264124,-0.4056901086326392,1,True
2023-09-16,0.12966035514264124,0.13149044130164514,1.411446202650457,8,True
2023-09-17,0.13149044130164514,0.1317174657119704,0.17265468735059297,5,True
2023-09-18,0.1317174657119704,0.12947788905612115,-1.7002882979441747,4,True
2023-09-19,0.12947788905612115,0.13050426425452855,0.7927030675967561,1,True
2023-09-20,0.13050426425452855,0.1311116297410295,0.46539895839448064,3,True
2023-09-21,0.1311116297410295,0.13305229915482727,1.4801657317744965,2,True
2023-09-22,0.13305229915482727,0.13544766672399974,1.8003203134318468,1,True
2023-09-23,0.13544766672399974,0.1347721368977379,-0.4987386217869427,1,True
2023-09-24,0.1347721368977379,0.1346166402672571,-0.11537743190849215,1,True
2023-09-25,0.1346166402672571,0.13407108136527843,-0.40526854696087966,1,True
2023-09-26,0.13407108136527843,0.13422098479699487,0.11180892269231357,1,True
2023-09-27,0.13422098479699487,0.133004879776252,-0.9060468618839246,1,True
2023-09-28,0.133004879776252,0.13318887421986333,0.13833661134903252,3,True
2023-09-29,0.13318887421986333,0.13215958466227437,-0.7728044580434301,2,True
2023-09-30,0.13215958466227437,0.13215958466227437,0.0,0,False
2023-10-01,0.13215958466227437,0.13200245938433808,-0.11889056577910617,1,True
2023-10-02,0.13200245938433808,0.1317452783930671,-0.19483045427370893,1,True
2023-10-03,0.1317452783930671,0.13228280209010537,0.40800224766655013,3,True
2023-10-04,0.13228280209010537,0.1301176567195703,-1.6367549948482885,7,True
2023-10-05,0.1301176567195703,0.12925017965436447,-0.6666866642667912,2,True
2023-10-06,0.12925017965436447,0.12925017965436447,0.0,0,False
2023-10-07,0.12925017965436447,0.12861883054201576,-0.48847058784524666,1,True
2023-10-08,0.12861883054201576,0.1282806554137511,-0.2629281628821589,1,True
2023-10-09,0.1282806554137511,0.1266708618721911,-1.2548996856679984,5,True
2023-10-10,0.1266708618721911,0.12578098357498044,-0.7025122305621689,1,True
2023-10-11,0.12578098357498044,0.12578098357498044,0.0,0,False
2023-10-12,0.12578098357498044,0.12578098357498044,0.0,0,False
2023-10-13,0.12578098357498044,0.12578098357498044,0.0,0,False
2023-10-14,0.12578098357498044,0.12578098357498044,0.0,0,False
2023-10-15,0.12578098357498044,0.1257656632387143,-0.012180168917985679,1,True
2023-10-16,0.1257656632387143,0.12589601772524786,0.10364870917600744,2,True
2023-10-17,0.12589601772524786,0.12549662304780784,-0.3172417084006951,2,True
2023-10-18,0.12549662304780784,0.12447528120848168,-0.8138400974638804,4,True
2023-10-19,0.12447528120848168,0.12221361562429002,-1.8169596101603736,5,True
2023-10-20,0.12221361562429002,0.12221361562429002,0.0,0,False
2023-10-21,0.12221361562429002,0.12265853602174419,0.3640514153692598,2,True
2023-10-22,0.12265853602174419,0.12417640792274406,1.2374775944910876,1,True
2023-10-23,0.12417640792274406,0.12417640792274406,0.0,0,False
2023-10-24,0.12417640792274406,0.12253632657336076,-1.320767267163725,9,True
2023-10-25,0.12253632657336076,0.12581449576129342,2.67526314816533,9,True
2023-10-26,0.12581449576129342,0.12656282365031676,0.5947867012424002,9,True
2023-10-27,0.12656282365031676,0.1262481425476999,-0.2486362847642476,7,True
2023-10-28,0.1262481425476999,0.12690921795292437,0.5236317872753693,2,True
2023-10-29,0.12690921795292437,0.12690921795292437,0.0,0,False
2023-10-30,0.12690921795292437,0.12637183301587263,-0.42344042908772916,2,True
2023-10-31,0.12637183301587263,0.1253750805019386,-0.7887457910093265,7,True
2023-11-01,0.1253750805019386,0.1262169967011483,0.6715179729808396,5,True
2023-11-02,0.1262169967011483,0.12533981476821576,-0.6949792467408344,6,True
2023-11-03,0.12533981476821576,0.12384572050360335,-1.1920348433379857,2,True
2023-11-04,0.12384572050360335,0.12320761752870116,-0.5152402297854297,4,True
2023-11-05,0.12320761752870116,0.12281303200797157,-0.32026065323247366,7,True
2023-11-06,0.12281303200797157,0.12101797260399047,-1.4616196462477915,6,True
2023-11-07,0.12101797260399047,0.11891825207761779,-1.7350485065913634,5,True
2023-11-08,0.11891825207761779,0.11891825207761779,0.0,0,False
2023-11-09,0.11891825207761779,0.11797378524567632,-0.7942151986265467,6,True
2023-11-10,0.11797378524567632,0.11603696083476805,-1.6417413469228759,13,True
2023-11-11,0.11603696083476805,0.11393078256409249,-1.8150925838834042,7,True
2023-11-12,0.11393078256409249,0.11618232615280985,1.9762381492032244,7,True
2023-11-13,0.11618232615280985,0.1148976127403673,-1.1057735328459661,4,True
2023-11-14,0.1148976127403673,0.11455647625913781,-0.2969047598929242,12,True
2023-11-15,0.11455647625913781,0.11372619457461645,-0.7247793504429945,3,True
2023-11-16,0.11372619457461645,0.11355926314651794,-0.14678362247405596,5,True
2023-11-17,0.11355926314651794,0.11442340912147109,0.7609647606097836,5,True
2023-11-18,0.11442340912147109,0.11292551641094897,-1.309078904415406,7,True
2023-11-19,0.11292551641094897,0.11135683698686216,-1.3891275186895813,4,True
2023-11-20,0.11135683698686216,0.1112379267654743,-0.10678304503377589,2,True
2023-11-21,0.1112379267654743,0.10827856567237631,-2.660388573527872,6,True
2023-11-22,0.10827856567237631,0.10837809371728664,0.09191851064178636,6,True
2023-11-23,0.10837809371728664,0.10780128419211507,-0.5322196630217824,3,True
2023-11-24,0.10780128419211507,0.11029384233288486,2.3121785231498215,1,True
2023-11-25,0.11029384233288486,0.11076498980514031,0.42717477448419583,6,True
2023-11-26,0.11076498980514031,0.11146839939279542,0.6350468581205693,1,True
2023-11-27,0.11146839939279542,0.11147172761236197,0.002985796498999882,8,True
2023-11-28,0.11147172761236197,0.11021069109915213,-1.13126129846578,5,True
2023-11-29,0.11021069109915213,0.109211963301027,-0.9061986529297905,5,True
2023-11-30,0.109211963301027,0.10847468720463505,-0.6750873018917969,4,True
2023-12-01,0.10847468720463505,0.10847468720463505,0.0,0,False
2023-12-02,0.10847468720463505,0.10950435783183055,0.9492266387024051,1,True
2023-12-03,0.10950435783183055,0.10986156737016897,0.3262057742825286,6,True
2023-12-04,0.10986156737016897,0.11307521925985332,2.9251829976685295,8,True
2023-12-05,0.11307521925985332,0.11401557067530858,0.8316158231754356,9,True
2023-12-06,0.11401557067530858,0.1115967248203641,-2.1215048441346918,11,True
2023-12-07,0.1115967248203641,0.10956504513255362,-1.82055494108887,7,True
2023-12-08,0.10956504513255362,0.1092180191082968,-0.31673059946900617,2,True
2023-12-09,0.1092180191082968,0.1092180191082968,0.0,0,False
2023-12-10,0.1092180191082968,0.1087774163227665,-0.40341583662437674,3,True
2023-12-11,0.1087774163227665,0.10999077253189622,1.115448638281169,8,True
2023-12-12,0.10999077253189622,0.11129937763819914,1.1897408084150296,1,True
2023-12-13,0.11129937763819914,0.11043535691713098,-0.7763032816560989,7,True
2023-12-14,0.11043535691713098,0.11216948069699788,1.5702613984107883,3,True
2023-12-15,0.11216948069699788,0.1105256826302559,-1.4654592822644363,4,True
2023-12-16,0.1105256826302559,0.11109103182078765,0.5115093407050297,5,True
2023-12-17,0.11109103182078765,0.10937672666609662,-1.5431535080676517,7,True
2023-12-18,0.10937672666609662,0.10920803449366757,-0.1542304085804469,9,True
2023-12-19,0.10920803449366757,0.10870008834309579,-0.4651179310449338,4,True
2023-12-20,0.10870008834309579,0.10818933797648998,-0.4698711605400918,2,True
2023-12-21,0.10818933797648998,0.1070565877213727,-1.0470072895384819,3,True
2023-12-22,0.1070565877213727,0.10667327205001238,-0.358049588090692,2,True
2023-12-23,0.10667327205001238,0.10645755325792185,-0.20222384477847077,3,True
2023-12-24,0.10645755325792185,0.1081607452519714,1.5998789582577722,4,True
2023-12-25,0.1081607452519714,0.10630164445446388,-1.718831349743899,6,True
2023-12-26,0.10630164445446388,0.1049738296856485,-1.249100872925979,4,True
2023-12-27,0.1049738296856485,0.10354497910419917,-1.3611493319126478,13,True
2023-12-28,0.10354497910419917,0.10235993397599094,-1.14447377213307,9,True
2023-12-29,0.10235993397599094,0.10287262165037041,0.500867531332827,4,True
2023-12-30,0.10287262165037041,0.10118840985962635,-1.6371817532444433,5,True
2023-12-31,0.10118840985962635,0.0997725148322731,-1.3992660121030176,3,True
