day,start_equity,end_equity,return_pct,entries,active
2021-09-02,1.0,1.0,0.0,0,False
2021-09-03,1.0,1.0,0.0,0,False
2021-09-04,1.0,1.0,0.0,0,False
2021-09-05,1.0,1.0,0.0,0,False
2021-09-06,1.0,1.0,0.0,0,False
2021-09-07,1.0,1.0,0.0,0,False
2021-09-08,1.0,1.0,0.0,0,False
2021-09-09,1.0,1.0,0.0,0,False
2021-09-10,1.0,1.0,0.0,0,False
2021-09-11,1.0,1.0,0.0,0,False
2021-09-12,1.0,1.0,0.0,0,False
2021-09-13,1.0,1.0,0.0,0,False
2021-09-14,1.0,1.0,0.0,0,False
2021-09-15,1.0,1.0,0.0,0,False
2021-09-16,1.0,1.0,0.0,0,False
2021-09-17,1.0,1.0,0.0,0,False
2021-09-18,1.0,1.0,0.0,0,False
2021-09-19,1.0,1.0,0.0,0,False
2021-09-20,1.0,1.0,0.0,0,False
2021-09-21,1.0,1.0,0.0,0,False
2021-09-22,1.0,1.0,0.0,0,False
2021-09-23,1.0,1.0,0.0,0,False
2021-09-24,1.0,1.0,0.0,0,False
2021-09-25,1.0,1.0,0.0,0,False
2021-09-26,1.0,1.0,0.0,0,False
2021-09-27,1.0,1.0,0.0,0,False
2021-09-28,1.0,1.0,0.0,0,False
2021-09-29,1.0,1.0,0.0,0,False
2021-09-30,1.0,1.0,0.0,0,False
2021-10-01,1.0,1.0,0.0,0,False
2021-10-02,1.0,1.0,0.0,0,False
2021-10-03,1.0,1.0,0.0,0,False
2021-10-04,1.0,1.0,0.0,0,False
2021-10-05,1.0,1.0,0.0,0,False
2021-10-06,1.0,1.001489821323389,0.1489821323388929,1,True
2021-10-07,1.001489821323389,1.0006266840307554,-0.08618532852315841,0,True
2021-10-08,1.0006266840307554,1.0006266840307554,0.0,0,False
2021-10-09,1.0006266840307554,0.9986866545947173,-0.19388144120074946,3,True
2021-10-10,0.9986866545947173,1.0011029499451742,0.24194729541444637,1,True
2021-10-11,1.0011029499451742,0.9973633736513651,-0.3735456272518145,0,True
2021-10-12,0.9973633736513651,0.9973633736513651,0.0,0,False
2021-10-13,0.9973633736513651,1.0110876924455516,1.3760600355657404,4,True
2021-10-14,1.0110876924455516,1.0282484533401646,1.6972574211743918,0,True
2021-10-15,1.0282484533401646,1.0314219553700628,0.3086318311094294,1,True
2021-10-16,1.0314219553700628,1.0380033164140867,0.6380861886600586,0,True
2021-10-17,1.0380033164140867,1.0380033164140867,0.0,0,False
2021-10-18,1.0380033164140867,1.037046249156741,-0.09220271671694924,1,True
2021-10-19,1.037046249156741,1.0391650133542418,0.20430758987111108,0,True
2021-10-20,1.0391650133542418,1.0391650133542418,0.0,0,False
2021-10-21,1.0391650133542418,1.0391650133542418,0.0,0,False
2021-10-22,1.0391650133542418,1.0391650133542418,0.0,0,False
2021-10-23,1.0391650133542418,1.0391650133542418,0.0,0,False
2021-10-24,1.0391650133542418,1.0391650133542418,0.0,0,False
2021-10-25,1.0391650133542418,1.0425405949026472,0.32483595050121217,1,True
2021-10-26,1.0425405949026472,1.0459330885025486,0.32540637904063807,0,True
2021-10-27,1.0459330885025486,1.0437509167689822,-0.2086339707151441,6,True
2021-10-28,1.0437509167689822,1.0470649896695219,0.31751568763154214,0,True
2021-10-29,1.0470649896695219,1.0470649896695219,0.0,0,False
2021-10-30,1.0470649896695219,1.0470649896695219,0.0,0,False
2021-10-31,1.0470649896695219,1.0470649896695219,0.0,0,False
2021-11-01,1.0470649896695219,1.0484417478901664,0.13148737033783497,1,True
2021-11-02,1.0484417478901664,1.0479747927969532,-0.04453801025693371,0,True
2021-11-03,1.0479747927969532,1.0481325261784356,0.015051257202602919,1,True
2021-11-04,1.0481325261784356,1.065521588323273,1.6590518575202662,1,True
2021-11-05,1.065521588323273,1.065521588323273,0.0,0,False
2021-11-06,1.065521588323273,1.0624090979065566,-0.2921095593768519,1,True
2021-11-07,1.0624090979065566,1.062589602782614,0.016990147807760536,0,True
2021-11-08,1.062589602782614,1.062589602782614,0.0,0,False
2021-11-09,1.062589602782614,1.062589602782614,0.0,0,False
2021-11-10,1.062589602782614,1.062589602782614,0.0,0,False
2021-11-11,1.062589602782614,1.0310171092677811,-2.971278227469354,6,True
2021-11-12,1.0310171092677811,1.0310171092677811,0.0,0,False
2021-11-13,1.0310171092677811,1.0299442979594227,-0.1040536862788155,1,True
2021-11-14,1.0299442979594227,1.0302803721387046,0.03263032573195268,0,True
2021-11-15,1.0302803721387046,1.0302803721387046,0.0,0,False
2021-11-16,1.0302803721387046,1.0508089874765236,1.992527072529282,5,True
2021-11-17,1.0508089874765236,1.0393626464747074,-1.0892884566303662,0,True
2021-11-18,1.0393626464747074,1.0366371465371078,-0.2622280054843107,2,True
2021-11-19,1.0366371465371078,1.0404433516391776,0.367168503924864,1,True
2021-11-20,1.0404433516391776,1.0409774995859284,0.05133849391314449,0,True
2021-11-21,1.0409774995859284,1.0409774995859284,0.0,0,False
2021-11-22,1.0409774995859284,1.0357810637164864,-0.4991881065161463,1,True
2021-11-23,1.0357810637164864,1.0357810637164864,0.0,0,False
2021-11-24,1.0357810637164864,1.0357810637164864,0.0,0,False
2021-11-25,1.0357810637164864,1.0383889784418103,0.2517824293839288,2,True
2021-11-26,1.0383889784418103,1.0150529307883356,-2.24733198617848,3,True
2021-11-27,1.0150529307883356,1.0150529307883356,0.0,0,False
2021-11-28,1.0150529307883356,1.0099864371435854,-0.4991359062246459,1,True
2021-11-29,1.0099864371435854,1.0099864371435854,0.0,0,False
2021-11-30,1.0099864371435854,1.0099864371435854,0.0,0,False
2021-12-01,1.0099864371435854,1.0099864371435854,0.0,0,False
2021-12-02,1.0099864371435854,1.0080090171931724,-0.19578678264289273,2,True
2021-12-03,1.0080090171931724,1.0022717656171574,-0.5691666917812421,1,True
2021-12-04,1.0022717656171574,0.980573700183843,-2.164888424244249,8,True
2021-12-05,0.980573700183843,0.9777156069661337,-0.29147153520163727,1,True
2021-12-06,0.9777156069661337,0.9730585309075419,-0.4763221559940911,7,True
2021-12-07,0.9730585309075419,0.9977437463006129,2.5368685036909255,0,True
2021-12-08,0.9977437463006129,1.0013399111005243,0.3604297008370283,1,True
2021-12-09,1.0013399111005243,0.9989281289013464,-0.2408554949664632,0,True
2021-12-10,0.9989281289013464,0.9939376913989205,-0.49957923478584076,1,True
2021-12-11,0.9939376913989205,0.9936631527966516,-0.027621309126779625,1,True
2021-12-12,0.9936631527966516,0.9952539735675056,0.16009658468028043,0,True
2021-12-13,0.9952539735675056,0.9917983475052968,-0.3472104763191264,1,True
2021-12-14,0.9917983475052968,0.990283427040152,-0.1527448063364245,0,True
2021-12-15,0.990283427040152,0.990283427040152,0.0,0,False
2021-12-16,0.990283427040152,0.990283427040152,0.0,0,False
2021-12-17,0.990283427040152,0.9908163427354433,0.053814461672252456,2,True
2021-12-18,0.9908163427354433,0.996674280920404,0.5912234116756787,0,True
2021-12-19,0.996674280920404,0.9936412993955941,-0.30431020272831955,1,True
2021-12-20,0.9936412993955941,0.991694543618922,-0.1959213830842521,0,True
2021-12-21,0.991694543618922,0.9890840279174348,-0.263237880886269,1,True
2021-12-22,0.9890840279174348,0.9895423076047493,0.04633374661600076,0,True
2021-12-23,0.9895423076047493,0.9895423076047493,0.0,0,False
2021-12-24,0.9895423076047493,0.9895423076047493,0.0,0,False
2021-12-25,0.9895423076047493,0.9913114146458599,0.17878033384877146,1,True
2021-12-26,0.9913114146458599,0.9909722867976053,-0.034210021517389055,0,True
2021-12-27,0.9909722867976053,0.9909722867976053,0.0,0,False
2021-12-28,0.9909722867976053,0.9909722867976053,0.0,0,False
2021-12-29,0.9909722867976053,0.9909722867976053,0.0,0,False
2021-12-30,0.9909722867976053,0.9909722867976053,0.0,0,False
2021-12-31,0.9909722867976053,0.9909722867976053,0.0,0,False
2022-01-01,0.9909722867976053,0.9909722867976053,0.0,0,False
2022-01-02,0.9909722867976053,0.9909722867976053,0.0,0,False
2022-01-03,0.9909722867976053,0.9909722867976053,0.0,0,False
2022-01-04,0.9909722867976053,0.9909722867976053,0.0,0,False
2022-01-05,0.9909722867976053,0.9924259968818501,0.14669533180817762,1,True
2022-01-06,0.9924259968818501,0.9703811185678209,-2.22131205584023,5,True
2022-01-07,0.9703811185678209,0.9742350620870638,0.39715771932278265,4,True
2022-01-08,0.9742350620870638,0.9721174116745013,-0.2173654485423615,0,True
2022-01-09,0.9721174116745013,0.9727865377269823,0.06883181439250041,1,True
2022-01-10,0.9727865377269823,0.974269367018937,0.15243110738554222,0,True
2022-01-11,0.974269367018937,0.974269367018937,0.0,0,False
2022-01-12,0.974269367018937,0.974269367018937,0.0,0,False
2022-01-13,0.974269367018937,0.974269367018937,0.0,0,False
2022-01-14,0.974269367018937,0.974269367018937,0.0,0,False
2022-01-15,0.974269367018937,0.9747392807776087,0.048232426737349066,1,True
2022-01-16,0.9747392807776087,0.9737257849661041,-0.10397609201674429,0,True
2022-01-17,0.9737257849661041,0.975904614319793,0.22376210914090144,1,True
2022-01-18,0.975904614319793,0.9829455230815078,0.7214750968897121,0,True
2022-01-19,0.9829455230815078,0.9829455230815078,0.0,0,False
2022-01-20,0.9829455230815078,0.9829455230815078,0.0,0,False
2022-01-21,0.9829455230815078,0.9597109807189969,-2.3637670467912986,7,True
2022-01-22,0.9597109807189969,0.949530813359505,-1.0607534522388273,8,True
2022-01-23,0.949530813359505,0.9535469337020634,0.42295840072310575,0,True
2022-01-24,0.9535469337020634,0.9507035684870895,-0.29818828150753873,2,True
2022-01-25,0.9507035684870895,0.9595610598708678,0.9316775151979151,0,True
2022-01-26,0.9595610598708678,0.9595610598708678,0.0,0,False
2022-01-27,0.9595610598708678,0.9664848854351482,0.7215617487867032,4,True
2022-01-28,0.9664848854351482,0.9600347533683221,-0.6673805420063017,0,True
2022-01-29,0.9600347533683221,0.9600347533683221,0.0,0,False
2022-01-30,0.9600347533683221,0.9634812918442109,0.3590014282083498,1,True
2022-01-31,0.9634812918442109,0.9645698877027624,0.11298567681243821,0,True
2022-02-01,0.9645698877027624,0.9645698877027624,0.0,0,False
2022-02-02,0.9645698877027624,0.9645698877027624,0.0,0,False
2022-02-03,0.9645698877027624,0.9633372222336667,-0.12779431379840167,3,True
2022-02-04,0.9633372222336667,0.9692617533945094,0.6150007519802436,0,True
2022-02-05,0.9692617533945094,0.9692617533945094,0.0,0,False
2022-02-06,0.9692617533945094,0.9692617533945094,0.0,0,False
2022-02-07,0.9692617533945094,0.9692617533945094,0.0,0,False
2022-02-08,0.9692617533945094,0.9692617533945094,0.0,0,False
2022-02-09,0.9692617533945094,0.970559007018366,0.13383934931028296,2,True
2022-02-10,0.970559007018366,0.9718215573022827,0.1300848557158174,5,True
2022-02-11,0.9718215573022827,0.970464481595514,-0.13964247824835851,0,True
2022-02-12,0.970464481595514,0.9607860664939426,-0.9972971999613445,4,True
2022-02-13,0.9607860664939426,0.9607860664939426,0.0,0,False
2022-02-14,0.9607860664939426,0.9607860664939426,0.0,0,False
2022-02-15,0.9607860664939426,0.9607860664939426,0.0,0,False
2022-02-16,0.9607860664939426,0.9607860664939426,0.0,0,False
2022-02-17,0.9607860664939426,0.9607860664939426,0.0,0,False
2022-02-18,0.9607860664939426,0.9607860664939426,0.0,0,False
2022-02-19,0.9607860664939426,0.9607860664939426,0.0,0,False
2022-02-20,0.9607860664939426,0.9607860664939426,0.0,0,False
2022-02-21,0.9607860664939426,0.9607860664939426,0.0,0,False
2022-02-22,0.9607860664939426,0.9600716406636683,-0.07435847117155392,2,True
2022-02-23,0.9600716406636683,0.959662836943316,-0.04258054326755634,0,True
2022-02-24,0.959662836943316,0.9500973361327549,-0.9967564067635215,4,True
2022-02-25,0.9500973361327549,0.9500973361327549,0.0,0,False
2022-02-26,0.9500973361327549,0.9500973361327549,0.0,0,False
2022-02-27,0.9500973361327549,0.9500973361327549,0.0,0,False
2022-02-28,0.9500973361327549,0.9513088887258622,0.12751878644756687,1,True
2022-03-01,0.9513088887258622,0.9527555867583845,0.15207447861229628,0,True
2022-03-02,0.9527555867583845,0.9527555867583845,0.0,0,False
2022-03-03,0.9527555867583845,0.9527555867583845,0.0,0,False
2022-03-04,0.9527555867583845,0.9518857962960757,-0.09129208733039684,1,True
2022-03-05,0.9518857962960757,0.9515594986555531,-0.03427907442177247,0,True
2022-03-06,0.9515594986555531,0.9485018527817028,-0.321329972342288,3,True
2022-03-07,0.9485018527817028,0.9458314704671187,-0.28153685802011497,0,True
2022-03-08,0.9458314704671187,0.946402475936995,0.060370741268989114,1,True
2022-03-09,0.946402475936995,0.9508286163198884,0.4676805582647381,1,True
2022-03-10,0.9508286163198884,0.9508647277037799,0.003797885683254343,3,True
2022-03-11,0.9508647277037799,0.9487114342375296,-0.2264563405827813,0,True
2022-03-12,0.9487114342375296,0.9487114342375296,0.0,0,False
2022-03-13,0.9487114342375296,0.9487114342375296,0.0,0,False
2022-03-14,0.9487114342375296,0.9463441030455486,-0.24953121745429074,1,True
2022-03-15,0.9463441030455486,0.9468607540667415,0.05459441439221724,1,True
2022-03-16,0.9468607540667415,0.9485816345769603,0.18174589059982704,1,True
2022-03-17,0.9485816345769603,0.9492763393990891,0.07323616616703443,1,True
2022-03-18,0.9492763393990891,0.9488118064354777,-0.04893548320243912,0,True
2022-03-19,0.9488118064354777,0.9488118064354777,0.0,0,False
2022-03-20,0.9488118064354777,0.9464421003253051,-0.24975512468328187,1,True
2022-03-21,0.9464421003253051,0.9495438654158056,0.32772898515760485,3,True
2022-03-22,0.9495438654158056,0.9491905046791687,-0.03721373487913793,0,True
2022-03-23,0.9491905046791687,0.9491905046791687,0.0,0,False
2022-03-24,0.9491905046791687,0.9491905046791687,0.0,0,False
2022-03-25,0.9491905046791687,0.9491905046791687,0.0,0,False
2022-03-26,0.9491905046791687,0.9491905046791687,0.0,0,False
2022-03-27,0.9491905046791687,0.9491905046791687,0.0,0,False
2022-03-28,0.9491905046791687,0.9491905046791687,0.0,0,False
2022-03-29,0.9491905046791687,0.9491905046791687,0.0,0,False
2022-03-30,0.9491905046791687,0.9534983943682672,0.4538487972501004,4,True
2022-03-31,0.9534983943682672,0.9572576633805597,0.3942606547107097,5,True
2022-04-01,0.9572576633805597,0.9462694453095127,-1.147885098380097,0,True
2022-04-02,0.9462694453095127,0.9462694453095127,0.0,0,False
2022-04-03,0.9462694453095127,0.9439077308184238,-0.24958160731021195,1,True
2022-04-04,0.9439077308184238,0.9439077308184238,0.0,0,False
2022-04-05,0.9439077308184238,0.9439196830603278,0.0012662510872285537,3,True
2022-04-06,0.9439196830603278,0.9304296717710796,-1.4291482137030576,7,True
2022-04-07,0.9304296717710796,0.927413210663046,-0.32420087187156055,0,True
2022-04-08,0.927413210663046,0.927413210663046,0.0,0,False
2022-04-09,0.927413210663046,0.927413210663046,0.0,0,False
2022-04-10,0.927413210663046,0.927413210663046,0.0,0,False
2022-04-11,0.927413210663046,0.9235179568360771,-0.42001276045917635,6,True
2022-04-12,0.9235179568360771,0.9259039677249057,0.2583610715056306,0,True
2022-04-13,0.9259039677249057,0.9259039677249057,0.0,0,False
2022-04-14,0.9259039677249057,0.9259039677249057,0.0,0,False
2022-04-15,0.9259039677249057,0.9259039677249057,0.0,0,False
2022-04-16,0.9259039677249057,0.9259039677249057,0.0,0,False
2022-04-17,0.9259039677249057,0.9280316483905721,0.2297949614466388,1,True
2022-04-18,0.9280316483905721,0.9292111067185719,0.1270924682412744,6,True
2022-04-19,0.9292111067185719,0.9379374475633395,0.9391128433218876,0,True
2022-04-20,0.9379374475633395,0.9379374475633395,0.0,0,False
2022-04-21,0.9379374475633395,0.939244747829347,0.13938032535150136,2,True
2022-04-22,0.939244747829347,0.9368224326158481,-0.2579003203474928,0,True
2022-04-23,0.9368224326158481,0.9368224326158481,0.0,0,False
2022-04-24,0.9368224326158481,0.9368224326158481,0.0,0,False
2022-04-25,0.9368224326158481,0.9341091406761055,-0.2896271315970034,3,True
2022-04-26,0.9341091406761055,0.9359439353969069,0.19642187844060022,2,True
2022-04-27,0.9359439353969069,0.935276445606281,-0.07131728358737988,0,True
2022-04-28,0.935276445606281,0.935276445606281,0.0,0,False
2022-04-29,0.935276445606281,0.935276445606281,0.0,0,False
2022-04-30,0.935276445606281,0.9339388878920839,-0.14301201751424353,1,True
2022-05-01,0.9339388878920839,0.9369042083814776,0.3175069084109472,6,True
2022-05-02,0.9369042083814776,0.9418381159244911,0.5266181429088634,0,True
2022-05-03,0.9418381159244911,0.942480059275677,0.06815856571655843,3,True
2022-05-04,0.942480059275677,0.9387387351006584,-0.3969658708635082,1,True
2022-05-05,0.9387387351006584,0.9387387351006584,0.0,0,False
2022-05-06,0.9387387351006584,0.9327055686911866,-0.6426885547473393,4,True
2022-05-07,0.9327055686911866,0.9306318326716918,-0.22233554608286354,2,True
2022-05-08,0.9306318326716918,0.924726516900195,-0.6345490842005197,3,True
2022-05-09,0.924726516900195,0.919758993154045,-0.5371884179121267,3,True
2022-05-10,0.919758993154045,0.9057397262642662,-1.5242326516105908,6,True
2022-05-11,0.9057397262642662,0.9057397262642662,0.0,0,False
2022-05-12,0.9057397262642662,0.9057397262642662,0.0,0,False
2022-05-13,0.9057397262642662,0.9057397262642662,0.0,0,False
2022-05-14,0.9057397262642662,0.9057397262642662,0.0,0,False
2022-05-15,0.9057397262642662,0.9057397262642662,0.0,0,False
2022-05-16,0.9057397262642662,0.9057397262642662,0.0,0,False
2022-05-17,0.9057397262642662,0.9057397262642662,0.0,0,False
2022-05-18,0.9057397262642662,0.9057397262642662,0.0,0,False
2022-05-19,0.9057397262642662,0.9057397262642662,0.0,0,False
2022-05-20,0.9057397262642662,0.9057397262642662,0.0,0,False
2022-05-21,0.9057397262642662,0.9057397262642662,0.0,0,False
2022-05-22,0.9057397262642662,0.9057397262642662,0.0,0,False
2022-05-23,0.9057397262642662,0.9057397262642662,0.0,0,False
2022-05-24,0.9057397262642662,0.9057397262642662,0.0,0,False
2022-05-25,0.9057397262642662,0.9057397262642662,0.0,0,False
2022-05-26,0.9057397262642662,0.9057397262642662,0.0,0,False
2022-05-27,0.9057397262642662,0.9057397262642662,0.0,0,False
2022-05-28,0.9057397262642662,0.9057397262642662,0.0,0,False
2022-05-29,0.9057397262642662,0.9057397262642662,0.0,0,False
2022-05-30,0.9057397262642662,0.9057397262642662,0.0,0,False
2022-05-31,0.9057397262642662,0.9057397262642662,0.0,0,False
2022-06-01,0.9057397262642662,0.9057397262642662,0.0,0,False
2022-06-02,0.9057397262642662,0.9057397262642662,0.0,0,False
2022-06-03,0.9057397262642662,0.9057397262642662,0.0,0,False
2022-06-04,0.9057397262642662,0.9057397262642662,0.0,0,False
2022-06-05,0.9057397262642662,0.9057397262642662,0.0,0,False
2022-06-06,0.9057397262642662,0.9057397262642662,0.0,0,False
2022-06-07,0.9057397262642662,0.9057397262642662,0.0,0,False
2022-06-08,0.9057397262642662,0.9057397262642662,0.0,0,False
2022-06-09,0.9057397262642662,0.9057397262642662,0.0,0,False
2022-06-10,0.9057397262642662,0.9057397262642662,0.0,0,False
2022-06-11,0.9057397262642662,0.9057397262642662,0.0,0,False
2022-06-12,0.9057397262642662,0.9057397262642662,0.0,0,False
2022-06-13,0.9057397262642662,0.9057397262642662,0.0,0,False
2022-06-14,0.9057397262642662,0.9057397262642662,0.0,0,False
2022-06-15,0.9057397262642662,0.9057397262642662,0.0,0,False
2022-06-16,0.9057397262642662,0.9057397262642662,0.0,0,False
2022-06-17,0.9057397262642662,0.9057397262642662,0.0,0,False
2022-06-18,0.9057397262642662,0.9057397262642662,0.0,0,False
2022-06-19,0.9057397262642662,0.9057397262642662,0.0,0,False
2022-06-20,0.9057397262642662,0.9057397262642662,0.0,0,False
2022-06-21,0.9057397262642662,0.9057397262642662,0.0,0,False
2022-06-22,0.9057397262642662,0.9057397262642662,0.0,0,False
2022-06-23,0.9057397262642662,0.9057397262642662,0.0,0,False
2022-06-24,0.9057397262642662,0.9057397262642662,0.0,0,False
2022-06-25,0.9057397262642662,0.9057397262642662,0.0,0,False
2022-06-26,0.9057397262642662,0.9057397262642662,0.0,0,False
2022-06-27,0.9057397262642662,0.9057397262642662,0.0,0,False
2022-06-28,0.9057397262642662,0.9057397262642662,0.0,0,False
2022-06-29,0.9057397262642662,0.9057397262642662,0.0,0,False
2022-06-30,0.9057397262642662,0.9057397262642662,0.0,0,False
2022-07-01,0.9057397262642662,0.9057397262642662,0.0,0,False
2022-07-02,0.9057397262642662,0.9057397262642662,0.0,0,False
2022-07-03,0.9057397262642662,0.9057397262642662,0.0,0,False
2022-07-04,0.9057397262642662,0.9057397262642662,0.0,0,False
2022-07-05,0.9057397262642662,0.9057397262642662,0.0,0,False
2022-07-06,0.9057397262642662,0.9057397262642662,0.0,0,False
2022-07-07,0.9057397262642662,0.9057397262642662,0.0,0,False
2022-07-08,0.9057397262642662,0.9057397262642662,0.0,0,False
2022-07-09,0.9057397262642662,0.9057397262642662,0.0,0,False
2022-07-10,0.9057397262642662,0.9057397262642662,0.0,0,False
2022-07-11,0.9057397262642662,0.9057397262642662,0.0,0,False
2022-07-12,0.9057397262642662,0.9057397262642662,0.0,0,False
2022-07-13,0.9057397262642662,0.9057397262642662,0.0,0,False
2022-07-14,0.9057397262642662,0.9057397262642662,0.0,0,False
2022-07-15,0.9057397262642662,0.9057397262642662,0.0,0,False
2022-07-16,0.9057397262642662,0.9057397262642662,0.0,0,False
2022-07-17,0.9057397262642662,0.9057397262642662,0.0,0,False
2022-07-18,0.9057397262642662,0.9057397262642662,0.0,0,False
2022-07-19,0.9057397262642662,0.9057397262642662,0.0,0,False
2022-07-20,0.9057397262642662,0.9057397262642662,0.0,0,False
2022-07-21,0.9057397262642662,0.9057397262642662,0.0,0,False
2022-07-22,0.9057397262642662,0.9057397262642662,0.0,0,False
2022-07-23,0.9057397262642662,0.9057397262642662,0.0,0,False
2022-07-24,0.9057397262642662,0.9057397262642662,0.0,0,False
2022-07-25,0.9057397262642662,0.9057397262642662,0.0,0,False
2022-07-26,0.9057397262642662,0.9057397262642662,0.0,0,False
2022-07-27,0.9057397262642662,0.9057397262642662,0.0,0,False
2022-07-28,0.9057397262642662,0.9057397262642662,0.0,0,False
2022-07-29,0.9057397262642662,0.9057397262642662,0.0,0,False
2022-07-30,0.9057397262642662,0.9057397262642662,0.0,0,False
2022-07-31,0.9057397262642662,0.9057397262642662,0.0,0,False
2022-08-01,0.9057397262642662,0.9057397262642662,0.0,0,False
2022-08-02,0.9057397262642662,0.9057397262642662,0.0,0,False
2022-08-03,0.9057397262642662,0.9057397262642662,0.0,0,False
2022-08-04,0.9057397262642662,0.9057397262642662,0.0,0,False
2022-08-05,0.9057397262642662,0.9057397262642662,0.0,0,False
2022-08-06,0.9057397262642662,0.9057397262642662,0.0,0,False
2022-08-07,0.9057397262642662,0.9057397262642662,0.0,0,False
2022-08-08,0.9057397262642662,0.9057397262642662,0.0,0,False
2022-08-09,0.9057397262642662,0.9057397262642662,0.0,0,False
2022-08-10,0.9057397262642662,0.9057397262642662,0.0,0,False
2022-08-11,0.9057397262642662,0.9057397262642662,0.0,0,False
2022-08-12,0.9057397262642662,0.9057397262642662,0.0,0,False
2022-08-13,0.9057397262642662,0.9057397262642662,0.0,0,False
2022-08-14,0.9057397262642662,0.9057397262642662,0.0,0,False
2022-08-15,0.9057397262642662,0.9057397262642662,0.0,0,False
2022-08-16,0.9057397262642662,0.9057397262642662,0.0,0,False
2022-08-17,0.9057397262642662,0.9057397262642662,0.0,0,False
2022-08-18,0.9057397262642662,0.9057397262642662,0.0,0,False
2022-08-19,0.9057397262642662,0.9057397262642662,0.0,0,False
2022-08-20,0.9057397262642662,0.9057397262642662,0.0,0,False
2022-08-21,0.9057397262642662,0.9057397262642662,0.0,0,False
2022-08-22,0.9057397262642662,0.9057397262642662,0.0,0,False
2022-08-23,0.9057397262642662,0.9057397262642662,0.0,0,False
2022-08-24,0.9057397262642662,0.9057397262642662,0.0,0,False
2022-08-25,0.9057397262642662,0.9057397262642662,0.0,0,False
2022-08-26,0.9057397262642662,0.9057397262642662,0.0,0,False
2022-08-27,0.9057397262642662,0.9057397262642662,0.0,0,False
2022-08-28,0.9057397262642662,0.9057397262642662,0.0,0,False
2022-08-29,0.9057397262642662,0.9057397262642662,0.0,0,False
2022-08-30,0.9057397262642662,0.9057397262642662,0.0,0,False
2022-08-31,0.9057397262642662,0.9057397262642662,0.0,0,False
2022-09-01,0.9057397262642662,0.9057397262642662,0.0,0,False
2022-09-02,0.9057397262642662,0.9057397262642662,0.0,0,False
2022-09-03,0.9057397262642662,0.9057397262642662,0.0,0,False
2022-09-04,0.9057397262642662,0.9057397262642662,0.0,0,False
2022-09-05,0.9057397262642662,0.9057397262642662,0.0,0,False
2022-09-06,0.9057397262642662,0.9057397262642662,0.0,0,False
2022-09-07,0.9057397262642662,0.9057397262642662,0.0,0,False
2022-09-08,0.9057397262642662,0.9057397262642662,0.0,0,False
2022-09-09,0.9057397262642662,0.9057397262642662,0.0,0,False
2022-09-10,0.9057397262642662,0.9057397262642662,0.0,0,False
2022-09-11,0.9057397262642662,0.9057397262642662,0.0,0,False
2022-09-12,0.9057397262642662,0.9057397262642662,0.0,0,False
2022-09-13,0.9057397262642662,0.9057397262642662,0.0,0,False
2022-09-14,0.9057397262642662,0.9057397262642662,0.0,0,False
2022-09-15,0.9057397262642662,0.9057397262642662,0.0,0,False
2022-09-16,0.9057397262642662,0.9057397262642662,0.0,0,False
2022-09-17,0.9057397262642662,0.9057397262642662,0.0,0,False
2022-09-18,0.9057397262642662,0.9057397262642662,0.0,0,False
2022-09-19,0.9057397262642662,0.9057397262642662,0.0,0,False
2022-09-20,0.9057397262642662,0.9057397262642662,0.0,0,False
2022-09-21,0.9057397262642662,0.9057397262642662,0.0,0,False
2022-09-22,0.9057397262642662,0.9057397262642662,0.0,0,False
2022-09-23,0.9057397262642662,0.9057397262642662,0.0,0,False
2022-09-24,0.9057397262642662,0.9057397262642662,0.0,0,False
2022-09-25,0.9057397262642662,0.9057397262642662,0.0,0,False
2022-09-26,0.9057397262642662,0.9057397262642662,0.0,0,False
2022-09-27,0.9057397262642662,0.9057397262642662,0.0,0,False
2022-09-28,0.9057397262642662,0.9057397262642662,0.0,0,False
2022-09-29,0.9057397262642662,0.9057397262642662,0.0,0,False
2022-09-30,0.9057397262642662,0.9057397262642662,0.0,0,False
2022-10-01,0.9057397262642662,0.9057397262642662,0.0,0,False
2022-10-02,0.9057397262642662,0.9057397262642662,0.0,0,False
2022-10-03,0.9057397262642662,0.9057397262642662,0.0,0,False
2022-10-04,0.9057397262642662,0.9057397262642662,0.0,0,False
2022-10-05,0.9057397262642662,0.9057397262642662,0.0,0,False
2022-10-06,0.9057397262642662,0.9057397262642662,0.0,0,False
2022-10-07,0.9057397262642662,0.9057397262642662,0.0,0,False
2022-10-08,0.9057397262642662,0.9057397262642662,0.0,0,False
2022-10-09,0.9057397262642662,0.9057397262642662,0.0,0,False
2022-10-10,0.9057397262642662,0.9057397262642662,0.0,0,False
2022-10-11,0.9057397262642662,0.9057397262642662,0.0,0,False
2022-10-12,0.9057397262642662,0.9057397262642662,0.0,0,False
2022-10-13,0.9057397262642662,0.9057397262642662,0.0,0,False
2022-10-14,0.9057397262642662,0.9057397262642662,0.0,0,False
2022-10-15,0.9057397262642662,0.9057397262642662,0.0,0,False
2022-10-16,0.9057397262642662,0.9057397262642662,0.0,0,False
2022-10-17,0.9057397262642662,0.9057397262642662,0.0,0,False
2022-10-18,0.9057397262642662,0.9057397262642662,0.0,0,False
2022-10-19,0.9057397262642662,0.9057397262642662,0.0,0,False
2022-10-20,0.9057397262642662,0.9057397262642662,0.0,0,False
2022-10-21,0.9057397262642662,0.9057397262642662,0.0,0,False
2022-10-22,0.9057397262642662,0.9057397262642662,0.0,0,False
2022-10-23,0.9057397262642662,0.9057397262642662,0.0,0,False
2022-10-24,0.9057397262642662,0.9057397262642662,0.0,0,False
2022-10-25,0.9057397262642662,0.9057397262642662,0.0,0,False
2022-10-26,0.9057397262642662,0.9057397262642662,0.0,0,False
2022-10-27,0.9057397262642662,0.9057397262642662,0.0,0,False
2022-10-28,0.9057397262642662,0.9057397262642662,0.0,0,False
2022-10-29,0.9057397262642662,0.9057397262642662,0.0,0,False
2022-10-30,0.9057397262642662,0.9057397262642662,0.0,0,False
2022-10-31,0.9057397262642662,0.9057397262642662,0.0,0,False
2022-11-01,0.9057397262642662,0.9057397262642662,0.0,0,False
2022-11-02,0.9057397262642662,0.9057397262642662,0.0,0,False
2022-11-03,0.9057397262642662,0.9057397262642662,0.0,0,False
2022-11-04,0.9057397262642662,0.9057397262642662,0.0,0,False
2022-11-05,0.9057397262642662,0.9057397262642662,0.0,0,False
2022-11-06,0.9057397262642662,0.9057397262642662,0.0,0,False
2022-11-07,0.9057397262642662,0.9057397262642662,0.0,0,False
2022-11-08,0.9057397262642662,0.9057397262642662,0.0,0,False
2022-11-09,0.9057397262642662,0.9057397262642662,0.0,0,False
2022-11-10,0.9057397262642662,0.9057397262642662,0.0,0,False
2022-11-11,0.9057397262642662,0.9057397262642662,0.0,0,False
2022-11-12,0.9057397262642662,0.9057397262642662,0.0,0,False
2022-11-13,0.9057397262642662,0.9057397262642662,0.0,0,False
2022-11-14,0.9057397262642662,0.9057397262642662,0.0,0,False
2022-11-15,0.9057397262642662,0.9057397262642662,0.0,0,False
2022-11-16,0.9057397262642662,0.9057397262642662,0.0,0,False
2022-11-17,0.9057397262642662,0.9057397262642662,0.0,0,False
2022-11-18,0.9057397262642662,0.9057397262642662,0.0,0,False
2022-11-19,0.9057397262642662,0.9057397262642662,0.0,0,False
2022-11-20,0.9057397262642662,0.9057397262642662,0.0,0,False
2022-11-21,0.9057397262642662,0.9057397262642662,0.0,0,False
2022-11-22,0.9057397262642662,0.9057397262642662,0.0,0,False
2022-11-23,0.9057397262642662,0.9057397262642662,0.0,0,False
2022-11-24,0.9057397262642662,0.9057397262642662,0.0,0,False
2022-11-25,0.9057397262642662,0.9057397262642662,0.0,0,False
2022-11-26,0.9057397262642662,0.9057397262642662,0.0,0,False
2022-11-27,0.9057397262642662,0.9057397262642662,0.0,0,False
2022-11-28,0.9057397262642662,0.9057397262642662,0.0,0,False
2022-11-29,0.9057397262642662,0.9057397262642662,0.0,0,False
2022-11-30,0.9057397262642662,0.9057397262642662,0.0,0,False
2022-12-01,0.9057397262642662,0.9057397262642662,0.0,0,False
2022-12-02,0.9057397262642662,0.9057397262642662,0.0,0,False
2022-12-03,0.9057397262642662,0.9057397262642662,0.0,0,False
2022-12-04,0.9057397262642662,0.9057397262642662,0.0,0,False
2022-12-05,0.9057397262642662,0.9057397262642662,0.0,0,False
2022-12-06,0.9057397262642662,0.9057397262642662,0.0,0,False
2022-12-07,0.9057397262642662,0.9057397262642662,0.0,0,False
2022-12-08,0.9057397262642662,0.9057397262642662,0.0,0,False
2022-12-09,0.9057397262642662,0.9057397262642662,0.0,0,False
2022-12-10,0.9057397262642662,0.9057397262642662,0.0,0,False
2022-12-11,0.9057397262642662,0.9057397262642662,0.0,0,False
2022-12-12,0.9057397262642662,0.9057397262642662,0.0,0,False
2022-12-13,0.9057397262642662,0.9057397262642662,0.0,0,False
2022-12-14,0.9057397262642662,0.9057397262642662,0.0,0,False
2022-12-15,0.9057397262642662,0.9057397262642662,0.0,0,False
2022-12-16,0.9057397262642662,0.9057397262642662,0.0,0,False
2022-12-17,0.9057397262642662,0.9057397262642662,0.0,0,False
2022-12-18,0.9057397262642662,0.9057397262642662,0.0,0,False
2022-12-19,0.9057397262642662,0.9057397262642662,0.0,0,False
2022-12-20,0.9057397262642662,0.9057397262642662,0.0,0,False
2022-12-21,0.9057397262642662,0.9057397262642662,0.0,0,False
2022-12-22,0.9057397262642662,0.9057397262642662,0.0,0,False
2022-12-23,0.9057397262642662,0.9057397262642662,0.0,0,False
2022-12-24,0.9057397262642662,0.9057397262642662,0.0,0,False
2022-12-25,0.9057397262642662,0.9057397262642662,0.0,0,False
2022-12-26,0.9057397262642662,0.9057397262642662,0.0,0,False
2022-12-27,0.9057397262642662,0.9057397262642662,0.0,0,False
2022-12-28,0.9057397262642662,0.9057397262642662,0.0,0,False
2022-12-29,0.9057397262642662,0.9057397262642662,0.0,0,False
2022-12-30,0.9057397262642662,0.9057397262642662,0.0,0,False
2022-12-31,0.9057397262642662,0.9057397262642662,0.0,0,False
2023-01-01,0.9057397262642662,0.9057397262642662,0.0,0,False
2023-01-02,0.9057397262642662,0.9057397262642662,0.0,0,False
2023-01-03,0.9057397262642662,0.9057397262642662,0.0,0,False
2023-01-04,0.9057397262642662,0.9057397262642662,0.0,0,False
2023-01-05,0.9057397262642662,0.9057397262642662,0.0,0,False
2023-01-06,0.9057397262642662,0.9057397262642662,0.0,0,False
2023-01-07,0.9057397262642662,0.9057397262642662,0.0,0,False
2023-01-08,0.9057397262642662,0.9057397262642662,0.0,0,False
2023-01-09,0.9057397262642662,0.9057397262642662,0.0,0,False
2023-01-10,0.9057397262642662,0.9057397262642662,0.0,0,False
2023-01-11,0.9057397262642662,0.9057397262642662,0.0,0,False
2023-01-12,0.9057397262642662,0.9057397262642662,0.0,0,False
2023-01-13,0.9057397262642662,0.9057397262642662,0.0,0,False
2023-01-14,0.9057397262642662,0.9057397262642662,0.0,0,False
2023-01-15,0.9057397262642662,0.9057397262642662,0.0,0,False
2023-01-16,0.9057397262642662,0.9057397262642662,0.0,0,False
2023-01-17,0.9057397262642662,0.9057397262642662,0.0,0,False
2023-01-18,0.9057397262642662,0.9057397262642662,0.0,0,False
2023-01-19,0.9057397262642662,0.9057397262642662,0.0,0,False
2023-01-20,0.9057397262642662,0.9057397262642662,0.0,0,False
2023-01-21,0.9057397262642662,0.9057397262642662,0.0,0,False
2023-01-22,0.9057397262642662,0.9057397262642662,0.0,0,False
2023-01-23,0.9057397262642662,0.9057397262642662,0.0,0,False
2023-01-24,0.9057397262642662,0.9057397262642662,0.0,0,False
2023-01-25,0.9057397262642662,0.9057397262642662,0.0,0,False
2023-01-26,0.9057397262642662,0.9057397262642662,0.0,0,False
2023-01-27,0.9057397262642662,0.9057397262642662,0.0,0,False
2023-01-28,0.9057397262642662,0.9057397262642662,0.0,0,False
2023-01-29,0.9057397262642662,0.9057397262642662,0.0,0,False
2023-01-30,0.9057397262642662,0.9057397262642662,0.0,0,False
2023-01-31,0.9057397262642662,0.9057397262642662,0.0,0,False
2023-02-01,0.9057397262642662,0.9057397262642662,0.0,0,False
2023-02-02,0.9057397262642662,0.9057397262642662,0.0,0,False
2023-02-03,0.9057397262642662,0.9057397262642662,0.0,0,False
2023-02-04,0.9057397262642662,0.9057397262642662,0.0,0,False
2023-02-05,0.9057397262642662,0.9057397262642662,0.0,0,False
2023-02-06,0.9057397262642662,0.9057397262642662,0.0,0,False
2023-02-07,0.9057397262642662,0.9057397262642662,0.0,0,False
2023-02-08,0.9057397262642662,0.9057397262642662,0.0,0,False
2023-02-09,0.9057397262642662,0.9057397262642662,0.0,0,False
2023-02-10,0.9057397262642662,0.9057397262642662,0.0,0,False
2023-02-11,0.9057397262642662,0.9057397262642662,0.0,0,False
2023-02-12,0.9057397262642662,0.9057397262642662,0.0,0,False
2023-02-13,0.9057397262642662,0.9057397262642662,0.0,0,False
2023-02-14,0.9057397262642662,0.9057397262642662,0.0,0,False
2023-02-15,0.9057397262642662,0.9057397262642662,0.0,0,False
2023-02-16,0.9057397262642662,0.9057397262642662,0.0,0,False
2023-02-17,0.9057397262642662,0.9057397262642662,0.0,0,False
2023-02-18,0.9057397262642662,0.9057397262642662,0.0,0,False
2023-02-19,0.9057397262642662,0.9057397262642662,0.0,0,False
2023-02-20,0.9057397262642662,0.9057397262642662,0.0,0,False
2023-02-21,0.9057397262642662,0.9057397262642662,0.0,0,False
2023-02-22,0.9057397262642662,0.9057397262642662,0.0,0,False
2023-02-23,0.9057397262642662,0.9057397262642662,0.0,0,False
2023-02-24,0.9057397262642662,0.9057397262642662,0.0,0,False
2023-02-25,0.9057397262642662,0.9057397262642662,0.0,0,False
2023-02-26,0.9057397262642662,0.9057397262642662,0.0,0,False
2023-02-27,0.9057397262642662,0.9057397262642662,0.0,0,False
2023-02-28,0.9057397262642662,0.9057397262642662,0.0,0,False
2023-03-01,0.9057397262642662,0.9057397262642662,0.0,0,False
2023-03-02,0.9057397262642662,0.9057397262642662,0.0,0,False
2023-03-03,0.9057397262642662,0.9057397262642662,0.0,0,False
2023-03-04,0.9057397262642662,0.9057397262642662,0.0,0,False
2023-03-05,0.9057397262642662,0.9057397262642662,0.0,0,False
2023-03-06,0.9057397262642662,0.9057397262642662,0.0,0,False
2023-03-07,0.9057397262642662,0.9057397262642662,0.0,0,False
2023-03-08,0.9057397262642662,0.9057397262642662,0.0,0,False
2023-03-09,0.9057397262642662,0.9057397262642662,0.0,0,False
2023-03-10,0.9057397262642662,0.9057397262642662,0.0,0,False
2023-03-11,0.9057397262642662,0.9057397262642662,0.0,0,False
2023-03-12,0.9057397262642662,0.9057397262642662,0.0,0,False
2023-03-13,0.9057397262642662,0.9057397262642662,0.0,0,False
2023-03-14,0.9057397262642662,0.9057397262642662,0.0,0,False
2023-03-15,0.9057397262642662,0.9057397262642662,0.0,0,False
2023-03-16,0.9057397262642662,0.9057397262642662,0.0,0,False
2023-03-17,0.9057397262642662,0.9057397262642662,0.0,0,False
2023-03-18,0.9057397262642662,0.9057397262642662,0.0,0,False
2023-03-19,0.9057397262642662,0.9057397262642662,0.0,0,False
2023-03-20,0.9057397262642662,0.9057397262642662,0.0,0,False
2023-03-21,0.9057397262642662,0.9057397262642662,0.0,0,False
2023-03-22,0.9057397262642662,0.9057397262642662,0.0,0,False
2023-03-23,0.9057397262642662,0.9057397262642662,0.0,0,False
2023-03-24,0.9057397262642662,0.9057397262642662,0.0,0,False
2023-03-25,0.9057397262642662,0.9057397262642662,0.0,0,False
2023-03-26,0.9057397262642662,0.9057397262642662,0.0,0,False
2023-03-27,0.9057397262642662,0.9057397262642662,0.0,0,False
2023-03-28,0.9057397262642662,0.9057397262642662,0.0,0,False
2023-03-29,0.9057397262642662,0.9057397262642662,0.0,0,False
2023-03-30,0.9057397262642662,0.9057397262642662,0.0,0,False
2023-03-31,0.9057397262642662,0.9057397262642662,0.0,0,False
2023-04-01,0.9057397262642662,0.9057397262642662,0.0,0,False
2023-04-02,0.9057397262642662,0.9057397262642662,0.0,0,False
2023-04-03,0.9057397262642662,0.9057397262642662,0.0,0,False
2023-04-04,0.9057397262642662,0.9057397262642662,0.0,0,False
2023-04-05,0.9057397262642662,0.9057397262642662,0.0,0,False
2023-04-06,0.9057397262642662,0.9057397262642662,0.0,0,False
2023-04-07,0.9057397262642662,0.9057397262642662,0.0,0,False
2023-04-08,0.9057397262642662,0.9057397262642662,0.0,0,False
2023-04-09,0.9057397262642662,0.9057397262642662,0.0,0,False
2023-04-10,0.9057397262642662,0.9057397262642662,0.0,0,False
2023-04-11,0.9057397262642662,0.9057397262642662,0.0,0,False
2023-04-12,0.9057397262642662,0.9057397262642662,0.0,0,False
2023-04-13,0.9057397262642662,0.9057397262642662,0.0,0,False
2023-04-14,0.9057397262642662,0.9057397262642662,0.0,0,False
2023-04-15,0.9057397262642662,0.9057397262642662,0.0,0,False
2023-04-16,0.9057397262642662,0.9057397262642662,0.0,0,False
2023-04-17,0.9057397262642662,0.9057397262642662,0.0,0,False
2023-04-18,0.9057397262642662,0.9057397262642662,0.0,0,False
2023-04-19,0.9057397262642662,0.9057397262642662,0.0,0,False
2023-04-20,0.9057397262642662,0.9057397262642662,0.0,0,False
2023-04-21,0.9057397262642662,0.9057397262642662,0.0,0,False
2023-04-22,0.9057397262642662,0.9057397262642662,0.0,0,False
2023-04-23,0.9057397262642662,0.9057397262642662,0.0,0,False
2023-04-24,0.9057397262642662,0.9057397262642662,0.0,0,False
2023-04-25,0.9057397262642662,0.9057397262642662,0.0,0,False
2023-04-26,0.9057397262642662,0.9057397262642662,0.0,0,False
2023-04-27,0.9057397262642662,0.9057397262642662,0.0,0,False
2023-04-28,0.9057397262642662,0.9057397262642662,0.0,0,False
2023-04-29,0.9057397262642662,0.9057397262642662,0.0,0,False
2023-04-30,0.9057397262642662,0.9057397262642662,0.0,0,False
2023-05-01,0.9057397262642662,0.9057397262642662,0.0,0,False
2023-05-02,0.9057397262642662,0.9057397262642662,0.0,0,False
2023-05-03,0.9057397262642662,0.9057397262642662,0.0,0,False
2023-05-04,0.9057397262642662,0.9057397262642662,0.0,0,False
2023-05-05,0.9057397262642662,0.9057397262642662,0.0,0,False
2023-05-06,0.9057397262642662,0.9057397262642662,0.0,0,False
2023-05-07,0.9057397262642662,0.9057397262642662,0.0,0,False
2023-05-08,0.9057397262642662,0.9057397262642662,0.0,0,False
2023-05-09,0.9057397262642662,0.9057397262642662,0.0,0,False
2023-05-10,0.9057397262642662,0.9057397262642662,0.0,0,False
2023-05-11,0.9057397262642662,0.9057397262642662,0.0,0,False
2023-05-12,0.9057397262642662,0.9057397262642662,0.0,0,False
2023-05-13,0.9057397262642662,0.9057397262642662,0.0,0,False
2023-05-14,0.9057397262642662,0.9057397262642662,0.0,0,False
2023-05-15,0.9057397262642662,0.9057397262642662,0.0,0,False
2023-05-16,0.9057397262642662,0.9057397262642662,0.0,0,False
2023-05-17,0.9057397262642662,0.9057397262642662,0.0,0,False
2023-05-18,0.9057397262642662,0.9057397262642662,0.0,0,False
2023-05-19,0.9057397262642662,0.9057397262642662,0.0,0,False
2023-05-20,0.9057397262642662,0.9057397262642662,0.0,0,False
2023-05-21,0.9057397262642662,0.9057397262642662,0.0,0,False
2023-05-22,0.9057397262642662,0.9057397262642662,0.0,0,False
2023-05-23,0.9057397262642662,0.9057397262642662,0.0,0,False
2023-05-24,0.9057397262642662,0.9057397262642662,0.0,0,False
2023-05-25,0.9057397262642662,0.9057397262642662,0.0,0,False
2023-05-26,0.9057397262642662,0.9057397262642662,0.0,0,False
2023-05-27,0.9057397262642662,0.9057397262642662,0.0,0,False
2023-05-28,0.9057397262642662,0.9057397262642662,0.0,0,False
2023-05-29,0.9057397262642662,0.9057397262642662,0.0,0,False
2023-05-30,0.9057397262642662,0.9057397262642662,0.0,0,False
2023-05-31,0.9057397262642662,0.9057397262642662,0.0,0,False
2023-06-01,0.9057397262642662,0.9057397262642662,0.0,0,False
2023-06-02,0.9057397262642662,0.9057397262642662,0.0,0,False
2023-06-03,0.9057397262642662,0.9057397262642662,0.0,0,False
2023-06-04,0.9057397262642662,0.9057397262642662,0.0,0,False
2023-06-05,0.9057397262642662,0.9057397262642662,0.0,0,False
2023-06-06,0.9057397262642662,0.9057397262642662,0.0,0,False
2023-06-07,0.9057397262642662,0.9057397262642662,0.0,0,False
2023-06-08,0.9057397262642662,0.9057397262642662,0.0,0,False
2023-06-09,0.9057397262642662,0.9057397262642662,0.0,0,False
2023-06-10,0.9057397262642662,0.9057397262642662,0.0,0,False
2023-06-11,0.9057397262642662,0.9057397262642662,0.0,0,False
2023-06-12,0.9057397262642662,0.9057397262642662,0.0,0,False
2023-06-13,0.9057397262642662,0.9057397262642662,0.0,0,False
2023-06-14,0.9057397262642662,0.9057397262642662,0.0,0,False
2023-06-15,0.9057397262642662,0.9057397262642662,0.0,0,False
2023-06-16,0.9057397262642662,0.9057397262642662,0.0,0,False
2023-06-17,0.9057397262642662,0.9057397262642662,0.0,0,False
2023-06-18,0.9057397262642662,0.9057397262642662,0.0,0,False
2023-06-19,0.9057397262642662,0.9057397262642662,0.0,0,False
2023-06-20,0.9057397262642662,0.9057397262642662,0.0,0,False
2023-06-21,0.9057397262642662,0.9057397262642662,0.0,0,False
2023-06-22,0.9057397262642662,0.9057397262642662,0.0,0,False
2023-06-23,0.9057397262642662,0.9057397262642662,0.0,0,False
2023-06-24,0.9057397262642662,0.9057397262642662,0.0,0,False
2023-06-25,0.9057397262642662,0.9057397262642662,0.0,0,False
2023-06-26,0.9057397262642662,0.9057397262642662,0.0,0,False
2023-06-27,0.9057397262642662,0.9057397262642662,0.0,0,False
2023-06-28,0.9057397262642662,0.9057397262642662,0.0,0,False
2023-06-29,0.9057397262642662,0.9057397262642662,0.0,0,False
2023-06-30,0.9057397262642662,0.9057397262642662,0.0,0,False
2023-07-01,0.9057397262642662,0.9057397262642662,0.0,0,False
2023-07-02,0.9057397262642662,0.9057397262642662,0.0,0,False
2023-07-03,0.9057397262642662,0.9057397262642662,0.0,0,False
2023-07-04,0.9057397262642662,0.9057397262642662,0.0,0,False
2023-07-05,0.9057397262642662,0.9057397262642662,0.0,0,False
2023-07-06,0.9057397262642662,0.9057397262642662,0.0,0,False
2023-07-07,0.9057397262642662,0.9057397262642662,0.0,0,False
2023-07-08,0.9057397262642662,0.9057397262642662,0.0,0,False
2023-07-09,0.9057397262642662,0.9057397262642662,0.0,0,False
2023-07-10,0.9057397262642662,0.9057397262642662,0.0,0,False
2023-07-11,0.9057397262642662,0.9057397262642662,0.0,0,False
2023-07-12,0.9057397262642662,0.9057397262642662,0.0,0,False
2023-07-13,0.9057397262642662,0.9057397262642662,0.0,0,False
2023-07-14,0.9057397262642662,0.9057397262642662,0.0,0,False
2023-07-15,0.9057397262642662,0.9057397262642662,0.0,0,False
2023-07-16,0.9057397262642662,0.9057397262642662,0.0,0,False
2023-07-17,0.9057397262642662,0.9057397262642662,0.0,0,False
2023-07-18,0.9057397262642662,0.9057397262642662,0.0,0,False
2023-07-19,0.9057397262642662,0.9057397262642662,0.0,0,False
2023-07-20,0.9057397262642662,0.9057397262642662,0.0,0,False
2023-07-21,0.9057397262642662,0.9057397262642662,0.0,0,False
2023-07-22,0.9057397262642662,0.9057397262642662,0.0,0,False
2023-07-23,0.9057397262642662,0.9057397262642662,0.0,0,False
2023-07-24,0.9057397262642662,0.9057397262642662,0.0,0,False
2023-07-25,0.9057397262642662,0.9057397262642662,0.0,0,False
2023-07-26,0.9057397262642662,0.9057397262642662,0.0,0,False
2023-07-27,0.9057397262642662,0.9057397262642662,0.0,0,False
2023-07-28,0.9057397262642662,0.9057397262642662,0.0,0,False
2023-07-29,0.9057397262642662,0.9057397262642662,0.0,0,False
2023-07-30,0.9057397262642662,0.9057397262642662,0.0,0,False
2023-07-31,0.9057397262642662,0.9057397262642662,0.0,0,False
2023-08-01,0.9057397262642662,0.9057397262642662,0.0,0,False
2023-08-02,0.9057397262642662,0.9057397262642662,0.0,0,False
2023-08-03,0.9057397262642662,0.9057397262642662,0.0,0,False
2023-08-04,0.9057397262642662,0.9057397262642662,0.0,0,False
2023-08-05,0.9057397262642662,0.9057397262642662,0.0,0,False
2023-08-06,0.9057397262642662,0.9057397262642662,0.0,0,False
2023-08-07,0.9057397262642662,0.9057397262642662,0.0,0,False
2023-08-08,0.9057397262642662,0.9057397262642662,0.0,0,False
2023-08-09,0.9057397262642662,0.9057397262642662,0.0,0,False
2023-08-10,0.9057397262642662,0.9057397262642662,0.0,0,False
2023-08-11,0.9057397262642662,0.9057397262642662,0.0,0,False
2023-08-12,0.9057397262642662,0.9057397262642662,0.0,0,False
2023-08-13,0.9057397262642662,0.9057397262642662,0.0,0,False
2023-08-14,0.9057397262642662,0.9057397262642662,0.0,0,False
2023-08-15,0.9057397262642662,0.9057397262642662,0.0,0,False
2023-08-16,0.9057397262642662,0.9057397262642662,0.0,0,False
2023-08-17,0.9057397262642662,0.9057397262642662,0.0,0,False
2023-08-18,0.9057397262642662,0.9057397262642662,0.0,0,False
2023-08-19,0.9057397262642662,0.9057397262642662,0.0,0,False
2023-08-20,0.9057397262642662,0.9057397262642662,0.0,0,False
2023-08-21,0.9057397262642662,0.9057397262642662,0.0,0,False
2023-08-22,0.9057397262642662,0.9057397262642662,0.0,0,False
2023-08-23,0.9057397262642662,0.9057397262642662,0.0,0,False
2023-08-24,0.9057397262642662,0.9057397262642662,0.0,0,False
2023-08-25,0.9057397262642662,0.9057397262642662,0.0,0,False
2023-08-26,0.9057397262642662,0.9057397262642662,0.0,0,False
2023-08-27,0.9057397262642662,0.9057397262642662,0.0,0,False
2023-08-28,0.9057397262642662,0.9057397262642662,0.0,0,False
2023-08-29,0.9057397262642662,0.9057397262642662,0.0,0,False
2023-08-30,0.9057397262642662,0.9057397262642662,0.0,0,False
2023-08-31,0.9057397262642662,0.9057397262642662,0.0,0,False
2023-09-01,0.9057397262642662,0.9057397262642662,0.0,0,False
2023-09-02,0.9057397262642662,0.9057397262642662,0.0,0,False
2023-09-03,0.9057397262642662,0.9057397262642662,0.0,0,False
2023-09-04,0.9057397262642662,0.9057397262642662,0.0,0,False
2023-09-05,0.9057397262642662,0.9057397262642662,0.0,0,False
2023-09-06,0.9057397262642662,0.9057397262642662,0.0,0,False
2023-09-07,0.9057397262642662,0.9057397262642662,0.0,0,False
2023-09-08,0.9057397262642662,0.9057397262642662,0.0,0,False
2023-09-09,0.9057397262642662,0.9057397262642662,0.0,0,False
2023-09-10,0.9057397262642662,0.9057397262642662,0.0,0,False
2023-09-11,0.9057397262642662,0.9057397262642662,0.0,0,False
2023-09-12,0.9057397262642662,0.9057397262642662,0.0,0,False
2023-09-13,0.9057397262642662,0.9057397262642662,0.0,0,False
2023-09-14,0.9057397262642662,0.9057397262642662,0.0,0,False
2023-09-15,0.9057397262642662,0.9057397262642662,0.0,0,False
2023-09-16,0.9057397262642662,0.9057397262642662,0.0,0,False
2023-09-17,0.9057397262642662,0.9057397262642662,0.0,0,False
2023-09-18,0.9057397262642662,0.9057397262642662,0.0,0,False
2023-09-19,0.9057397262642662,0.9057397262642662,0.0,0,False
2023-09-20,0.9057397262642662,0.9057397262642662,0.0,0,False
2023-09-21,0.9057397262642662,0.9057397262642662,0.0,0,False
2023-09-22,0.9057397262642662,0.9057397262642662,0.0,0,False
2023-09-23,0.9057397262642662,0.9057397262642662,0.0,0,False
2023-09-24,0.9057397262642662,0.9057397262642662,0.0,0,False
2023-09-25,0.9057397262642662,0.9057397262642662,0.0,0,False
2023-09-26,0.9057397262642662,0.9057397262642662,0.0,0,False
2023-09-27,0.9057397262642662,0.9057397262642662,0.0,0,False
2023-09-28,0.9057397262642662,0.9057397262642662,0.0,0,False
2023-09-29,0.9057397262642662,0.9057397262642662,0.0,0,False
2023-09-30,0.9057397262642662,0.9057397262642662,0.0,0,False
2023-10-01,0.9057397262642662,0.9057397262642662,0.0,0,False
2023-10-02,0.9057397262642662,0.9057397262642662,0.0,0,False
2023-10-03,0.9057397262642662,0.9057397262642662,0.0,0,False
2023-10-04,0.9057397262642662,0.9057397262642662,0.0,0,False
2023-10-05,0.9057397262642662,0.9057397262642662,0.0,0,False
2023-10-06,0.9057397262642662,0.9057397262642662,0.0,0,False
2023-10-07,0.9057397262642662,0.9057397262642662,0.0,0,False
2023-10-08,0.9057397262642662,0.9057397262642662,0.0,0,False
2023-10-09,0.9057397262642662,0.9057397262642662,0.0,0,False
2023-10-10,0.9057397262642662,0.9057397262642662,0.0,0,False
2023-10-11,0.9057397262642662,0.9057397262642662,0.0,0,False
2023-10-12,0.9057397262642662,0.9057397262642662,0.0,0,False
2023-10-13,0.9057397262642662,0.9057397262642662,0.0,0,False
2023-10-14,0.9057397262642662,0.9057397262642662,0.0,0,False
2023-10-15,0.9057397262642662,0.9057397262642662,0.0,0,False
2023-10-16,0.9057397262642662,0.9057397262642662,0.0,0,False
2023-10-17,0.9057397262642662,0.9057397262642662,0.0,0,False
2023-10-18,0.9057397262642662,0.9057397262642662,0.0,0,False
2023-10-19,0.9057397262642662,0.9057397262642662,0.0,0,False
2023-10-20,0.9057397262642662,0.9057397262642662,0.0,0,False
2023-10-21,0.9057397262642662,0.9057397262642662,0.0,0,False
2023-10-22,0.9057397262642662,0.9057397262642662,0.0,0,False
2023-10-23,0.9057397262642662,0.9057397262642662,0.0,0,False
2023-10-24,0.9057397262642662,0.9057397262642662,0.0,0,False
2023-10-25,0.9057397262642662,0.9057397262642662,0.0,0,False
2023-10-26,0.9057397262642662,0.9057397262642662,0.0,0,False
2023-10-27,0.9057397262642662,0.9057397262642662,0.0,0,False
2023-10-28,0.9057397262642662,0.9057397262642662,0.0,0,False
2023-10-29,0.9057397262642662,0.9057397262642662,0.0,0,False
2023-10-30,0.9057397262642662,0.9057397262642662,0.0,0,False
2023-10-31,0.9057397262642662,0.9057397262642662,0.0,0,False
2023-11-01,0.9057397262642662,0.9057397262642662,0.0,0,False
2023-11-02,0.9057397262642662,0.9057397262642662,0.0,0,False
2023-11-03,0.9057397262642662,0.9057397262642662,0.0,0,False
2023-11-04,0.9057397262642662,0.9057397262642662,0.0,0,False
2023-11-05,0.9057397262642662,0.9057397262642662,0.0,0,False
2023-11-06,0.9057397262642662,0.9057397262642662,0.0,0,False
2023-11-07,0.9057397262642662,0.9057397262642662,0.0,0,False
2023-11-08,0.9057397262642662,0.9057397262642662,0.0,0,False
2023-11-09,0.9057397262642662,0.9057397262642662,0.0,0,False
2023-11-10,0.9057397262642662,0.9057397262642662,0.0,0,False
2023-11-11,0.9057397262642662,0.9057397262642662,0.0,0,False
2023-11-12,0.9057397262642662,0.9057397262642662,0.0,0,False
2023-11-13,0.9057397262642662,0.9057397262642662,0.0,0,False
2023-11-14,0.9057397262642662,0.9057397262642662,0.0,0,False
2023-11-15,0.9057397262642662,0.9057397262642662,0.0,0,False
2023-11-16,0.9057397262642662,0.9057397262642662,0.0,0,False
2023-11-17,0.9057397262642662,0.9057397262642662,0.0,0,False
2023-11-18,0.9057397262642662,0.9057397262642662,0.0,0,False
2023-11-19,0.9057397262642662,0.9057397262642662,0.0,0,False
2023-11-20,0.9057397262642662,0.9057397262642662,0.0,0,False
2023-11-21,0.9057397262642662,0.9057397262642662,0.0,0,False
2023-11-22,0.9057397262642662,0.9057397262642662,0.0,0,False
2023-11-23,0.9057397262642662,0.9057397262642662,0.0,0,False
2023-11-24,0.9057397262642662,0.9057397262642662,0.0,0,False
2023-11-25,0.9057397262642662,0.9057397262642662,0.0,0,False
2023-11-26,0.9057397262642662,0.9057397262642662,0.0,0,False
2023-11-27,0.9057397262642662,0.9057397262642662,0.0,0,False
2023-11-28,0.9057397262642662,0.9057397262642662,0.0,0,False
2023-11-29,0.9057397262642662,0.9057397262642662,0.0,0,False
2023-11-30,0.9057397262642662,0.9057397262642662,0.0,0,False
2023-12-01,0.9057397262642662,0.9057397262642662,0.0,0,False
2023-12-02,0.9057397262642662,0.9057397262642662,0.0,0,False
2023-12-03,0.9057397262642662,0.9057397262642662,0.0,0,False
2023-12-04,0.9057397262642662,0.9057397262642662,0.0,0,False
2023-12-05,0.9057397262642662,0.9057397262642662,0.0,0,False
2023-12-06,0.9057397262642662,0.9057397262642662,0.0,0,False
2023-12-07,0.9057397262642662,0.9057397262642662,0.0,0,False
2023-12-08,0.9057397262642662,0.9057397262642662,0.0,0,False
2023-12-09,0.9057397262642662,0.9057397262642662,0.0,0,False
2023-12-10,0.9057397262642662,0.9057397262642662,0.0,0,False
2023-12-11,0.9057397262642662,0.9057397262642662,0.0,0,False
2023-12-12,0.9057397262642662,0.9057397262642662,0.0,0,False
2023-12-13,0.9057397262642662,0.9057397262642662,0.0,0,False
2023-12-14,0.9057397262642662,0.9057397262642662,0.0,0,False
2023-12-15,0.9057397262642662,0.9057397262642662,0.0,0,False
2023-12-16,0.9057397262642662,0.9057397262642662,0.0,0,False
2023-12-17,0.9057397262642662,0.9057397262642662,0.0,0,False
2023-12-18,0.9057397262642662,0.9057397262642662,0.0,0,False
2023-12-19,0.9057397262642662,0.9057397262642662,0.0,0,False
2023-12-20,0.9057397262642662,0.9057397262642662,0.0,0,False
2023-12-21,0.9057397262642662,0.9057397262642662,0.0,0,False
2023-12-22,0.9057397262642662,0.9057397262642662,0.0,0,False
2023-12-23,0.9057397262642662,0.9057397262642662,0.0,0,False
2023-12-24,0.9057397262642662,0.9057397262642662,0.0,0,False
2023-12-25,0.9057397262642662,0.9057397262642662,0.0,0,False
2023-12-26,0.9057397262642662,0.9057397262642662,0.0,0,False
2023-12-27,0.9057397262642662,0.9057397262642662,0.0,0,False
2023-12-28,0.9057397262642662,0.9057397262642662,0.0,0,False
2023-12-29,0.9057397262642662,0.9057397262642662,0.0,0,False
2023-12-30,0.9057397262642662,0.9057397262642662,0.0,0,False
2023-12-31,0.9057397262642662,0.9057397262642662,0.0,0,False
