day,start_equity,end_equity,return_pct,entries,active
2021-09-02,1.0,1.0,0.0,0,False
2021-09-03,1.0,1.0,0.0,0,False
2021-09-04,1.0,1.0,0.0,0,False
2021-09-05,1.0,1.0,0.0,0,False
2021-09-06,1.0,1.0,0.0,0,False
2021-09-07,1.0,1.0,0.0,0,False
2021-09-08,1.0,1.0,0.0,0,False
2021-09-09,1.0,1.0,0.0,0,False
2021-09-10,1.0,1.0,0.0,0,False
2021-09-11,1.0,1.0,0.0,0,False
2021-09-12,1.0,1.0,0.0,0,False
2021-09-13,1.0,1.0,0.0,0,False
2021-09-14,1.0,1.0,0.0,0,False
2021-09-15,1.0,1.0,0.0,0,False
2021-09-16,1.0,1.0,0.0,0,False
2021-09-17,1.0,1.0,0.0,0,False
2021-09-18,1.0,1.0,0.0,0,False
2021-09-19,1.0,1.0,0.0,0,False
2021-09-20,1.0,1.0,0.0,0,False
2021-09-21,1.0,1.0,0.0,0,False
2021-09-22,1.0,1.0,0.0,0,False
2021-09-23,1.0,1.0,0.0,0,False
2021-09-24,1.0,1.0,0.0,0,False
2021-09-25,1.0,1.0,0.0,0,False
2021-09-26,1.0,1.0,0.0,0,False
2021-09-27,1.0,1.0,0.0,0,False
2021-09-28,1.0,1.0,0.0,0,False
2021-09-29,1.0,1.0,0.0,0,False
2021-09-30,1.0,1.0,0.0,0,False
2021-10-01,1.0,1.0,0.0,0,False
2021-10-02,1.0,1.0,0.0,0,False
2021-10-03,1.0,1.0,0.0,0,False
2021-10-04,1.0,1.0,0.0,0,False
2021-10-05,1.0,1.0,0.0,0,False
2021-10-06,1.0,1.0,0.0,0,False
2021-10-07,1.0,1.0,0.0,0,False
2021-10-08,1.0,1.0,0.0,0,False
2021-10-09,1.0,1.0,0.0,0,False
2021-10-10,1.0,1.0,0.0,0,False
2021-10-11,1.0,1.0,0.0,0,False
2021-10-12,1.0,1.0,0.0,0,False
2021-10-13,1.0,1.0044085104710179,0.4408510471017868,1,True
2021-10-14,1.0044085104710179,1.0076726271163816,0.3249789912505907,0,True
2021-10-15,1.0076726271163816,1.0076726271163816,0.0,0,False
2021-10-16,1.0076726271163816,1.0076726271163816,0.0,0,False
2021-10-17,1.0076726271163816,1.0076726271163816,0.0,0,False
2021-10-18,1.0076726271163816,1.0076726271163816,0.0,0,False
2021-10-19,1.0076726271163816,1.0076726271163816,0.0,0,False
2021-10-20,1.0076726271163816,1.0076726271163816,0.0,0,False
2021-10-21,1.0076726271163816,1.0076726271163816,0.0,0,False
2021-10-22,1.0076726271163816,1.0076726271163816,0.0,0,False
2021-10-23,1.0076726271163816,1.0076726271163816,0.0,0,False
2021-10-24,1.0076726271163816,1.0076726271163816,0.0,0,False
2021-10-25,1.0076726271163816,1.0112256039508694,0.3525923736417358,1,True
2021-10-26,1.0112256039508694,1.0112256039508694,0.0,0,False
2021-10-27,1.0112256039508694,1.0198229960771616,0.8501952573888749,4,True
2021-10-28,1.0198229960771616,1.015339962583986,-0.4395893709418175,0,True
2021-10-29,1.015339962583986,1.015339962583986,0.0,0,False
2021-10-30,1.015339962583986,1.015339962583986,0.0,0,False
2021-10-31,1.015339962583986,1.015339962583986,0.0,0,False
2021-11-01,1.015339962583986,1.015339962583986,0.0,0,False
2021-11-02,1.015339962583986,1.015339962583986,0.0,0,False
2021-11-03,1.015339962583986,1.015339962583986,0.0,0,False
2021-11-04,1.015339962583986,1.015339962583986,0.0,0,False
2021-11-05,1.015339962583986,1.015339962583986,0.0,0,False
2021-11-06,1.015339962583986,1.015339962583986,0.0,0,False
2021-11-07,1.015339962583986,1.015339962583986,0.0,0,False
2021-11-08,1.015339962583986,1.015339962583986,0.0,0,False
2021-11-09,1.015339962583986,1.015339962583986,0.0,0,False
2021-11-10,1.015339962583986,1.015339962583986,0.0,0,False
2021-11-11,1.015339962583986,1.0115476392436622,-0.3735028148279085,3,True
2021-11-12,1.0115476392436622,1.0115476392436622,0.0,0,False
2021-11-13,1.0115476392436622,1.0115476392436622,0.0,0,False
2021-11-14,1.0115476392436622,1.0115476392436622,0.0,0,False
2021-11-15,1.0115476392436622,1.0115476392436622,0.0,0,False
2021-11-16,1.0115476392436622,1.0380015132930795,2.6151881555669387,4,True
2021-11-17,1.0380015132930795,1.0413185480078526,0.3195597185836174,0,True
2021-11-18,1.0413185480078526,1.038089619407808,-0.31008077271089673,1,True
2021-11-19,1.038089619407808,1.0361124961209804,-0.19045786123508268,0,True
2021-11-20,1.0361124961209804,1.0361124961209804,0.0,0,False
2021-11-21,1.0361124961209804,1.0361124961209804,0.0,0,False
2021-11-22,1.0361124961209804,1.0361124961209804,0.0,0,False
2021-11-23,1.0361124961209804,1.0361124961209804,0.0,0,False
2021-11-24,1.0361124961209804,1.0361124961209804,0.0,0,False
2021-11-25,1.0361124961209804,1.0361124961209804,0.0,0,False
2021-11-26,1.0361124961209804,1.039404615845213,0.3177376719765146,5,True
2021-11-27,1.039404615845213,1.0380013286393006,-0.135008752560839,0,True
2021-11-28,1.0380013286393006,1.0380013286393006,0.0,0,False
2021-11-29,1.0380013286393006,1.0380013286393006,0.0,0,False
2021-11-30,1.0380013286393006,1.0380013286393006,0.0,0,False
2021-12-01,1.0380013286393006,1.0359284090150258,-0.19970298371314588,1,True
2021-12-02,1.0359284090150258,1.036715179899903,0.0759483838873809,1,True
2021-12-03,1.036715179899903,1.0343323844079528,-0.22984089923138162,1,True
2021-12-04,1.0343323844079528,1.0138007111827798,-1.9850169572835363,4,True
2021-12-05,1.0138007111827798,1.0138007111827798,0.0,0,False
2021-12-06,1.0138007111827798,1.0138007111827798,0.0,0,False
2021-12-07,1.0138007111827798,1.0138007111827798,0.0,0,False
2021-12-08,1.0138007111827798,1.0138007111827798,0.0,0,False
2021-12-09,1.0138007111827798,1.0138007111827798,0.0,0,False
2021-12-10,1.0138007111827798,1.0138007111827798,0.0,0,False
2021-12-11,1.0138007111827798,1.0138007111827798,0.0,0,False
2021-12-12,1.0138007111827798,1.0138007111827798,0.0,0,False
2021-12-13,1.0138007111827798,1.0138007111827798,0.0,0,False
2021-12-14,1.0138007111827798,1.0138007111827798,0.0,0,False
2021-12-15,1.0138007111827798,1.0138007111827798,0.0,0,False
2021-12-16,1.0138007111827798,1.0138007111827798,0.0,0,False
2021-12-17,1.0138007111827798,1.0138007111827798,0.0,0,False
2021-12-18,1.0138007111827798,1.0138007111827798,0.0,0,False
2021-12-19,1.0138007111827798,1.0138007111827798,0.0,0,False
2021-12-20,1.0138007111827798,1.0138007111827798,0.0,0,False
2021-12-21,1.0138007111827798,1.0138007111827798,0.0,0,False
2021-12-22,1.0138007111827798,1.0138007111827798,0.0,0,False
2021-12-23,1.0138007111827798,1.0138007111827798,0.0,0,False
2021-12-24,1.0138007111827798,1.0138007111827798,0.0,0,False
2021-12-25,1.0138007111827798,1.0138007111827798,0.0,0,False
2021-12-26,1.0138007111827798,1.0138007111827798,0.0,0,False
2021-12-27,1.0138007111827798,1.0138007111827798,0.0,0,False
2021-12-28,1.0138007111827798,1.0138007111827798,0.0,0,False
2021-12-29,1.0138007111827798,1.0138007111827798,0.0,0,False
2021-12-30,1.0138007111827798,1.0138007111827798,0.0,0,False
2021-12-31,1.0138007111827798,1.0138007111827798,0.0,0,False
2022-01-01,1.0138007111827798,1.0138007111827798,0.0,0,False
2022-01-02,1.0138007111827798,1.0138007111827798,0.0,0,False
2022-01-03,1.0138007111827798,1.0138007111827798,0.0,0,False
2022-01-04,1.0138007111827798,1.0138007111827798,0.0,0,False
2022-01-05,1.0138007111827798,1.0138007111827798,0.0,0,False
2022-01-06,1.0138007111827798,1.0148377645760522,0.10229361469500375,1,True
2022-01-07,1.0148377645760522,1.0148377645760522,0.0,0,False
2022-01-08,1.0148377645760522,1.0148377645760522,0.0,0,False
2022-01-09,1.0148377645760522,1.0148377645760522,0.0,0,False
2022-01-10,1.0148377645760522,1.0148377645760522,0.0,0,False
2022-01-11,1.0148377645760522,1.0148377645760522,0.0,0,False
2022-01-12,1.0148377645760522,1.0148377645760522,0.0,0,False
2022-01-13,1.0148377645760522,1.0148377645760522,0.0,0,False
2022-01-14,1.0148377645760522,1.0148377645760522,0.0,0,False
2022-01-15,1.0148377645760522,1.0148377645760522,0.0,0,False
2022-01-16,1.0148377645760522,1.0148377645760522,0.0,0,False
2022-01-17,1.0148377645760522,1.0148377645760522,0.0,0,False
2022-01-18,1.0148377645760522,1.0148377645760522,0.0,0,False
2022-01-19,1.0148377645760522,1.0148377645760522,0.0,0,False
2022-01-20,1.0148377645760522,1.0148377645760522,0.0,0,False
2022-01-21,1.0148377645760522,1.0148377645760522,0.0,0,False
2022-01-22,1.0148377645760522,1.0148377645760522,0.0,0,False
2022-01-23,1.0148377645760522,1.0148377645760522,0.0,0,False
2022-01-24,1.0148377645760522,1.0148377645760522,0.0,0,False
2022-01-25,1.0148377645760522,1.0148377645760522,0.0,0,False
2022-01-26,1.0148377645760522,1.0148377645760522,0.0,0,False
2022-01-27,1.0148377645760522,1.0148377645760522,0.0,0,False
2022-01-28,1.0148377645760522,1.0148377645760522,0.0,0,False
2022-01-29,1.0148377645760522,1.0148377645760522,0.0,0,False
2022-01-30,1.0148377645760522,1.0148377645760522,0.0,0,False
2022-01-31,1.0148377645760522,1.0148377645760522,0.0,0,False
2022-02-01,1.0148377645760522,1.0148377645760522,0.0,0,False
2022-02-02,1.0148377645760522,1.0148377645760522,0.0,0,False
2022-02-03,1.0148377645760522,1.0148377645760522,0.0,0,False
2022-02-04,1.0148377645760522,1.0148377645760522,0.0,0,False
2022-02-05,1.0148377645760522,1.0148377645760522,0.0,0,False
2022-02-06,1.0148377645760522,1.0148377645760522,0.0,0,False
2022-02-07,1.0148377645760522,1.0148377645760522,0.0,0,False
2022-02-08,1.0148377645760522,1.0148377645760522,0.0,0,False
2022-02-09,1.0148377645760522,1.0148377645760522,0.0,0,False
2022-02-10,1.0148377645760522,1.0147034762380247,-0.01323249318413433,1,True
2022-02-11,1.0147034762380247,1.0120710999662965,-0.25942320425348386,0,True
2022-02-12,1.0120710999662965,1.0120710999662965,0.0,0,False
2022-02-13,1.0120710999662965,1.0120710999662965,0.0,0,False
2022-02-14,1.0120710999662965,1.0120710999662965,0.0,0,False
2022-02-15,1.0120710999662965,1.0120710999662965,0.0,0,False
2022-02-16,1.0120710999662965,1.0120710999662965,0.0,0,False
2022-02-17,1.0120710999662965,1.0120710999662965,0.0,0,False
2022-02-18,1.0120710999662965,1.0120710999662965,0.0,0,False
2022-02-19,1.0120710999662965,1.0120710999662965,0.0,0,False
2022-02-20,1.0120710999662965,1.0120710999662965,0.0,0,False
2022-02-21,1.0120710999662965,1.0120710999662965,0.0,0,False
2022-02-22,1.0120710999662965,1.0120710999662965,0.0,0,False
2022-02-23,1.0120710999662965,1.0120710999662965,0.0,0,False
2022-02-24,1.0120710999662965,1.0120710999662965,0.0,0,False
2022-02-25,1.0120710999662965,1.0120710999662965,0.0,0,False
2022-02-26,1.0120710999662965,1.0120710999662965,0.0,0,False
2022-02-27,1.0120710999662965,1.0120710999662965,0.0,0,False
2022-02-28,1.0120710999662965,1.0120710999662965,0.0,0,False
2022-03-01,1.0120710999662965,1.0120710999662965,0.0,0,False
2022-03-02,1.0120710999662965,1.0120710999662965,0.0,0,False
2022-03-03,1.0120710999662965,1.0120710999662965,0.0,0,False
2022-03-04,1.0120710999662965,1.0120710999662965,0.0,0,False
2022-03-05,1.0120710999662965,1.0120710999662965,0.0,0,False
2022-03-06,1.0120710999662965,1.0120710999662965,0.0,0,False
2022-03-07,1.0120710999662965,1.0120710999662965,0.0,0,False
2022-03-08,1.0120710999662965,1.0120710999662965,0.0,0,False
2022-03-09,1.0120710999662965,1.0120710999662965,0.0,0,False
2022-03-10,1.0120710999662965,1.0120710999662965,0.0,0,False
2022-03-11,1.0120710999662965,1.0120710999662965,0.0,0,False
2022-03-12,1.0120710999662965,1.0120710999662965,0.0,0,False
2022-03-13,1.0120710999662965,1.0120710999662965,0.0,0,False
2022-03-14,1.0120710999662965,1.0120710999662965,0.0,0,False
2022-03-15,1.0120710999662965,1.0120710999662965,0.0,0,False
2022-03-16,1.0120710999662965,1.0120710999662965,0.0,0,False
2022-03-17,1.0120710999662965,1.0120710999662965,0.0,0,False
2022-03-18,1.0120710999662965,1.0120710999662965,0.0,0,False
2022-03-19,1.0120710999662965,1.0120710999662965,0.0,0,False
2022-03-20,1.0120710999662965,1.0120710999662965,0.0,0,False
2022-03-21,1.0120710999662965,1.0120710999662965,0.0,0,False
2022-03-22,1.0120710999662965,1.0120710999662965,0.0,0,False
2022-03-23,1.0120710999662965,1.0120710999662965,0.0,0,False
2022-03-24,1.0120710999662965,1.0120710999662965,0.0,0,False
2022-03-25,1.0120710999662965,1.0120710999662965,0.0,0,False
2022-03-26,1.0120710999662965,1.0120710999662965,0.0,0,False
2022-03-27,1.0120710999662965,1.0120710999662965,0.0,0,False
2022-03-28,1.0120710999662965,1.0120710999662965,0.0,0,False
2022-03-29,1.0120710999662965,1.0120710999662965,0.0,0,False
2022-03-30,1.0120710999662965,1.01093886079067,-0.11187348158289145,1,True
2022-03-31,1.01093886079067,1.01093886079067,0.0,0,False
2022-04-01,1.01093886079067,1.01093886079067,0.0,0,False
2022-04-02,1.01093886079067,1.01093886079067,0.0,0,False
2022-04-03,1.01093886079067,1.01093886079067,0.0,0,False
2022-04-04,1.01093886079067,1.01093886079067,0.0,0,False
2022-04-05,1.01093886079067,1.01093886079067,0.0,0,False
2022-04-06,1.01093886079067,1.0120425125144383,0.10917096637330648,1,True
2022-04-07,1.0120425125144383,1.0120425125144383,0.0,0,False
2022-04-08,1.0120425125144383,1.0120425125144383,0.0,0,False
2022-04-09,1.0120425125144383,1.0120425125144383,0.0,0,False
2022-04-10,1.0120425125144383,1.0120425125144383,0.0,0,False
2022-04-11,1.0120425125144383,1.0120425125144383,0.0,0,False
2022-04-12,1.0120425125144383,1.0120425125144383,0.0,0,False
2022-04-13,1.0120425125144383,1.0120425125144383,0.0,0,False
2022-04-14,1.0120425125144383,1.0120425125144383,0.0,0,False
2022-04-15,1.0120425125144383,1.0120425125144383,0.0,0,False
2022-04-16,1.0120425125144383,1.0120425125144383,0.0,0,False
2022-04-17,1.0120425125144383,1.0120425125144383,0.0,0,False
2022-04-18,1.0120425125144383,1.0143421141526154,0.22722381814412884,1,True
2022-04-19,1.0143421141526154,1.0132139063496772,-0.11122557046551185,0,True
2022-04-20,1.0132139063496772,1.0132139063496772,0.0,0,False
2022-04-21,1.0132139063496772,1.0132139063496772,0.0,0,False
2022-04-22,1.0132139063496772,1.0132139063496772,0.0,0,False
2022-04-23,1.0132139063496772,1.0132139063496772,0.0,0,False
2022-04-24,1.0132139063496772,1.0132139063496772,0.0,0,False
2022-04-25,1.0132139063496772,1.0132139063496772,0.0,0,False
2022-04-26,1.0132139063496772,1.0132139063496772,0.0,0,False
2022-04-27,1.0132139063496772,1.0132139063496772,0.0,0,False
2022-04-28,1.0132139063496772,1.0132139063496772,0.0,0,False
2022-04-29,1.0132139063496772,1.0132139063496772,0.0,0,False
2022-04-30,1.0132139063496772,1.0132139063496772,0.0,0,False
2022-05-01,1.0132139063496772,1.0267890823562318,1.3398134314462906,4,True
2022-05-02,1.0267890823562318,1.0267890823562318,0.0,0,False
2022-05-03,1.0267890823562318,1.0267890823562318,0.0,0,False
2022-05-04,1.0267890823562318,1.0267890823562318,0.0,0,False
2022-05-05,1.0267890823562318,1.0267890823562318,0.0,0,False
2022-05-06,1.0267890823562318,1.0275331049329668,0.07246109152501123,1,True
2022-05-07,1.0275331049329668,1.0267565771156508,-0.07557204858782418,0,True
2022-05-08,1.0267565771156508,1.0267565771156508,0.0,0,False
2022-05-09,1.0267565771156508,1.0267565771156508,0.0,0,False
2022-05-10,1.0267565771156508,1.0267565771156508,0.0,0,False
2022-05-11,1.0267565771156508,1.0267565771156508,0.0,0,False
2022-05-12,1.0267565771156508,1.0267565771156508,0.0,0,False
2022-05-13,1.0267565771156508,1.0267565771156508,0.0,0,False
2022-05-14,1.0267565771156508,1.0267565771156508,0.0,0,False
2022-05-15,1.0267565771156508,1.0267565771156508,0.0,0,False
2022-05-16,1.0267565771156508,1.0267565771156508,0.0,0,False
2022-05-17,1.0267565771156508,1.0267565771156508,0.0,0,False
2022-05-18,1.0267565771156508,1.0267565771156508,0.0,0,False
2022-05-19,1.0267565771156508,1.0267565771156508,0.0,0,False
2022-05-20,1.0267565771156508,1.0299678517914492,0.31275910448214095,1,True
2022-05-21,1.0299678517914492,1.0299678517914492,0.0,0,False
2022-05-22,1.0299678517914492,1.0299678517914492,0.0,0,False
2022-05-23,1.0299678517914492,1.0299678517914492,0.0,0,False
2022-05-24,1.0299678517914492,1.0299678517914492,0.0,0,False
2022-05-25,1.0299678517914492,1.0248263178563302,-0.4991936327115698,1,True
2022-05-26,1.0248263178563302,1.0248263178563302,0.0,0,False
2022-05-27,1.0248263178563302,1.0248263178563302,0.0,0,False
2022-05-28,1.0248263178563302,1.0248263178563302,0.0,0,False
2022-05-29,1.0248263178563302,1.0248263178563302,0.0,0,False
2022-05-30,1.0248263178563302,1.0248263178563302,0.0,0,False
2022-05-31,1.0248263178563302,1.0248263178563302,0.0,0,False
2022-06-01,1.0248263178563302,1.0248263178563302,0.0,0,False
2022-06-02,1.0248263178563302,1.0248263178563302,0.0,0,False
2022-06-03,1.0248263178563302,1.0248263178563302,0.0,0,False
2022-06-04,1.0248263178563302,1.0248263178563302,0.0,0,False
2022-06-05,1.0248263178563302,1.0248263178563302,0.0,0,False
2022-06-06,1.0248263178563302,1.0248263178563302,0.0,0,False
2022-06-07,1.0248263178563302,1.0248263178563302,0.0,0,False
2022-06-08,1.0248263178563302,1.0248263178563302,0.0,0,False
2022-06-09,1.0248263178563302,1.0248263178563302,0.0,0,False
2022-06-10,1.0248263178563302,1.0248263178563302,0.0,0,False
2022-06-11,1.0248263178563302,1.0248263178563302,0.0,0,False
2022-06-12,1.0248263178563302,1.0248263178563302,0.0,0,False
2022-06-13,1.0248263178563302,1.0248263178563302,0.0,0,False
2022-06-14,1.0248263178563302,1.0248263178563302,0.0,0,False
2022-06-15,1.0248263178563302,1.0248263178563302,0.0,0,False
2022-06-16,1.0248263178563302,1.0248263178563302,0.0,0,False
2022-06-17,1.0248263178563302,1.0248263178563302,0.0,0,False
2022-06-18,1.0248263178563302,1.0176490618657643,-0.7003387662388283,4,True
2022-06-19,1.0176490618657643,1.0174948675636355,-0.015152011425834111,0,True
2022-06-20,1.0174948675636355,1.0174948675636355,0.0,0,False
2022-06-21,1.0174948675636355,1.0174948675636355,0.0,0,False
2022-06-22,1.0174948675636355,1.0174948675636355,0.0,0,False
2022-06-23,1.0174948675636355,1.0174948675636355,0.0,0,False
2022-06-24,1.0174948675636355,1.0174948675636355,0.0,0,False
2022-06-25,1.0174948675636355,1.0174948675636355,0.0,0,False
2022-06-26,1.0174948675636355,1.0174948675636355,0.0,0,False
2022-06-27,1.0174948675636355,1.0174948675636355,0.0,0,False
2022-06-28,1.0174948675636355,1.0188184861895233,0.1300860248127922,1,True
2022-06-29,1.0188184861895233,1.0232205421619658,0.4320746072155268,0,True
2022-06-30,1.0232205421619658,1.0232205421619658,0.0,0,False
2022-07-01,1.0232205421619658,1.0232205421619658,0.0,0,False
2022-07-02,1.0232205421619658,1.0232205421619658,0.0,0,False
2022-07-03,1.0232205421619658,1.0232205421619658,0.0,0,False
2022-07-04,1.0232205421619658,1.0232205421619658,0.0,0,False
2022-07-05,1.0232205421619658,1.0232205421619658,0.0,0,False
2022-07-06,1.0232205421619658,1.0232205421619658,0.0,0,False
2022-07-07,1.0232205421619658,1.0232205421619658,0.0,0,False
2022-07-08,1.0232205421619658,1.0232205421619658,0.0,0,False
2022-07-09,1.0232205421619658,1.0232205421619658,0.0,0,False
2022-07-10,1.0232205421619658,1.0232205421619658,0.0,0,False
2022-07-11,1.0232205421619658,1.0232205421619658,0.0,0,False
2022-07-12,1.0232205421619658,1.0232205421619658,0.0,0,False
2022-07-13,1.0232205421619658,1.032472029444288,0.9041537870980054,4,True
2022-07-14,1.032472029444288,1.0508146062715473,1.7765688855641004,0,True
2022-07-15,1.0508146062715473,1.0508146062715473,0.0,0,False
2022-07-16,1.0508146062715473,1.0508146062715473,0.0,0,False
2022-07-17,1.0508146062715473,1.0508146062715473,0.0,0,False
2022-07-18,1.0508146062715473,1.0508146062715473,0.0,0,False
2022-07-19,1.0508146062715473,1.0508146062715473,0.0,0,False
2022-07-20,1.0508146062715473,1.0508146062715473,0.0,0,False
2022-07-21,1.0508146062715473,1.0487223363013967,-0.1991093345737105,3,True
2022-07-22,1.0487223363013967,1.0487223363013967,0.0,0,False
2022-07-23,1.0487223363013967,1.0487223363013967,0.0,0,False
2022-07-24,1.0487223363013967,1.0487223363013967,0.0,0,False
2022-07-25,1.0487223363013967,1.0496093555670145,0.08458094530017224,1,True
2022-07-26,1.0496093555670145,1.0496093555670145,0.0,0,False
2022-07-27,1.0496093555670145,1.0496093555670145,0.0,0,False
2022-07-28,1.0496093555670145,1.0496093555670145,0.0,0,False
2022-07-29,1.0496093555670145,1.0496093555670145,0.0,0,False
2022-07-30,1.0496093555670145,1.0496093555670145,0.0,0,False
2022-07-31,1.0496093555670145,1.0496093555670145,0.0,0,False
2022-08-01,1.0496093555670145,1.0496093555670145,0.0,0,False
2022-08-02,1.0496093555670145,1.0496093555670145,0.0,0,False
2022-08-03,1.0496093555670145,1.0496093555670145,0.0,0,False
2022-08-04,1.0496093555670145,1.0496093555670145,0.0,0,False
2022-08-05,1.0496093555670145,1.0496093555670145,0.0,0,False
2022-08-06,1.0496093555670145,1.0496093555670145,0.0,0,False
2022-08-07,1.0496093555670145,1.0496093555670145,0.0,0,False
2022-08-08,1.0496093555670145,1.0496093555670145,0.0,0,False
2022-08-09,1.0496093555670145,1.0512599436392382,0.15725737041778487,1,True
2022-08-10,1.0512599436392382,1.0512599436392382,0.0,0,False
2022-08-11,1.0512599436392382,1.0512599436392382,0.0,0,False
2022-08-12,1.0512599436392382,1.0515558489030867,0.028147677997147902,1,True
2022-08-13,1.0515558489030867,1.0515558489030867,0.0,0,False
2022-08-14,1.0515558489030867,1.0515558489030867,0.0,0,False
2022-08-15,1.0515558489030867,1.0515558489030867,0.0,0,False
2022-08-16,1.0515558489030867,1.0515558489030867,0.0,0,False
2022-08-17,1.0515558489030867,1.0515558489030867,0.0,0,False
2022-08-18,1.0515558489030867,1.0515558489030867,0.0,0,False
2022-08-19,1.0515558489030867,1.0282472068403983,-2.216586221930339,7,True
2022-08-20,1.0282472068403983,1.0282472068403983,0.0,0,False
2022-08-21,1.0282472068403983,1.0282472068403983,0.0,0,False
2022-08-22,1.0282472068403983,1.0282472068403983,0.0,0,False
2022-08-23,1.0282472068403983,1.0282472068403983,0.0,0,False
2022-08-24,1.0282472068403983,1.0282472068403983,0.0,0,False
2022-08-25,1.0282472068403983,1.0282472068403983,0.0,0,False
2022-08-26,1.0282472068403983,1.0282472068403983,0.0,0,False
2022-08-27,1.0282472068403983,1.0282472068403983,0.0,0,False
2022-08-28,1.0282472068403983,1.0282472068403983,0.0,0,False
2022-08-29,1.0282472068403983,1.0282472068403983,0.0,0,False
2022-08-30,1.0282472068403983,1.0282472068403983,0.0,0,False
2022-08-31,1.0282472068403983,1.0282472068403983,0.0,0,False
2022-09-01,1.0282472068403983,1.0282472068403983,0.0,0,False
2022-09-02,1.0282472068403983,1.0282472068403983,0.0,0,False
2022-09-03,1.0282472068403983,1.0282472068403983,0.0,0,False
2022-09-04,1.0282472068403983,1.0282472068403983,0.0,0,False
2022-09-05,1.0282472068403983,1.0282472068403983,0.0,0,False
2022-09-06,1.0282472068403983,1.0282472068403983,0.0,0,False
2022-09-07,1.0282472068403983,1.0149448478854732,-1.2936926904766999,4,True
2022-09-08,1.0149448478854732,1.0149448478854732,0.0,0,False
2022-09-09,1.0149448478854732,1.0149448478854732,0.0,0,False
2022-09-10,1.0149448478854732,1.0149448478854732,0.0,0,False
2022-09-11,1.0149448478854732,1.0149448478854732,0.0,0,False
2022-09-12,1.0149448478854732,1.0149448478854732,0.0,0,False
2022-09-13,1.0149448478854732,1.0087163467011806,-0.6136787823761147,4,True
2022-09-14,1.0087163467011806,1.0038128194673555,-0.48611557152427043,0,True
2022-09-15,1.0038128194673555,1.0077126169650403,0.3884984752191345,1,True
2022-09-16,1.0077126169650403,1.0077126169650403,0.0,0,False
2022-09-17,1.0077126169650403,1.0077126169650403,0.0,0,False
2022-09-18,1.0077126169650403,1.0077126169650403,0.0,0,False
2022-09-19,1.0077126169650403,1.0047897523149085,-0.290049424898009,5,True
2022-09-20,1.0047897523149085,1.0047897523149085,0.0,0,False
2022-09-21,1.0047897523149085,1.0047897523149085,0.0,0,False
2022-09-22,1.0047897523149085,1.0047897523149085,0.0,0,False
2022-09-23,1.0047897523149085,1.0047897523149085,0.0,0,False
2022-09-24,1.0047897523149085,1.0047897523149085,0.0,0,False
2022-09-25,1.0047897523149085,1.0047897523149085,0.0,0,False
2022-09-26,1.0047897523149085,1.0047897523149085,0.0,0,False
2022-09-27,1.0047897523149085,1.0047897523149085,0.0,0,False
2022-09-28,1.0047897523149085,1.0047897523149085,0.0,0,False
2022-09-29,1.0047897523149085,1.0047897523149085,0.0,0,False
2022-09-30,1.0047897523149085,1.0047897523149085,0.0,0,False
2022-10-01,1.0047897523149085,1.0047897523149085,0.0,0,False
2022-10-02,1.0047897523149085,1.0047897523149085,0.0,0,False
2022-10-03,1.0047897523149085,1.0047897523149085,0.0,0,False
2022-10-04,1.0047897523149085,1.0047897523149085,0.0,0,False
2022-10-05,1.0047897523149085,1.0047897523149085,0.0,0,False
2022-10-06,1.0047897523149085,1.0047897523149085,0.0,0,False
2022-10-07,1.0047897523149085,1.0047897523149085,0.0,0,False
2022-10-08,1.0047897523149085,1.0047897523149085,0.0,0,False
2022-10-09,1.0047897523149085,1.0047897523149085,0.0,0,False
2022-10-10,1.0047897523149085,1.0047897523149085,0.0,0,False
2022-10-11,1.0047897523149085,1.0243440373555113,1.9461071329153423,4,True
2022-10-12,1.0243440373555113,1.0243440373555113,0.0,0,False
2022-10-13,1.0243440373555113,1.0243440373555113,0.0,0,False
2022-10-14,1.0243440373555113,1.0243440373555113,0.0,0,False
2022-10-15,1.0243440373555113,1.0243440373555113,0.0,0,False
2022-10-16,1.0243440373555113,1.0243440373555113,0.0,0,False
2022-10-17,1.0243440373555113,1.0243440373555113,0.0,0,False
2022-10-18,1.0243440373555113,1.0243440373555113,0.0,0,False
2022-10-19,1.0243440373555113,1.0243440373555113,0.0,0,False
2022-10-20,1.0243440373555113,1.0276189685022683,0.3197100805322872,1,True
2022-10-21,1.0276189685022683,1.0276189685022683,0.0,0,False
2022-10-22,1.0276189685022683,1.0276189685022683,0.0,0,False
2022-10-23,1.0276189685022683,1.0276189685022683,0.0,0,False
2022-10-24,1.0276189685022683,1.0276189685022683,0.0,0,False
2022-10-25,1.0276189685022683,1.0276189685022683,0.0,0,False
2022-10-26,1.0276189685022683,1.0276189685022683,0.0,0,False
2022-10-27,1.0276189685022683,1.0276189685022683,0.0,0,False
2022-10-28,1.0276189685022683,1.0276189685022683,0.0,0,False
2022-10-29,1.0276189685022683,1.0276189685022683,0.0,0,False
2022-10-30,1.0276189685022683,1.0276189685022683,0.0,0,False
2022-10-31,1.0276189685022683,1.0276189685022683,0.0,0,False
2022-11-01,1.0276189685022683,1.0276189685022683,0.0,0,False
2022-11-02,1.0276189685022683,1.0312324671392517,0.3516379852592566,1,True
2022-11-03,1.0312324671392517,1.0312324671392517,0.0,0,False
2022-11-04,1.0312324671392517,1.0260845240571455,-0.49920296791926555,1,True
2022-11-05,1.0260845240571455,1.0260845240571455,0.0,0,False
2022-11-06,1.0260845240571455,1.0260845240571455,0.0,0,False
2022-11-07,1.0260845240571455,1.0260845240571455,0.0,0,False
2022-11-08,1.0260845240571455,1.0229479906497576,-0.3056798279137851,2,True
2022-11-09,1.0229479906497576,1.0254191436321858,0.2415717128354311,0,True
2022-11-10,1.0254191436321858,1.0254191436321858,0.0,0,False
2022-11-11,1.0254191436321858,1.0222691873888599,-0.30718718905210496,2,True
2022-11-12,1.0222691873888599,1.0240356158957167,0.17279484979575432,0,True
2022-11-13,1.0240356158957167,1.0189194621539202,-0.4996070119418161,1,True
2022-11-14,1.0189194621539202,1.0189194621539202,0.0,0,False
2022-11-15,1.0189194621539202,1.0189194621539202,0.0,0,False
2022-11-16,1.0189194621539202,1.0189194621539202,0.0,0,False
2022-11-17,1.0189194621539202,1.0189194621539202,0.0,0,False
2022-11-18,1.0189194621539202,1.0189194621539202,0.0,0,False
2022-11-19,1.0189194621539202,1.0191750705938294,0.02508622608590194,2,True
2022-11-20,1.0191750705938294,1.0139014957675034,-0.5174356181272488,0,True
2022-11-21,1.0139014957675034,1.0139014957675034,0.0,0,False
2022-11-22,1.0139014957675034,1.0139014957675034,0.0,0,False
2022-11-23,1.0139014957675034,1.0139014957675034,0.0,0,False
2022-11-24,1.0139014957675034,1.0139014957675034,0.0,0,False
2022-11-25,1.0139014957675034,1.0139014957675034,0.0,0,False
2022-11-26,1.0139014957675034,1.0139014957675034,0.0,0,False
2022-11-27,1.0139014957675034,1.0139014957675034,0.0,0,False
2022-11-28,1.0139014957675034,1.0112812485325322,-0.2584321303311432,2,True
2022-11-29,1.0112812485325322,1.0112812485325322,0.0,0,False
2022-11-30,1.0112812485325322,1.0112812485325322,0.0,0,False
2022-12-01,1.0112812485325322,1.0112312668898278,-0.004942407740371468,1,True
2022-12-02,1.0112312668898278,1.0112312668898278,0.0,0,False
2022-12-03,1.0112312668898278,1.0112312668898278,0.0,0,False
2022-12-04,1.0112312668898278,1.0112312668898278,0.0,0,False
2022-12-05,1.0112312668898278,1.0112312668898278,0.0,0,False
2022-12-06,1.0112312668898278,1.0112312668898278,0.0,0,False
2022-12-07,1.0112312668898278,1.0112312668898278,0.0,0,False
2022-12-08,1.0112312668898278,1.0061823536148304,-0.4992837385780158,1,True
2022-12-09,1.0061823536148304,1.0061823536148304,0.0,0,False
2022-12-10,1.0061823536148304,1.0061823536148304,0.0,0,False
2022-12-11,1.0061823536148304,1.0061823536148304,0.0,0,False
2022-12-12,1.0061823536148304,1.0061823536148304,0.0,0,False
2022-12-13,1.0061823536148304,1.0061823536148304,0.0,0,False
2022-12-14,1.0061823536148304,1.0061823536148304,0.0,0,False
2022-12-15,1.0061823536148304,1.0061823536148304,0.0,0,False
2022-12-16,1.0061823536148304,1.0061823536148304,0.0,0,False
2022-12-17,1.0061823536148304,1.0090714532650835,0.28713479618021065,4,True
2022-12-18,1.0090714532650835,1.0090714532650835,0.0,0,False
2022-12-19,1.0090714532650835,1.0090714532650835,0.0,0,False
2022-12-20,1.0090714532650835,1.0090714532650835,0.0,0,False
2022-12-21,1.0090714532650835,1.0090714532650835,0.0,0,False
2022-12-22,1.0090714532650835,1.0090714532650835,0.0,0,False
2022-12-23,1.0090714532650835,1.0090714532650835,0.0,0,False
2022-12-24,1.0090714532650835,1.0090714532650835,0.0,0,False
2022-12-25,1.0090714532650835,1.0090714532650835,0.0,0,False
2022-12-26,1.0090714532650835,1.0090714532650835,0.0,0,False
2022-12-27,1.0090714532650835,1.0090714532650835,0.0,0,False
2022-12-28,1.0090714532650835,1.0111543721296283,0.2064193628513733,1,True
2022-12-29,1.0111543721296283,1.0103730450203234,-0.07727080363202354,0,True
2022-12-30,1.0103730450203234,1.0103730450203234,0.0,0,False
2022-12-31,1.0103730450203234,1.0103730450203234,0.0,0,False
2023-01-01,1.0103730450203234,1.0103730450203234,0.0,0,False
2023-01-02,1.0103730450203234,1.0103730450203234,0.0,0,False
2023-01-03,1.0103730450203234,1.0103730450203234,0.0,0,False
2023-01-04,1.0103730450203234,1.0103730450203234,0.0,0,False
2023-01-05,1.0103730450203234,1.0103730450203234,0.0,0,False
2023-01-06,1.0103730450203234,1.0103730450203234,0.0,0,False
2023-01-07,1.0103730450203234,1.0103730450203234,0.0,0,False
2023-01-08,1.0103730450203234,1.0103730450203234,0.0,0,False
2023-01-09,1.0103730450203234,1.0103730450203234,0.0,0,False
2023-01-10,1.0103730450203234,1.008820157196548,-0.15369450238492677,2,True
2023-01-11,1.008820157196548,1.0093567111552646,0.05318628448183205,0,True
2023-01-12,1.0093567111552646,1.0093567111552646,0.0,0,False
2023-01-13,1.0093567111552646,1.0093567111552646,0.0,0,False
2023-01-14,1.0093567111552646,1.0093567111552646,0.0,0,False
2023-01-15,1.0093567111552646,1.0093567111552646,0.0,0,False
2023-01-16,1.0093567111552646,1.0093567111552646,0.0,0,False
2023-01-17,1.0093567111552646,1.0093567111552646,0.0,0,False
2023-01-18,1.0093567111552646,1.0093567111552646,0.0,0,False
2023-01-19,1.0093567111552646,1.0093567111552646,0.0,0,False
2023-01-20,1.0093567111552646,1.0093567111552646,0.0,0,False
2023-01-21,1.0093567111552646,1.0093567111552646,0.0,0,False
2023-01-22,1.0093567111552646,1.0093567111552646,0.0,0,False
2023-01-23,1.0093567111552646,1.0093567111552646,0.0,0,False
2023-01-24,1.0093567111552646,1.0093567111552646,0.0,0,False
2023-01-25,1.0093567111552646,1.0183643558568174,0.8924144063245043,4,True
2023-01-26,1.0183643558568174,1.0183643558568174,0.0,0,False
2023-01-27,1.0183643558568174,1.0183643558568174,0.0,0,False
2023-01-28,1.0183643558568174,1.0183643558568174,0.0,0,False
2023-01-29,1.0183643558568174,1.0183643558568174,0.0,0,False
2023-01-30,1.0183643558568174,1.0194522610683003,0.10682868123046418,1,True
2023-01-31,1.0194522610683003,1.0169139968951775,-0.24898313241886738,1,True
2023-02-01,1.0169139968951775,1.0169139968951775,0.0,0,False
2023-02-02,1.0169139968951775,1.0169139968951775,0.0,0,False
2023-02-03,1.0169139968951775,1.0169139968951775,0.0,0,False
2023-02-04,1.0169139968951775,1.0169139968951775,0.0,0,False
2023-02-05,1.0169139968951775,1.019312457022279,0.23585673266612872,4,True
2023-02-06,1.019312457022279,1.030542943132259,1.1017707114840736,0,True
2023-02-07,1.030542943132259,1.030542943132259,0.0,0,False
2023-02-08,1.030542943132259,1.030542943132259,0.0,0,False
2023-02-09,1.030542943132259,1.030542943132259,0.0,0,False
2023-02-10,1.030542943132259,1.030542943132259,0.0,0,False
2023-02-11,1.030542943132259,1.030542943132259,0.0,0,False
2023-02-12,1.030542943132259,1.030542943132259,0.0,0,False
2023-02-13,1.030542943132259,1.030542943132259,0.0,0,False
2023-02-14,1.030542943132259,1.030542943132259,0.0,0,False
2023-02-15,1.030542943132259,1.030542943132259,0.0,0,False
2023-02-16,1.030542943132259,1.030542943132259,0.0,0,False
2023-02-17,1.030542943132259,1.030542943132259,0.0,0,False
2023-02-18,1.030542943132259,1.030542943132259,0.0,0,False
2023-02-19,1.030542943132259,1.030542943132259,0.0,0,False
2023-02-20,1.030542943132259,1.030542943132259,0.0,0,False
2023-02-21,1.030542943132259,1.030542943132259,0.0,0,False
2023-02-22,1.030542943132259,1.030542943132259,0.0,0,False
2023-02-23,1.030542943132259,1.0402720122594304,0.9440721701126531,1,True
2023-02-24,1.0402720122594304,1.0402720122594304,0.0,0,False
2023-02-25,1.0402720122594304,1.0402720122594304,0.0,0,False
2023-02-26,1.0402720122594304,1.0402720122594304,0.0,0,False
2023-02-27,1.0402720122594304,1.0402720122594304,0.0,0,False
2023-02-28,1.0402720122594304,1.0402720122594304,0.0,0,False
2023-03-01,1.0402720122594304,1.0402720122594304,0.0,0,False
2023-03-02,1.0402720122594304,1.0402720122594304,0.0,0,False
2023-03-03,1.0402720122594304,1.0410960005421455,0.07920892545454361,1,True
2023-03-04,1.0410960005421455,1.0410960005421455,0.0,0,False
2023-03-05,1.0410960005421455,1.0410960005421455,0.0,0,False
2023-03-06,1.0410960005421455,1.0410960005421455,0.0,0,False
2023-03-07,1.0410960005421455,1.0410960005421455,0.0,0,False
2023-03-08,1.0410960005421455,1.0410960005421455,0.0,0,False
2023-03-09,1.0410960005421455,1.0410960005421455,0.0,0,False
2023-03-10,1.0410960005421455,1.0410960005421455,0.0,0,False
2023-03-11,1.0410960005421455,1.0410960005421455,0.0,0,False
2023-03-12,1.0410960005421455,1.0410960005421455,0.0,0,False
2023-03-13,1.0410960005421455,1.0410960005421455,0.0,0,False
2023-03-14,1.0410960005421455,1.0410960005421455,0.0,0,False
2023-03-15,1.0410960005421455,1.0410960005421455,0.0,0,False
2023-03-16,1.0410960005421455,1.0410960005421455,0.0,0,False
2023-03-17,1.0410960005421455,1.0410960005421455,0.0,0,False
2023-03-18,1.0410960005421455,1.0410960005421455,0.0,0,False
2023-03-19,1.0410960005421455,1.0410960005421455,0.0,0,False
2023-03-20,1.0410960005421455,1.0410960005421455,0.0,0,False
2023-03-21,1.0410960005421455,1.0410960005421455,0.0,0,False
2023-03-22,1.0410960005421455,1.0410960005421455,0.0,0,False
2023-03-23,1.0410960005421455,1.0488928787672664,0.7489105924007866,3,True
2023-03-24,1.0488928787672664,1.049868653703836,0.09302903626500214,0,True
2023-03-25,1.049868653703836,1.0456039489930877,-0.4062131673045699,1,True
2023-03-26,1.0456039489930877,1.0458938915521772,0.02772967330209042,0,True
2023-03-27,1.0458938915521772,1.0458938915521772,0.0,0,False
2023-03-28,1.0458938915521772,1.0458938915521772,0.0,0,False
2023-03-29,1.0458938915521772,1.0458938915521772,0.0,0,False
2023-03-30,1.0458938915521772,1.0458938915521772,0.0,0,False
2023-03-31,1.0458938915521772,1.0458938915521772,0.0,0,False
2023-04-01,1.0458938915521772,1.0458938915521772,0.0,0,False
2023-04-02,1.0458938915521772,1.0458938915521772,0.0,0,False
2023-04-03,1.0458938915521772,1.0458938915521772,0.0,0,False
2023-04-04,1.0458938915521772,1.0458938915521772,0.0,0,False
2023-04-05,1.0458938915521772,1.0458938915521772,0.0,0,False
2023-04-06,1.0458938915521772,1.0458938915521772,0.0,0,False
2023-04-07,1.0458938915521772,1.0428857480815399,-0.2876145940744479,1,True
2023-04-08,1.0428857480815399,1.0428857480815399,0.0,0,False
2023-04-09,1.0428857480815399,1.0428857480815399,0.0,0,False
2023-04-10,1.0428857480815399,1.0428857480815399,0.0,0,False
2023-04-11,1.0428857480815399,1.0428857480815399,0.0,0,False
2023-04-12,1.0428857480815399,1.0428857480815399,0.0,0,False
2023-04-13,1.0428857480815399,1.0428857480815399,0.0,0,False
2023-04-14,1.0428857480815399,1.0428857480815399,0.0,0,False
2023-04-15,1.0428857480815399,1.0428857480815399,0.0,0,False
2023-04-16,1.0428857480815399,1.0428857480815399,0.0,0,False
2023-04-17,1.0428857480815399,1.0428857480815399,0.0,0,False
2023-04-18,1.0428857480815399,1.0428857480815399,0.0,0,False
2023-04-19,1.0428857480815399,1.0368970162118494,-0.5742462087248934,2,True
2023-04-20,1.0368970162118494,1.0355023422257914,-0.13450458090362716,0,True
2023-04-21,1.0355023422257914,1.0355023422257914,0.0,0,False
2023-04-22,1.0355023422257914,1.0355023422257914,0.0,0,False
2023-04-23,1.0355023422257914,1.0355023422257914,0.0,0,False
2023-04-24,1.0355023422257914,1.0355023422257914,0.0,0,False
2023-04-25,1.0355023422257914,1.0355023422257914,0.0,0,False
2023-04-26,1.0355023422257914,1.0355023422257914,0.0,0,False
2023-04-27,1.0355023422257914,1.0355023422257914,0.0,0,False
2023-04-28,1.0355023422257914,1.0355023422257914,0.0,0,False
2023-04-29,1.0355023422257914,1.0355023422257914,0.0,0,False
2023-04-30,1.0355023422257914,1.0355023422257914,0.0,0,False
2023-05-01,1.0355023422257914,1.0355023422257914,0.0,0,False
2023-05-02,1.0355023422257914,1.0355023422257914,0.0,0,False
2023-05-03,1.0355023422257914,1.0355023422257914,0.0,0,False
2023-05-04,1.0355023422257914,1.0355023422257914,0.0,0,False
2023-05-05,1.0355023422257914,1.0355023422257914,0.0,0,False
2023-05-06,1.0355023422257914,1.0355023422257914,0.0,0,False
2023-05-07,1.0355023422257914,1.0355023422257914,0.0,0,False
2023-05-08,1.0355023422257914,1.0448302619737464,0.9008110718421669,4,True
2023-05-09,1.0448302619737464,1.0396144513134433,-0.49920172205293323,1,True
2023-05-10,1.0396144513134433,1.0396144513134433,0.0,0,False
2023-05-11,1.0396144513134433,1.0396144513134433,0.0,0,False
2023-05-12,1.0396144513134433,1.0396144513134433,0.0,0,False
2023-05-13,1.0396144513134433,1.0396144513134433,0.0,0,False
2023-05-14,1.0396144513134433,1.0396144513134433,0.0,0,False
2023-05-15,1.0396144513134433,1.0396144513134433,0.0,0,False
2023-05-16,1.0396144513134433,1.0396144513134433,0.0,0,False
2023-05-17,1.0396144513134433,1.0396144513134433,0.0,0,False
2023-05-18,1.0396144513134433,1.0396144513134433,0.0,0,False
2023-05-19,1.0396144513134433,1.0396144513134433,0.0,0,False
2023-05-20,1.0396144513134433,1.0396144513134433,0.0,0,False
2023-05-21,1.0396144513134433,1.0396144513134433,0.0,0,False
2023-05-22,1.0396144513134433,1.0396144513134433,0.0,0,False
2023-05-23,1.0396144513134433,1.0396144513134433,0.0,0,False
2023-05-24,1.0396144513134433,1.0396144513134433,0.0,0,False
2023-05-25,1.0396144513134433,1.0396144513134433,0.0,0,False
2023-05-26,1.0396144513134433,1.041178788183683,0.15047279001010327,1,True
2023-05-27,1.041178788183683,1.0438952614032568,0.2609036267741116,0,True
2023-05-28,1.0438952614032568,1.0438952614032568,0.0,0,False
2023-05-29,1.0438952614032568,1.0438952614032568,0.0,0,False
2023-05-30,1.0438952614032568,1.0438952614032568,0.0,0,False
2023-05-31,1.0438952614032568,1.0438952614032568,0.0,0,False
2023-06-01,1.0438952614032568,1.0438952614032568,0.0,0,False
2023-06-02,1.0438952614032568,1.0438952614032568,0.0,0,False
2023-06-03,1.0438952614032568,1.0438952614032568,0.0,0,False
2023-06-04,1.0438952614032568,1.0438952614032568,0.0,0,False
2023-06-05,1.0438952614032568,1.0438952614032568,0.0,0,False
2023-06-06,1.0438952614032568,1.0358267085680932,-0.7729274318495793,4,True
2023-06-07,1.0358267085680932,1.0358267085680932,0.0,0,False
2023-06-08,1.0358267085680932,1.0358267085680932,0.0,0,False
2023-06-09,1.0358267085680932,1.0358267085680932,0.0,0,False
2023-06-10,1.0358267085680932,1.0447946490703726,0.8657761407481424,5,True
2023-06-11,1.0447946490703726,1.0438652529760124,-0.08895490565414832,0,True
2023-06-12,1.0438652529760124,1.0438652529760124,0.0,0,False
2023-06-13,1.0438652529760124,1.0438652529760124,0.0,0,False
2023-06-14,1.0438652529760124,1.0438652529760124,0.0,0,False
2023-06-15,1.0438652529760124,1.0438652529760124,0.0,0,False
2023-06-16,1.0438652529760124,1.0438652529760124,0.0,0,False
2023-06-17,1.0438652529760124,1.0438652529760124,0.0,0,False
2023-06-18,1.0438652529760124,1.0438652529760124,0.0,0,False
2023-06-19,1.0438652529760124,1.0438652529760124,0.0,0,False
2023-06-20,1.0438652529760124,1.0438652529760124,0.0,0,False
2023-06-21,1.0438652529760124,1.0438652529760124,0.0,0,False
2023-06-22,1.0438652529760124,1.0438652529760124,0.0,0,False
2023-06-23,1.0438652529760124,1.0438652529760124,0.0,0,False
2023-06-24,1.0438652529760124,1.0438652529760124,0.0,0,False
2023-06-25,1.0438652529760124,1.0438652529760124,0.0,0,False
2023-06-26,1.0438652529760124,1.0438652529760124,0.0,0,False
2023-06-27,1.0438652529760124,1.0438652529760124,0.0,0,False
2023-06-28,1.0438652529760124,1.0438652529760124,0.0,0,False
2023-06-29,1.0438652529760124,1.0438652529760124,0.0,0,False
2023-06-30,1.0438652529760124,1.031972147264817,-1.1393334223252283,3,True
2023-07-01,1.031972147264817,1.035686945162925,0.35997075191940286,0,True
2023-07-02,1.035686945162925,1.035686945162925,0.0,0,False
2023-07-03,1.035686945162925,1.035686945162925,0.0,0,False
2023-07-04,1.035686945162925,1.035686945162925,0.0,0,False
2023-07-05,1.035686945162925,1.035686945162925,0.0,0,False
2023-07-06,1.035686945162925,1.035686945162925,0.0,0,False
2023-07-07,1.035686945162925,1.035686945162925,0.0,0,False
2023-07-08,1.035686945162925,1.035686945162925,0.0,0,False
2023-07-09,1.035686945162925,1.035686945162925,0.0,0,False
2023-07-10,1.035686945162925,1.035686945162925,0.0,0,False
2023-07-11,1.035686945162925,1.035686945162925,0.0,0,False
2023-07-12,1.035686945162925,1.035686945162925,0.0,0,False
2023-07-13,1.035686945162925,1.035686945162925,0.0,0,False
2023-07-14,1.035686945162925,1.035686945162925,0.0,0,False
2023-07-15,1.035686945162925,1.035686945162925,0.0,0,False
2023-07-16,1.035686945162925,1.035686945162925,0.0,0,False
2023-07-17,1.035686945162925,1.035686945162925,0.0,0,False
2023-07-18,1.035686945162925,1.035686945162925,0.0,0,False
2023-07-19,1.035686945162925,1.035686945162925,0.0,0,False
2023-07-20,1.035686945162925,1.035686945162925,0.0,0,False
2023-07-21,1.035686945162925,1.035686945162925,0.0,0,False
2023-07-22,1.035686945162925,1.035686945162925,0.0,0,False
2023-07-23,1.035686945162925,1.035686945162925,0.0,0,False
2023-07-24,1.035686945162925,1.035659015990739,-0.0026966809146600212,1,True
2023-07-25,1.035659015990739,1.0359331045138243,0.026465131752173576,0,True
2023-07-26,1.0359331045138243,1.0359331045138243,0.0,0,False
2023-07-27,1.0359331045138243,1.0359331045138243,0.0,0,False
2023-07-28,1.0359331045138243,1.0359331045138243,0.0,0,False
2023-07-29,1.0359331045138243,1.0359331045138243,0.0,0,False
2023-07-30,1.0359331045138243,1.0359331045138243,0.0,0,False
2023-07-31,1.0359331045138243,1.0359331045138243,0.0,0,False
2023-08-01,1.0359331045138243,1.0359331045138243,0.0,0,False
2023-08-02,1.0359331045138243,1.0359331045138243,0.0,0,False
2023-08-03,1.0359331045138243,1.0359331045138243,0.0,0,False
2023-08-04,1.0359331045138243,1.0359331045138243,0.0,0,False
2023-08-05,1.0359331045138243,1.0359331045138243,0.0,0,False
2023-08-06,1.0359331045138243,1.0359331045138243,0.0,0,False
2023-08-07,1.0359331045138243,1.0359331045138243,0.0,0,False
2023-08-08,1.0359331045138243,1.0359331045138243,0.0,0,False
2023-08-09,1.0359331045138243,1.0359331045138243,0.0,0,False
2023-08-10,1.0359331045138243,1.0359331045138243,0.0,0,False
2023-08-11,1.0359331045138243,1.0359331045138243,0.0,0,False
2023-08-12,1.0359331045138243,1.0359331045138243,0.0,0,False
2023-08-13,1.0359331045138243,1.0359331045138243,0.0,0,False
2023-08-14,1.0359331045138243,1.0359331045138243,0.0,0,False
2023-08-15,1.0359331045138243,1.0359331045138243,0.0,0,False
2023-08-16,1.0359331045138243,1.0393252703046825,0.32745027416130057,4,True
2023-08-17,1.0393252703046825,1.0393252703046825,0.0,0,False
2023-08-18,1.0393252703046825,1.0720068188670935,3.1444966745425296,4,True
2023-08-19,1.0720068188670935,1.0720068188670935,0.0,0,False
2023-08-20,1.0720068188670935,1.0720068188670935,0.0,0,False
2023-08-21,1.0720068188670935,1.0720068188670935,0.0,0,False
2023-08-22,1.0720068188670935,1.0720068188670935,0.0,0,False
2023-08-23,1.0720068188670935,1.0720068188670935,0.0,0,False
2023-08-24,1.0720068188670935,1.0720068188670935,0.0,0,False
2023-08-25,1.0720068188670935,1.0572948574739398,-1.3723757287944727,3,True
2023-08-26,1.0572948574739398,1.0572948574739398,0.0,0,False
2023-08-27,1.0572948574739398,1.0572948574739398,0.0,0,False
2023-08-28,1.0572948574739398,1.0572948574739398,0.0,0,False
2023-08-29,1.0572948574739398,1.0572948574739398,0.0,0,False
2023-08-30,1.0572948574739398,1.0572948574739398,0.0,0,False
2023-08-31,1.0572948574739398,1.0572948574739398,0.0,0,False
2023-09-01,1.0572948574739398,1.0572948574739398,0.0,0,False
2023-09-02,1.0572948574739398,1.0572948574739398,0.0,0,False
2023-09-03,1.0572948574739398,1.0572948574739398,0.0,0,False
2023-09-04,1.0572948574739398,1.0572948574739398,0.0,0,False
2023-09-05,1.0572948574739398,1.0572948574739398,0.0,0,False
2023-09-06,1.0572948574739398,1.0572948574739398,0.0,0,False
2023-09-07,1.0572948574739398,1.0572948574739398,0.0,0,False
2023-09-08,1.0572948574739398,1.0572948574739398,0.0,0,False
2023-09-09,1.0572948574739398,1.0572948574739398,0.0,0,False
2023-09-10,1.0572948574739398,1.0565482814010878,-0.07061190807602369,1,True
2023-09-11,1.0565482814010878,1.0561024833081467,-0.04219382121846138,0,True
2023-09-12,1.0561024833081467,1.0561024833081467,0.0,0,False
2023-09-13,1.0561024833081467,1.0561024833081467,0.0,0,False
2023-09-14,1.0561024833081467,1.0561024833081467,0.0,0,False
2023-09-15,1.0561024833081467,1.0561024833081467,0.0,0,False
2023-09-16,1.0561024833081467,1.0561024833081467,0.0,0,False
2023-09-17,1.0561024833081467,1.0561024833081467,0.0,0,False
2023-09-18,1.0561024833081467,1.0561024833081467,0.0,0,False
2023-09-19,1.0561024833081467,1.0561024833081467,0.0,0,False
2023-09-20,1.0561024833081467,1.0561024833081467,0.0,0,False
2023-09-21,1.0561024833081467,1.0561024833081467,0.0,0,False
2023-09-22,1.0561024833081467,1.0561024833081467,0.0,0,False
2023-09-23,1.0561024833081467,1.0561024833081467,0.0,0,False
2023-09-24,1.0561024833081467,1.0561024833081467,0.0,0,False
2023-09-25,1.0561024833081467,1.0561024833081467,0.0,0,False
2023-09-26,1.0561024833081467,1.0561024833081467,0.0,0,False
2023-09-27,1.0561024833081467,1.0561024833081467,0.0,0,False
2023-09-28,1.0561024833081467,1.0561024833081467,0.0,0,False
2023-09-29,1.0561024833081467,1.0561024833081467,0.0,0,False
2023-09-30,1.0561024833081467,1.0561024833081467,0.0,0,False
2023-10-01,1.0561024833081467,1.0561024833081467,0.0,0,False
2023-10-02,1.0561024833081467,1.0561024833081467,0.0,0,False
2023-10-03,1.0561024833081467,1.0564119679571702,0.029304414478237284,1,True
2023-10-04,1.0564119679571702,1.0508221297102076,-0.529134316584079,0,True
2023-10-05,1.0508221297102076,1.0508221297102076,0.0,0,False
2023-10-06,1.0508221297102076,1.0508221297102076,0.0,0,False
2023-10-07,1.0508221297102076,1.0508221297102076,0.0,0,False
2023-10-08,1.0508221297102076,1.0508221297102076,0.0,0,False
2023-10-09,1.0508221297102076,1.0508221297102076,0.0,0,False
2023-10-10,1.0508221297102076,1.0508221297102076,0.0,0,False
2023-10-11,1.0508221297102076,1.0508221297102076,0.0,0,False
2023-10-12,1.0508221297102076,1.0508221297102076,0.0,0,False
2023-10-13,1.0508221297102076,1.0508221297102076,0.0,0,False
2023-10-14,1.0508221297102076,1.0508221297102076,0.0,0,False
2023-10-15,1.0508221297102076,1.0508221297102076,0.0,0,False
2023-10-16,1.0508221297102076,1.0508221297102076,0.0,0,False
2023-10-17,1.0508221297102076,1.0508221297102076,0.0,0,False
2023-10-18,1.0508221297102076,1.0508221297102076,0.0,0,False
2023-10-19,1.0508221297102076,1.0455759322343805,-0.49924695412285613,1,True
2023-10-20,1.0455759322343805,1.0455759322343805,0.0,0,False
2023-10-21,1.0455759322343805,1.0463637255759743,0.07534539743185853,1,True
2023-10-22,1.0463637255759743,1.0463637255759743,0.0,0,False
2023-10-23,1.0463637255759743,1.0463637255759743,0.0,0,False
2023-10-24,1.0463637255759743,1.0463637255759743,0.0,0,False
2023-10-25,1.0463637255759743,1.0463637255759743,0.0,0,False
2023-10-26,1.0463637255759743,1.0463637255759743,0.0,0,False
2023-10-27,1.0463637255759743,1.0471382219203018,0.0740178893243959,1,True
2023-10-28,1.0471382219203018,1.0481711746481566,0.09864530834911012,0,True
2023-10-29,1.0481711746481566,1.0481711746481566,0.0,0,False
2023-10-30,1.0481711746481566,1.0481711746481566,0.0,0,False
2023-10-31,1.0481711746481566,1.0481711746481566,0.0,0,False
2023-11-01,1.0481711746481566,1.0481711746481566,0.0,0,False
2023-11-02,1.0481711746481566,1.0481711746481566,0.0,0,False
2023-11-03,1.0481711746481566,1.0481711746481566,0.0,0,False
2023-11-04,1.0481711746481566,1.0481711746481566,0.0,0,False
2023-11-05,1.0481711746481566,1.0481711746481566,0.0,0,False
2023-11-06,1.0481711746481566,1.0481711746481566,0.0,0,False
2023-11-07,1.0481711746481566,1.0481711746481566,0.0,0,False
2023-11-08,1.0481711746481566,1.0481711746481566,0.0,0,False
2023-11-09,1.0481711746481566,1.0481711746481566,0.0,0,False
2023-11-10,1.0481711746481566,1.0626141917312777,1.3779254221496062,4,True
2023-11-11,1.0626141917312777,1.0626141917312777,0.0,0,False
2023-11-12,1.0626141917312777,1.0626141917312777,0.0,0,False
2023-11-13,1.0626141917312777,1.0626141917312777,0.0,0,False
2023-11-14,1.0626141917312777,1.0626141917312777,0.0,0,False
2023-11-15,1.0626141917312777,1.0626141917312777,0.0,0,False
2023-11-16,1.0626141917312777,1.0626141917312777,0.0,0,False
2023-11-17,1.0626141917312777,1.0626141917312777,0.0,0,False
2023-11-18,1.0626141917312777,1.0626141917312777,0.0,0,False
2023-11-19,1.0626141917312777,1.0626141917312777,0.0,0,False
2023-11-20,1.0626141917312777,1.0626141917312777,0.0,0,False
2023-11-21,1.0626141917312777,1.0626141917312777,0.0,0,False
2023-11-22,1.0626141917312777,1.0626141917312777,0.0,0,False
2023-11-23,1.0626141917312777,1.0626141917312777,0.0,0,False
2023-11-24,1.0626141917312777,1.0626141917312777,0.0,0,False
2023-11-25,1.0626141917312777,1.0626141917312777,0.0,0,False
2023-11-26,1.0626141917312777,1.0626141917312777,0.0,0,False
2023-11-27,1.0626141917312777,1.0626141917312777,0.0,0,False
2023-11-28,1.0626141917312777,1.0626141917312777,0.0,0,False
2023-11-29,1.0626141917312777,1.0626141917312777,0.0,0,False
2023-11-30,1.0626141917312777,1.0626141917312777,0.0,0,False
2023-12-01,1.0626141917312777,1.0626141917312777,0.0,0,False
2023-12-02,1.0626141917312777,1.0626141917312777,0.0,0,False
2023-12-03,1.0626141917312777,1.0632719849790482,0.061903299700794,1,True
2023-12-04,1.0632719849790482,1.0709122180051835,0.7185586692840307,4,True
2023-12-05,1.0709122180051835,1.0754191798076271,0.4208525896584492,0,True
2023-12-06,1.0754191798076271,1.0754191798076271,0.0,0,False
2023-12-07,1.0754191798076271,1.0754191798076271,0.0,0,False
2023-12-08,1.0754191798076271,1.0754191798076271,0.0,0,False
2023-12-09,1.0754191798076271,1.0754191798076271,0.0,0,False
2023-12-10,1.0754191798076271,1.0754191798076271,0.0,0,False
2023-12-11,1.0754191798076271,1.0867070759566269,1.0496275648551157,4,True
2023-12-12,1.0867070759566269,1.0867070759566269,0.0,0,False
2023-12-13,1.0867070759566269,1.0867070759566269,0.0,0,False
2023-12-14,1.0867070759566269,1.0867070759566269,0.0,0,False
2023-12-15,1.0867070759566269,1.0867070759566269,0.0,0,False
2023-12-16,1.0867070759566269,1.0867070759566269,0.0,0,False
2023-12-17,1.0867070759566269,1.0867070759566269,0.0,0,False
2023-12-18,1.0867070759566269,1.0867070759566269,0.0,0,False
2023-12-19,1.0867070759566269,1.0867070759566269,0.0,0,False
2023-12-20,1.0867070759566269,1.0867070759566269,0.0,0,False
2023-12-21,1.0867070759566269,1.0867070759566269,0.0,0,False
2023-12-22,1.0867070759566269,1.0867070759566269,0.0,0,False
2023-12-23,1.0867070759566269,1.0867070759566269,0.0,0,False
2023-12-24,1.0867070759566269,1.085534222055588,-0.1079273271508363,1,True
2023-12-25,1.085534222055588,1.0881299287000075,0.2391179008160771,0,True
2023-12-26,1.0881299287000075,1.0881299287000075,0.0,0,False
2023-12-27,1.0881299287000075,1.082695811108242,-0.4993996992856853,1,True
2023-12-28,1.082695811108242,1.082695811108242,0.0,0,False
2023-12-29,1.082695811108242,1.082695811108242,0.0,0,False
2023-12-30,1.082695811108242,1.082695811108242,0.0,0,False
2023-12-31,1.082695811108242,1.082695811108242,0.0,0,False
