day,start_equity,end_equity,return_pct,entries,active
2024-01-02,1.0,0.9989153035442373,-0.10846964557627015,1,True
2024-01-03,0.9989153035442373,0.989548024167323,-0.9377451064848441,8,True
2024-01-04,0.989548024167323,1.008444659824608,1.9096228981090535,4,True
2024-01-05,1.008444659824608,0.9878693604095365,-2.040300299537501,4,True
2024-01-06,0.9878693604095365,0.9773211484011928,-1.0677739821762344,7,True
2024-01-07,0.9773211484011928,0.9755713165724782,-0.1790436881036639,3,True
2024-01-08,0.9755713165724782,0.9554102711516441,-2.066588580286155,4,True
2024-01-09,0.9554102711516441,0.9554102711516441,0.0,0,False
2024-01-10,0.9554102711516441,0.9480030877249312,-0.7752882348422196,4,True
2024-01-11,0.9480030877249312,0.9589969649095176,1.1596879089254886,3,True
2024-01-12,0.9589969649095176,0.9385919922593411,-2.127741108346648,3,True
2024-01-13,0.9385919922593411,0.9340573656754315,-0.4831307555686726,6,True
2024-01-14,0.9340573656754315,0.9389473611341725,0.5235219632581112,0,True
2024-01-15,0.9389473611341725,0.9336283373297736,-0.5664879656271715,2,True
2024-01-16,0.9336283373297736,0.9345852544256423,0.10249443569865235,1,True
2024-01-17,0.9345852544256423,0.9396629110174126,0.5433058747423614,0,True
2024-01-18,0.9396629110174126,0.9388133323119346,-0.09041313597852874,1,True
2024-01-19,0.9388133323119346,0.9303013033277875,-0.9066796019167378,1,True
2024-01-20,0.9303013033277875,0.9460390326738831,1.6916808876651146,6,True
2024-01-21,0.9460390326738831,0.9472953106432017,0.1327934605158898,1,True
2024-01-22,0.9472953106432017,0.9278735820897592,-2.050229567826678,4,True
2024-01-23,0.9278735820897592,0.9087010311241838,-2.0662891298613095,7,True
2024-01-24,0.9087010311241838,0.9083493148578934,-0.038705388708015764,1,True
2024-01-25,0.9083493148578934,0.9037101398128585,-0.5107258814590065,2,True
2024-01-26,0.9037101398128585,0.9037101398128585,0.0,0,False
2024-01-27,0.9037101398128585,0.9037101398128585,0.0,0,False
2024-01-28,0.9037101398128585,0.9021740230745444,-0.16997892030206074,2,True
2024-01-29,0.9021740230745444,0.902140593479623,-0.0037054486236920425,0,True
2024-01-30,0.902140593479623,0.902140593479623,0.0,0,False
2024-01-31,0.902140593479623,0.8998904035661369,-0.2494278530142391,1,True
2024-02-01,0.8998904035661369,0.8998904035661369,0.0,0,False
2024-02-02,0.8998904035661369,0.8996115093587541,-0.030992019281195216,2,True
2024-02-03,0.8996115093587541,0.9041969889029531,0.5097177499949312,1,True
2024-02-04,0.9041969889029531,0.9038835656704134,-0.03466315818193566,1,True
2024-02-05,0.9038835656704134,0.9038835656704134,0.0,0,False
2024-02-06,0.9038835656704134,0.9008137139135418,-0.33962911523838235,2,True
2024-02-07,0.9008137139135418,0.8983607680119352,-0.27230334793082456,4,True
2024-02-08,0.8983607680119352,0.9095783347491584,1.2486705938915321,1,True
2024-02-09,0.9095783347491584,0.9157046375909202,0.6735321860377619,0,True
2024-02-10,0.9157046375909202,0.9129506819980089,-0.300747149228886,2,True
2024-02-11,0.9129506819980089,0.9120786449215815,-0.09551853058687998,0,True
2024-02-12,0.9120786449215815,0.9129991335996457,0.1009220732432814,1,True
2024-02-13,0.9129991335996457,0.9130326567827372,0.0036717650496953524,0,True
2024-02-14,0.9130326567827372,0.9137010150969864,0.07320201630074408,2,True
2024-02-15,0.9137010150969864,0.9183212785018441,0.5056646899278316,1,True
2024-02-16,0.9183212785018441,0.9179266473099543,-0.04297310768335283,3,True
2024-02-17,0.9179266473099543,0.9159778573483647,-0.21230345227483127,5,True
2024-02-18,0.9159778573483647,0.9176258307213401,0.17991410597479884,1,True
2024-02-19,0.9176258307213401,0.9181714361362955,0.05945837580951796,2,True
2024-02-20,0.9181714361362955,0.9152463129447933,-0.31858137558833377,6,True
2024-02-21,0.9152463129447933,0.9068262845683072,-0.9199740285644853,6,True
2024-02-22,0.9068262845683072,0.9173967095523087,1.1656504849805405,2,True
2024-02-23,0.9173967095523087,0.917988774565656,0.06453751219974713,3,True
2024-02-24,0.917988774565656,0.9161898303107826,-0.19596582275469565,5,True
2024-02-25,0.9161898303107826,0.9121923534045651,-0.43631535452227643,4,True
2024-02-26,0.9121923534045651,0.9097229374325668,-0.2707121982311822,5,True
2024-02-27,0.9097229374325668,0.9086239539326183,-0.12080419814961552,2,True
2024-02-28,0.9086239539326183,0.9267335071301516,1.9930745958383733,5,True
2024-02-29,0.9267335071301516,0.9387202824087413,1.29344360448449,6,True
2024-03-01,0.9387202824087413,0.9366475197724146,-0.22080727083131357,5,True
2024-03-02,0.9366475197724146,0.9407106381187644,0.43379374423979655,4,True
2024-03-03,0.9407106381187644,0.9420359897426269,0.14088834229757374,9,True
2024-03-04,0.9420359897426269,0.9573275081387679,1.623241422052124,1,True
2024-03-05,0.9573275081387679,0.9659801555311633,0.9038335698947852,8,True
2024-03-06,0.9659801555311633,0.9595391711828137,-0.6667822637420495,13,True
2024-03-07,0.9595391711828137,0.9613536289186907,0.189096786287557,5,True
2024-03-08,0.9613536289186907,0.9626563071579826,0.13550458438036372,5,True
2024-03-09,0.9626563071579826,0.956524645824905,-0.6369522837470276,5,True
2024-03-10,0.956524645824905,0.9732010298860398,1.7434348538665434,6,True
2024-03-11,0.9732010298860398,0.9787033098341106,0.5653795854197785,3,True
2024-03-12,0.9787033098341106,0.977538891239598,-0.1189756469414549,4,True
2024-03-13,0.977538891239598,0.9824692556491129,0.5043650389461973,5,True
2024-03-14,0.9824692556491129,0.9911567580851882,0.8842518364949203,5,True
2024-03-15,0.9911567580851882,0.9681234174312323,-2.3238847403365237,10,True
2024-03-16,0.9681234174312323,0.9678970704436693,-0.02337997237620293,3,True
2024-03-17,0.9678970704436693,0.9570131715615059,-1.1244892886362878,6,True
2024-03-18,0.9570131715615059,0.9565118183692121,-0.05238728234803203,4,True
2024-03-19,0.9565118183692121,0.946470505600706,-1.0497844956715574,10,True
2024-03-20,0.946470505600706,0.9401167750126281,-0.6713078273945072,4,True
2024-03-21,0.9401167750126281,0.9402105440410597,0.009974189475592254,4,True
2024-03-22,0.9402105440410597,0.9434273828349028,0.34214025935264125,6,True
2024-03-23,0.9434273828349028,0.9578711702632033,1.530990905192775,5,True
2024-03-24,0.9578711702632033,0.9570834284071077,-0.08223881045289483,4,True
2024-03-25,0.9570834284071077,0.9628044883923929,0.5977597997707251,4,True
2024-03-26,0.9628044883923929,0.978738732529383,1.6549823280940235,5,True
2024-03-27,0.978738732529383,0.975914971170296,-0.2885102290566821,6,True
2024-03-28,0.975914971170296,0.9704325279088994,-0.5617746856390715,2,True
2024-03-29,0.9704325279088994,0.9645464506366828,-0.6065416299369186,6,True
2024-03-30,0.9645464506366828,0.9594225115342746,-0.5312278220531486,2,True
2024-03-31,0.9594225115342746,0.9593808412207716,-0.004343270352946682,0,True
2024-04-01,0.9593808412207716,0.9583279804416088,-0.10974377785396561,5,True
2024-04-02,0.9583279804416088,0.9441333549103574,-1.4811865896590337,5,True
2024-04-03,0.9441333549103574,0.933305796381366,-1.1468251251455341,3,True
2024-04-04,0.933305796381366,0.932950830498185,-0.0380331810385548,1,True
2024-04-05,0.932950830498185,0.9284450473264193,-0.48296041168210957,5,True
2024-04-06,0.9284450473264193,0.9263230881277843,-0.22854978921428293,1,True
2024-04-07,0.9263230881277843,0.9358838873852029,1.0321236056786809,3,True
2024-04-08,0.9358838873852029,0.9284489929376709,-0.794424879811173,1,True
2024-04-09,0.9284489929376709,0.9227376168404274,-0.6151523821650517,3,True
2024-04-10,0.9227376168404274,0.9194643863561488,-0.35473036153945703,5,True
2024-04-11,0.9194643863561488,0.9253932968833265,0.644822204661355,1,True
2024-04-12,0.9253932968833265,0.9193919551510287,-0.6485179601484092,7,True
2024-04-13,0.9193919551510287,0.9077458904101503,-1.2667137966162922,11,True
2024-04-14,0.9077458904101503,0.8835310219741211,-2.667582270748492,10,True
2024-04-15,0.8835310219741211,0.885606422100059,0.234898387755611,5,True
2024-04-16,0.885606422100059,0.8783092827868532,-0.8239709120335892,1,True
2024-04-17,0.8783092827868532,0.8777611877382858,-0.062403422041523715,0,True
2024-04-18,0.8777611877382858,0.8876126835669217,1.122343521934499,1,True
2024-04-19,0.8876126835669217,0.8957403944707533,0.9156821499181289,5,True
2024-04-20,0.8957403944707533,0.8957059399119421,-0.0038464893426515268,0,True
2024-04-21,0.8957059399119421,0.8957059399119421,0.0,0,False
2024-04-22,0.8957059399119421,0.8957059399119421,0.0,0,False
2024-04-23,0.8957059399119421,0.9018828139793259,0.6896095908430544,3,True
2024-04-24,0.9018828139793259,0.8985993926432587,-0.3640629675134788,2,True
2024-04-25,0.8985993926432587,0.89888656776598,0.031958081106253644,2,True
2024-04-26,0.89888656776598,0.8962700021451729,-0.291089634069186,1,True
2024-04-27,0.8962700021451729,0.8976820502157921,0.15754717520830575,6,True
2024-04-28,0.8976820502157921,0.9008877488166003,0.35710846619219083,3,True
2024-04-29,0.9008877488166003,0.9033951951631184,0.2783306077601688,2,True
2024-04-30,0.9033951951631184,0.8990601780266211,-0.4798583343931351,2,True
2024-05-01,0.8990601780266211,0.892720210037392,-0.7051772666814005,6,True
2024-05-02,0.892720210037392,0.8976755386296579,0.5550819323400624,3,True
2024-05-03,0.8976755386296579,0.8997036621872717,0.22593058074300565,1,True
2024-05-04,0.8997036621872717,0.900147616427651,0.0493444963089118,0,True
2024-05-05,0.900147616427651,0.898271781801235,-0.2083918895281256,1,True
2024-05-06,0.898271781801235,0.8979003716036094,-0.04134719637757245,0,True
2024-05-07,0.8979003716036094,0.8996218954866582,0.19172771695976643,3,True
2024-05-08,0.8996218954866582,0.9001270646662778,0.05615349983743023,3,True
2024-05-09,0.9001270646662778,0.897002159101962,-0.34716271590771175,1,True
2024-05-10,0.897002159101962,0.8952991879650408,-0.18985139775206106,2,True
2024-05-11,0.8952991879650408,0.8934119564160783,-0.21079339446873346,4,True
2024-05-12,0.8934119564160783,0.8908657444433591,-0.28499864529833996,0,True
2024-05-13,0.8908657444433591,0.889939650722046,-0.10395435306492784,4,True
2024-05-14,0.889939650722046,0.8851366732864511,-0.539696981890625,3,True
2024-05-15,0.8851366732864511,0.8868449462271523,0.19299538616543988,3,True
2024-05-16,0.8868449462271523,0.8890191509797143,0.24516176833522252,2,True
2024-05-17,0.8890191509797143,0.8893093231431763,0.03263958522627952,0,True
2024-05-18,0.8893093231431763,0.8924455377576268,0.3526573412460987,2,True
2024-05-19,0.8924455377576268,0.8920381371840266,-0.04564990874668107,0,True
2024-05-20,0.8920381371840266,0.8949034823825271,0.3212133068150935,2,True
2024-05-21,0.8949034823825271,0.8916132029924421,-0.3676686318534905,2,True
2024-05-22,0.8916132029924421,0.8934917985494132,0.21069624705714052,1,True
2024-05-23,0.8934917985494132,0.8895937083642178,-0.4362759894969259,6,True
2024-05-24,0.8895937083642178,0.8967476326599919,0.8041788322591392,2,True
2024-05-25,0.8967476326599919,0.8961655123248068,-0.06491462190520991,0,True
2024-05-26,0.8961655123248068,0.8983523264478964,0.2440190001751663,3,True
2024-05-27,0.8983523264478964,0.9082576098803592,1.102605641555865,3,True
2024-05-28,0.9082576098803592,0.9130585231729507,0.528584978574953,2,True
2024-05-29,0.9130585231729507,0.9134427171854637,0.042077698500397887,1,True
2024-05-30,0.9134427171854637,0.9028978303405281,-1.1544113983881665,5,True
2024-05-31,0.9028978303405281,0.9026313207431482,-0.029517137867007825,1,True
2024-06-01,0.9026313207431482,0.9006946633924341,-0.21455685241673628,2,True
2024-06-02,0.9006946633924341,0.9059875241533718,0.587642069622385,0,True
2024-06-03,0.9059875241533718,0.8997651933910524,-0.6868009322903212,5,True
2024-06-04,0.8997651933910524,0.8981346093713547,-0.1812232826602589,6,True
2024-06-05,0.8981346093713547,0.8986185302058297,0.0538806576904749,0,True
2024-06-06,0.8986185302058297,0.8969914019340972,-0.18106996651402474,2,True
2024-06-07,0.8969914019340972,0.8965897868325969,-0.044773573150680424,0,True
2024-06-08,0.8965897868325969,0.9083404892304185,1.3105996265397657,7,True
2024-06-09,0.9083404892304185,0.9117048877114954,0.37038957538129136,1,True
2024-06-10,0.9117048877114954,0.908708509543724,-0.32865658703363776,0,True
2024-06-11,0.908708509543724,0.9074033228157563,-0.14363095693061823,2,True
2024-06-12,0.9074033228157563,0.9120755564605053,0.5149015357636788,3,True
2024-06-13,0.9120755564605053,0.9087021435058328,-0.36986112946210126,4,True
2024-06-14,0.9087021435058328,0.9008955788426797,-0.8590894958203643,5,True
2024-06-15,0.9008955788426797,0.9032058727359051,0.2564441370878301,5,True
2024-06-16,0.9032058727359051,0.9037005356069948,0.05476745513082193,0,True
2024-06-17,0.9037005356069948,0.8957129027170536,-0.8838805085554235,4,True
2024-06-18,0.8957129027170536,0.896679519877373,0.1079159580472,5,True
2024-06-19,0.896679519877373,0.8952335979157853,-0.16125292588209383,2,True
2024-06-20,0.8952335979157853,0.8982505267641658,0.3369990643117493,1,True
2024-06-21,0.8982505267641658,0.8973070603001616,-0.10503377798206648,1,True
2024-06-22,0.8973070603001616,0.8992253615840717,0.21378426279945462,2,True
2024-06-23,0.8992253615840717,0.8997913818742285,0.0629453209771258,2,True
2024-06-24,0.8997913818742285,0.8999180270176816,0.01407494514888974,1,True
2024-06-25,0.8999180270176816,0.9046214878229265,0.5226543600678868,0,True
2024-06-26,0.9046214878229265,0.9046214878229265,0.0,0,False
2024-06-27,0.9046214878229265,0.9024802557624388,-0.23669922606424088,2,True
2024-06-28,0.9024802557624388,0.8990960602462775,-0.3749883163152723,2,True
2024-06-29,0.8990960602462775,0.8911080749746098,-0.8884462545058591,5,True
2024-06-30,0.8911080749746098,0.8958537498815963,0.5325588489501376,0,True
2024-07-01,0.8958537498815963,0.892732172978657,-0.3484471548343526,2,True
2024-07-02,0.892732172978657,0.895210389131694,0.2775990636439518,0,True
2024-07-03,0.895210389131694,0.8929791128703285,-0.2492460195339996,1,True
2024-07-04,0.8929791128703285,0.8851975195586252,-0.8714194094294858,5,True
2024-07-05,0.8851975195586252,0.8622631027432726,-2.5908812788797864,9,True
2024-07-06,0.8622631027432726,0.8610621360793356,-0.1392807671018459,2,True
2024-07-07,0.8610621360793356,0.8610621360793356,0.0,0,False
2024-07-08,0.8610621360793356,0.8610621360793356,0.0,0,False
2024-07-09,0.8610621360793356,0.8610621360793356,0.0,0,False
2024-07-10,0.8610621360793356,0.8610621360793356,0.0,0,False
2024-07-11,0.8610621360793356,0.8610621360793356,0.0,0,False
2024-07-12,0.8610621360793356,0.8610621360793356,0.0,0,False
2024-07-13,0.8610621360793356,0.8610621360793356,0.0,0,False
2024-07-14,0.8610621360793356,0.8610621360793356,0.0,0,False
2024-07-15,0.8610621360793356,0.8610621360793356,0.0,0,False
2024-07-16,0.8610621360793356,0.8610621360793356,0.0,0,False
2024-07-17,0.8610621360793356,0.8610621360793356,0.0,0,False
2024-07-18,0.8610621360793356,0.8610621360793356,0.0,0,False
2024-07-19,0.8610621360793356,0.8610621360793356,0.0,0,False
2024-07-20,0.8610621360793356,0.8610621360793356,0.0,0,False
2024-07-21,0.8610621360793356,0.8610621360793356,0.0,0,False
2024-07-22,0.8610621360793356,0.8610621360793356,0.0,0,False
2024-07-23,0.8610621360793356,0.8610621360793356,0.0,0,False
2024-07-24,0.8610621360793356,0.8610621360793356,0.0,0,False
2024-07-25,0.8610621360793356,0.8610621360793356,0.0,0,False
2024-07-26,0.8610621360793356,0.8610621360793356,0.0,0,False
2024-07-27,0.8610621360793356,0.8610621360793356,0.0,0,False
2024-07-28,0.8610621360793356,0.8610621360793356,0.0,0,False
2024-07-29,0.8610621360793356,0.8610621360793356,0.0,0,False
2024-07-30,0.8610621360793356,0.8610621360793356,0.0,0,False
2024-07-31,0.8610621360793356,0.8610621360793356,0.0,0,False
2024-08-01,0.8610621360793356,0.8610621360793356,0.0,0,False
2024-08-02,0.8610621360793356,0.8610621360793356,0.0,0,False
2024-08-03,0.8610621360793356,0.8610621360793356,0.0,0,False
2024-08-04,0.8610621360793356,0.8610621360793356,0.0,0,False
2024-08-05,0.8610621360793356,0.8610621360793356,0.0,0,False
2024-08-06,0.8610621360793356,0.8610621360793356,0.0,0,False
2024-08-07,0.8610621360793356,0.8610621360793356,0.0,0,False
2024-08-08,0.8610621360793356,0.8610621360793356,0.0,0,False
2024-08-09,0.8610621360793356,0.8610621360793356,0.0,0,False
2024-08-10,0.8610621360793356,0.8610621360793356,0.0,0,False
2024-08-11,0.8610621360793356,0.8610621360793356,0.0,0,False
2024-08-12,0.8610621360793356,0.8610621360793356,0.0,0,False
2024-08-13,0.8610621360793356,0.8610621360793356,0.0,0,False
2024-08-14,0.8610621360793356,0.8610621360793356,0.0,0,False
2024-08-15,0.8610621360793356,0.8610621360793356,0.0,0,False
2024-08-16,0.8610621360793356,0.8610621360793356,0.0,0,False
2024-08-17,0.8610621360793356,0.8610621360793356,0.0,0,False
2024-08-18,0.8610621360793356,0.8610621360793356,0.0,0,False
2024-08-19,0.8610621360793356,0.8610621360793356,0.0,0,False
2024-08-20,0.8610621360793356,0.8610621360793356,0.0,0,False
2024-08-21,0.8610621360793356,0.8610621360793356,0.0,0,False
2024-08-22,0.8610621360793356,0.8610621360793356,0.0,0,False
2024-08-23,0.8610621360793356,0.8610621360793356,0.0,0,False
2024-08-24,0.8610621360793356,0.8610621360793356,0.0,0,False
2024-08-25,0.8610621360793356,0.8610621360793356,0.0,0,False
2024-08-26,0.8610621360793356,0.8610621360793356,0.0,0,False
2024-08-27,0.8610621360793356,0.8610621360793356,0.0,0,False
2024-08-28,0.8610621360793356,0.8610621360793356,0.0,0,False
2024-08-29,0.8610621360793356,0.8610621360793356,0.0,0,False
2024-08-30,0.8610621360793356,0.8610621360793356,0.0,0,False
2024-08-31,0.8610621360793356,0.8610621360793356,0.0,0,False
2024-09-01,0.8610621360793356,0.8610621360793356,0.0,0,False
2024-09-02,0.8610621360793356,0.8610621360793356,0.0,0,False
2024-09-03,0.8610621360793356,0.8610621360793356,0.0,0,False
2024-09-04,0.8610621360793356,0.8610621360793356,0.0,0,False
2024-09-05,0.8610621360793356,0.8610621360793356,0.0,0,False
2024-09-06,0.8610621360793356,0.8610621360793356,0.0,0,False
2024-09-07,0.8610621360793356,0.8610621360793356,0.0,0,False
2024-09-08,0.8610621360793356,0.8610621360793356,0.0,0,False
2024-09-09,0.8610621360793356,0.8610621360793356,0.0,0,False
2024-09-10,0.8610621360793356,0.8610621360793356,0.0,0,False
2024-09-11,0.8610621360793356,0.8610621360793356,0.0,0,False
2024-09-12,0.8610621360793356,0.8610621360793356,0.0,0,False
2024-09-13,0.8610621360793356,0.8610621360793356,0.0,0,False
2024-09-14,0.8610621360793356,0.8610621360793356,0.0,0,False
2024-09-15,0.8610621360793356,0.8610621360793356,0.0,0,False
2024-09-16,0.8610621360793356,0.8610621360793356,0.0,0,False
2024-09-17,0.8610621360793356,0.8610621360793356,0.0,0,False
2024-09-18,0.8610621360793356,0.8610621360793356,0.0,0,False
2024-09-19,0.8610621360793356,0.8610621360793356,0.0,0,False
2024-09-20,0.8610621360793356,0.8610621360793356,0.0,0,False
2024-09-21,0.8610621360793356,0.8610621360793356,0.0,0,False
2024-09-22,0.8610621360793356,0.8610621360793356,0.0,0,False
2024-09-23,0.8610621360793356,0.8610621360793356,0.0,0,False
2024-09-24,0.8610621360793356,0.8610621360793356,0.0,0,False
2024-09-25,0.8610621360793356,0.8610621360793356,0.0,0,False
2024-09-26,0.8610621360793356,0.8610621360793356,0.0,0,False
2024-09-27,0.8610621360793356,0.8610621360793356,0.0,0,False
2024-09-28,0.8610621360793356,0.8610621360793356,0.0,0,False
2024-09-29,0.8610621360793356,0.8610621360793356,0.0,0,False
2024-09-30,0.8610621360793356,0.8610621360793356,0.0,0,False
2024-10-01,0.8610621360793356,0.8610621360793356,0.0,0,False
2024-10-02,0.8610621360793356,0.8610621360793356,0.0,0,False
2024-10-03,0.8610621360793356,0.8610621360793356,0.0,0,False
2024-10-04,0.8610621360793356,0.8610621360793356,0.0,0,False
2024-10-05,0.8610621360793356,0.8610621360793356,0.0,0,False
2024-10-06,0.8610621360793356,0.8610621360793356,0.0,0,False
2024-10-07,0.8610621360793356,0.8610621360793356,0.0,0,False
2024-10-08,0.8610621360793356,0.8610621360793356,0.0,0,False
2024-10-09,0.8610621360793356,0.8610621360793356,0.0,0,False
2024-10-10,0.8610621360793356,0.8610621360793356,0.0,0,False
2024-10-11,0.8610621360793356,0.8610621360793356,0.0,0,False
2024-10-12,0.8610621360793356,0.8610621360793356,0.0,0,False
2024-10-13,0.8610621360793356,0.8610621360793356,0.0,0,False
2024-10-14,0.8610621360793356,0.8610621360793356,0.0,0,False
2024-10-15,0.8610621360793356,0.8610621360793356,0.0,0,False
2024-10-16,0.8610621360793356,0.8610621360793356,0.0,0,False
2024-10-17,0.8610621360793356,0.8610621360793356,0.0,0,False
2024-10-18,0.8610621360793356,0.8610621360793356,0.0,0,False
2024-10-19,0.8610621360793356,0.8610621360793356,0.0,0,False
2024-10-20,0.8610621360793356,0.8610621360793356,0.0,0,False
2024-10-21,0.8610621360793356,0.8610621360793356,0.0,0,False
2024-10-22,0.8610621360793356,0.8610621360793356,0.0,0,False
2024-10-23,0.8610621360793356,0.8610621360793356,0.0,0,False
2024-10-24,0.8610621360793356,0.8610621360793356,0.0,0,False
2024-10-25,0.8610621360793356,0.8610621360793356,0.0,0,False
2024-10-26,0.8610621360793356,0.8610621360793356,0.0,0,False
2024-10-27,0.8610621360793356,0.8610621360793356,0.0,0,False
2024-10-28,0.8610621360793356,0.8610621360793356,0.0,0,False
2024-10-29,0.8610621360793356,0.8610621360793356,0.0,0,False
2024-10-30,0.8610621360793356,0.8610621360793356,0.0,0,False
2024-10-31,0.8610621360793356,0.8610621360793356,0.0,0,False
2024-11-01,0.8610621360793356,0.8610621360793356,0.0,0,False
2024-11-02,0.8610621360793356,0.8610621360793356,0.0,0,False
2024-11-03,0.8610621360793356,0.8610621360793356,0.0,0,False
2024-11-04,0.8610621360793356,0.8610621360793356,0.0,0,False
2024-11-05,0.8610621360793356,0.8610621360793356,0.0,0,False
2024-11-06,0.8610621360793356,0.8610621360793356,0.0,0,False
2024-11-07,0.8610621360793356,0.8610621360793356,0.0,0,False
2024-11-08,0.8610621360793356,0.8610621360793356,0.0,0,False
2024-11-09,0.8610621360793356,0.8610621360793356,0.0,0,False
2024-11-10,0.8610621360793356,0.8610621360793356,0.0,0,False
2024-11-11,0.8610621360793356,0.8610621360793356,0.0,0,False
2024-11-12,0.8610621360793356,0.8610621360793356,0.0,0,False
2024-11-13,0.8610621360793356,0.8610621360793356,0.0,0,False
2024-11-14,0.8610621360793356,0.8610621360793356,0.0,0,False
2024-11-15,0.8610621360793356,0.8610621360793356,0.0,0,False
2024-11-16,0.8610621360793356,0.8610621360793356,0.0,0,False
2024-11-17,0.8610621360793356,0.8610621360793356,0.0,0,False
2024-11-18,0.8610621360793356,0.8610621360793356,0.0,0,False
2024-11-19,0.8610621360793356,0.8610621360793356,0.0,0,False
2024-11-20,0.8610621360793356,0.8610621360793356,0.0,0,False
2024-11-21,0.8610621360793356,0.8610621360793356,0.0,0,False
2024-11-22,0.8610621360793356,0.8610621360793356,0.0,0,False
2024-11-23,0.8610621360793356,0.8610621360793356,0.0,0,False
2024-11-24,0.8610621360793356,0.8610621360793356,0.0,0,False
2024-11-25,0.8610621360793356,0.8610621360793356,0.0,0,False
2024-11-26,0.8610621360793356,0.8610621360793356,0.0,0,False
2024-11-27,0.8610621360793356,0.8610621360793356,0.0,0,False
2024-11-28,0.8610621360793356,0.8610621360793356,0.0,0,False
2024-11-29,0.8610621360793356,0.8610621360793356,0.0,0,False
2024-11-30,0.8610621360793356,0.8610621360793356,0.0,0,False
2024-12-01,0.8610621360793356,0.8610621360793356,0.0,0,False
2024-12-02,0.8610621360793356,0.8610621360793356,0.0,0,False
2024-12-03,0.8610621360793356,0.8610621360793356,0.0,0,False
2024-12-04,0.8610621360793356,0.8610621360793356,0.0,0,False
2024-12-05,0.8610621360793356,0.8610621360793356,0.0,0,False
2024-12-06,0.8610621360793356,0.8610621360793356,0.0,0,False
2024-12-07,0.8610621360793356,0.8610621360793356,0.0,0,False
2024-12-08,0.8610621360793356,0.8610621360793356,0.0,0,False
2024-12-09,0.8610621360793356,0.8610621360793356,0.0,0,False
2024-12-10,0.8610621360793356,0.8610621360793356,0.0,0,False
2024-12-11,0.8610621360793356,0.8610621360793356,0.0,0,False
2024-12-12,0.8610621360793356,0.8610621360793356,0.0,0,False
2024-12-13,0.8610621360793356,0.8610621360793356,0.0,0,False
2024-12-14,0.8610621360793356,0.8610621360793356,0.0,0,False
2024-12-15,0.8610621360793356,0.8610621360793356,0.0,0,False
2024-12-16,0.8610621360793356,0.8610621360793356,0.0,0,False
2024-12-17,0.8610621360793356,0.8610621360793356,0.0,0,False
2024-12-18,0.8610621360793356,0.8610621360793356,0.0,0,False
2024-12-19,0.8610621360793356,0.8610621360793356,0.0,0,False
2024-12-20,0.8610621360793356,0.8610621360793356,0.0,0,False
2024-12-21,0.8610621360793356,0.8610621360793356,0.0,0,False
2024-12-22,0.8610621360793356,0.8610621360793356,0.0,0,False
2024-12-23,0.8610621360793356,0.8610621360793356,0.0,0,False
2024-12-24,0.8610621360793356,0.8610621360793356,0.0,0,False
2024-12-25,0.8610621360793356,0.8610621360793356,0.0,0,False
2024-12-26,0.8610621360793356,0.8610621360793356,0.0,0,False
2024-12-27,0.8610621360793356,0.8610621360793356,0.0,0,False
2024-12-28,0.8610621360793356,0.8610621360793356,0.0,0,False
2024-12-29,0.8610621360793356,0.8610621360793356,0.0,0,False
2024-12-30,0.8610621360793356,0.8610621360793356,0.0,0,False
2024-12-31,0.8610621360793356,0.8610621360793356,0.0,0,False
