day,start_equity,end_equity,return_pct,entries,active
2021-09-02,1.0,1.0,0.0,0,False
2021-09-03,1.0,1.0,0.0,0,False
2021-09-04,1.0,1.0,0.0,0,False
2021-09-05,1.0,1.0,0.0,0,False
2021-09-06,1.0,1.0,0.0,0,False
2021-09-07,1.0,1.0,0.0,0,False
2021-09-08,1.0,1.0,0.0,0,False
2021-09-09,1.0,1.0,0.0,0,False
2021-09-10,1.0,1.0,0.0,0,False
2021-09-11,1.0,1.0,0.0,0,False
2021-09-12,1.0,1.0,0.0,0,False
2021-09-13,1.0,1.0,0.0,0,False
2021-09-14,1.0,1.0,0.0,0,False
2021-09-15,1.0,1.0,0.0,0,False
2021-09-16,1.0,1.0,0.0,0,False
2021-09-17,1.0,1.0,0.0,0,False
2021-09-18,1.0,1.0,0.0,0,False
2021-09-19,1.0,1.0,0.0,0,False
2021-09-20,1.0,1.0,0.0,0,False
2021-09-21,1.0,1.0,0.0,0,False
2021-09-22,1.0,1.0,0.0,0,False
2021-09-23,1.0,1.0,0.0,0,False
2021-09-24,1.0,1.0,0.0,0,False
2021-09-25,1.0,1.0,0.0,0,False
2021-09-26,1.0,1.0,0.0,0,False
2021-09-27,1.0,1.0,0.0,0,False
2021-09-28,1.0,1.0,0.0,0,False
2021-09-29,1.0,1.0,0.0,0,False
2021-09-30,1.0,1.0,0.0,0,False
2021-10-01,1.0,1.0,0.0,0,False
2021-10-02,1.0,1.0,0.0,0,False
2021-10-03,1.0,1.0,0.0,0,False
2021-10-04,1.0,1.0,0.0,0,False
2021-10-05,1.0,0.9995269898820623,-0.04730101179376556,1,True
2021-10-06,0.9995269898820623,1.001156298989327,0.1630080151669544,3,True
2021-10-07,1.001156298989327,0.9918318828166905,-0.9313646812240561,2,True
2021-10-08,0.9918318828166905,0.9913736079937506,-0.04620488924377275,1,True
2021-10-09,0.9913736079937506,0.9930088750019405,0.16494962091022636,3,True
2021-10-10,0.9930088750019405,0.9870089939684807,-0.6042122265471184,1,True
2021-10-11,0.9870089939684807,0.9870089939684807,0.0,0,False
2021-10-12,0.9870089939684807,0.9870089939684807,0.0,0,False
2021-10-13,0.9870089939684807,1.002674695219515,1.5871893110159796,4,True
2021-10-14,1.002674695219515,1.0163419229780377,1.3630769604224158,0,True
2021-10-15,1.0163419229780377,1.017387712270915,0.10289738809681204,4,True
2021-10-16,1.017387712270915,1.0314307659205295,1.3803050184544752,2,True
2021-10-17,1.0314307659205295,1.0314307659205295,0.0,0,False
2021-10-18,1.0314307659205295,1.0341485896086902,0.2635003509649181,1,True
2021-10-19,1.0341485896086902,1.0341485896086902,0.0,0,False
2021-10-20,1.0341485896086902,1.0341485896086902,0.0,0,False
2021-10-21,1.0341485896086902,1.0341485896086902,0.0,0,False
2021-10-22,1.0341485896086902,1.0341485896086902,0.0,0,False
2021-10-23,1.0341485896086902,1.0341485896086902,0.0,0,False
2021-10-24,1.0341485896086902,1.0341485896086902,0.0,0,False
2021-10-25,1.0341485896086902,1.0477155340451998,1.3118950770549587,2,True
2021-10-26,1.0477155340451998,1.0483823311433442,0.06364295235463668,0,True
2021-10-27,1.0483823311433442,1.0433282277500706,-0.48208589968906645,7,True
2021-10-28,1.0433282277500706,1.0400423835788264,-0.3149386821758027,3,True
2021-10-29,1.0400423835788264,1.0341454576447644,-0.5669890022914736,0,True
2021-10-30,1.0341454576447644,1.0346322587345493,0.0470727871196841,2,True
2021-10-31,1.0346322587345493,1.0284038336986872,-0.6019940885547248,1,True
2021-11-01,1.0284038336986872,1.0381095014677542,0.9437603644630865,2,True
2021-11-02,1.0381095014677542,1.034019183992197,-0.39401599443738,1,True
2021-11-03,1.034019183992197,1.0333991064324943,-0.05996770362699522,1,True
2021-11-04,1.0333991064324943,1.0562996284017425,2.2160384914890807,1,True
2021-11-05,1.0562996284017425,1.038844571253926,-1.6524721469633796,3,True
2021-11-06,1.038844571253926,1.031660412089264,-0.6915528427886342,2,True
2021-11-07,1.031660412089264,1.031660412089264,0.0,0,False
2021-11-08,1.031660412089264,1.031660412089264,0.0,0,False
2021-11-09,1.031660412089264,1.031660412089264,0.0,0,False
2021-11-10,1.031660412089264,1.031660412089264,0.0,0,False
2021-11-11,1.031660412089264,1.0090624226316935,-2.190448445317994,7,True
2021-11-12,1.0090624226316935,1.0060755014596487,-0.29600955352739877,1,True
2021-11-13,1.0060755014596487,1.0053859215180252,-0.06854156975526493,1,True
2021-11-14,1.0053859215180252,1.0053859215180252,0.0,0,False
2021-11-15,1.0053859215180252,1.0053859215180252,0.0,0,False
2021-11-16,1.0053859215180252,1.0254198099759466,1.9926565539800212,7,True
2021-11-17,1.0254198099759466,1.012557159459177,-1.254378976457593,0,True
2021-11-18,1.012557159459177,1.0018942097910142,-1.053071381556181,4,True
2021-11-19,1.0018942097910142,1.017939012584469,1.6014468031311901,5,True
2021-11-20,1.017939012584469,1.0170152279142481,-0.09075049278988168,0,True
2021-11-21,1.0170152279142481,1.0146113688260054,-0.23636411946089675,1,True
2021-11-22,1.0146113688260054,1.0024480624558716,-1.1988143188468192,5,True
2021-11-23,1.0024480624558716,1.0000046085586674,-0.2437486777337905,0,True
2021-11-24,1.0000046085586674,0.9956979415513951,-0.43066471598360856,2,True
2021-11-25,0.9956979415513951,0.9900223523778493,-0.5700111385891438,5,True
2021-11-26,0.9900223523778493,0.9616137928455264,-2.8694866801836194,6,True
2021-11-27,0.9616137928455264,0.9616137928455264,0.0,0,False
2021-11-28,0.9616137928455264,0.9578977925420742,-0.386433756576654,6,True
2021-11-29,0.9578977925420742,0.955160992661907,-0.2857089661835621,1,True
2021-11-30,0.955160992661907,0.9506612997673435,-0.4710926146621053,3,True
2021-12-01,0.9506612997673435,0.9514666626296546,0.08471606685875877,3,True
2021-12-02,0.9514666626296546,0.9508038690062857,-0.06966020454538535,6,True
2021-12-03,0.9508038690062857,0.9479914210995178,-0.29579685132195,2,True
2021-12-04,0.9479914210995178,0.9270810725234676,-2.205752933058991,12,True
2021-12-05,0.9270810725234676,0.9289920900863329,0.20613273418079725,3,True
2021-12-06,0.9289920900863329,0.9263456920307735,-0.2848676629004898,15,True
2021-12-07,0.9263456920307735,0.9400011280718903,1.4741188045232612,0,True
2021-12-08,0.9400011280718903,0.9415598651716581,0.16582289671982497,2,True
2021-12-09,0.9415598651716581,0.9392326298214266,-0.24716807038150934,2,True
2021-12-10,0.9392326298214266,0.9322267979946193,-0.7459101828840131,4,True
2021-12-11,0.9322267979946193,0.9288660694398568,-0.36050546519279525,2,True
2021-12-12,0.9288660694398568,0.9288660694398568,0.0,0,False
2021-12-13,0.9288660694398568,0.9259464372488857,-0.3143221920822059,2,True
2021-12-14,0.9259464372488857,0.9252528913464948,-0.07490129822752545,1,True
2021-12-15,0.9252528913464948,0.9253547784117264,0.011011807278271668,1,True
2021-12-16,0.9253547784117264,0.9253547784117264,0.0,0,False
2021-12-17,0.9253547784117264,0.9236983733765887,-0.1790021593643054,5,True
2021-12-18,0.9236983733765887,0.9235029121475873,-0.021160720277857425,1,True
2021-12-19,0.9235029121475873,0.9210518002593305,-0.26541463551605915,1,True
2021-12-20,0.9210518002593305,0.9210518002593305,0.0,0,False
2021-12-21,0.9210518002593305,0.9194571282682394,-0.17313597244390522,1,True
2021-12-22,0.9194571282682394,0.9191859241978403,-0.029496108307947022,0,True
2021-12-23,0.9191859241978403,0.9191859241978403,0.0,0,False
2021-12-24,0.9191859241978403,0.9191859241978403,0.0,0,False
2021-12-25,0.9191859241978403,0.9211926728467457,0.21831803513054915,2,True
2021-12-26,0.9211926728467457,0.9205411644396597,-0.0707244451991329,0,True
2021-12-27,0.9205411644396597,0.9205411644396597,0.0,0,False
2021-12-28,0.9205411644396597,0.9191429321272576,-0.15189242658727453,1,True
2021-12-29,0.9191429321272576,0.9191429321272576,0.0,0,False
2021-12-30,0.9191429321272576,0.9191429321272576,0.0,0,False
2021-12-31,0.9191429321272576,0.9191429321272576,0.0,0,False
2022-01-01,0.9191429321272576,0.9191429321272576,0.0,0,False
2022-01-02,0.9191429321272576,0.9191429321272576,0.0,0,False
2022-01-03,0.9191429321272576,0.9191429321272576,0.0,0,False
2022-01-04,0.9191429321272576,0.9191429321272576,0.0,0,False
2022-01-05,0.9191429321272576,0.9192347519975443,0.009989727068271392,1,True
2022-01-06,0.9192347519975443,0.9069372741118429,-1.3377951452529846,8,True
2022-01-07,0.9069372741118429,0.902675683104502,-0.4698881751788453,5,True
2022-01-08,0.902675683104502,0.902675683104502,0.0,0,False
2022-01-09,0.902675683104502,0.9030832517143116,0.04515116751653281,1,True
2022-01-10,0.9030832517143116,0.9026194280534776,-0.05136001137807655,0,True
2022-01-11,0.9026194280534776,0.9026194280534776,0.0,0,False
2022-01-12,0.9026194280534776,0.9026194280534776,0.0,0,False
2022-01-13,0.9026194280534776,0.9026194280534776,0.0,0,False
2022-01-14,0.9026194280534776,0.9026194280534776,0.0,0,False
2022-01-15,0.9026194280534776,0.9029059000968206,0.031737854785673925,1,True
2022-01-16,0.9029059000968206,0.9024594248207022,-0.049448705127586035,0,True
2022-01-17,0.9024594248207022,0.903825054897741,0.15132315531085627,1,True
2022-01-18,0.903825054897741,0.903825054897741,0.0,0,False
2022-01-19,0.903825054897741,0.9026385348256195,-0.13127762565242618,1,True
2022-01-20,0.9026385348256195,0.9026385348256195,0.0,0,False
2022-01-21,0.9026385348256195,0.8956525607680654,-0.7739503453510044,4,True
2022-01-22,0.8956525607680654,0.8956525607680654,0.0,0,False
2022-01-23,0.8956525607680654,0.8956525607680654,0.0,0,False
2022-01-24,0.8956525607680654,0.8956525607680654,0.0,0,False
2022-01-25,0.8956525607680654,0.8956525607680654,0.0,0,False
2022-01-26,0.8956525607680654,0.8956525607680654,0.0,0,False
2022-01-27,0.8956525607680654,0.8956525607680654,0.0,0,False
2022-01-28,0.8956525607680654,0.8956525607680654,0.0,0,False
2022-01-29,0.8956525607680654,0.8956525607680654,0.0,0,False
2022-01-30,0.8956525607680654,0.8956525607680654,0.0,0,False
2022-01-31,0.8956525607680654,0.8956525607680654,0.0,0,False
2022-02-01,0.8956525607680654,0.8956525607680654,0.0,0,False
2022-02-02,0.8956525607680654,0.8956525607680654,0.0,0,False
2022-02-03,0.8956525607680654,0.8956525607680654,0.0,0,False
2022-02-04,0.8956525607680654,0.8956525607680654,0.0,0,False
2022-02-05,0.8956525607680654,0.8956525607680654,0.0,0,False
2022-02-06,0.8956525607680654,0.8956525607680654,0.0,0,False
2022-02-07,0.8956525607680654,0.8956525607680654,0.0,0,False
2022-02-08,0.8956525607680654,0.8956525607680654,0.0,0,False
2022-02-09,0.8956525607680654,0.8956525607680654,0.0,0,False
2022-02-10,0.8956525607680654,0.8956525607680654,0.0,0,False
2022-02-11,0.8956525607680654,0.8956525607680654,0.0,0,False
2022-02-12,0.8956525607680654,0.8956525607680654,0.0,0,False
2022-02-13,0.8956525607680654,0.8956525607680654,0.0,0,False
2022-02-14,0.8956525607680654,0.8956525607680654,0.0,0,False
2022-02-15,0.8956525607680654,0.8956525607680654,0.0,0,False
2022-02-16,0.8956525607680654,0.8956525607680654,0.0,0,False
2022-02-17,0.8956525607680654,0.8956525607680654,0.0,0,False
2022-02-18,0.8956525607680654,0.8956525607680654,0.0,0,False
2022-02-19,0.8956525607680654,0.8956525607680654,0.0,0,False
2022-02-20,0.8956525607680654,0.8956525607680654,0.0,0,False
2022-02-21,0.8956525607680654,0.8956525607680654,0.0,0,False
2022-02-22,0.8956525607680654,0.8956525607680654,0.0,0,False
2022-02-23,0.8956525607680654,0.8956525607680654,0.0,0,False
2022-02-24,0.8956525607680654,0.8956525607680654,0.0,0,False
2022-02-25,0.8956525607680654,0.8956525607680654,0.0,0,False
2022-02-26,0.8956525607680654,0.8956525607680654,0.0,0,False
2022-02-27,0.8956525607680654,0.8956525607680654,0.0,0,False
2022-02-28,0.8956525607680654,0.8956525607680654,0.0,0,False
2022-03-01,0.8956525607680654,0.8956525607680654,0.0,0,False
2022-03-02,0.8956525607680654,0.8956525607680654,0.0,0,False
2022-03-03,0.8956525607680654,0.8956525607680654,0.0,0,False
2022-03-04,0.8956525607680654,0.8956525607680654,0.0,0,False
2022-03-05,0.8956525607680654,0.8956525607680654,0.0,0,False
2022-03-06,0.8956525607680654,0.8956525607680654,0.0,0,False
2022-03-07,0.8956525607680654,0.8956525607680654,0.0,0,False
2022-03-08,0.8956525607680654,0.8956525607680654,0.0,0,False
2022-03-09,0.8956525607680654,0.8956525607680654,0.0,0,False
2022-03-10,0.8956525607680654,0.8956525607680654,0.0,0,False
2022-03-11,0.8956525607680654,0.8956525607680654,0.0,0,False
2022-03-12,0.8956525607680654,0.8956525607680654,0.0,0,False
2022-03-13,0.8956525607680654,0.8956525607680654,0.0,0,False
2022-03-14,0.8956525607680654,0.8956525607680654,0.0,0,False
2022-03-15,0.8956525607680654,0.8956525607680654,0.0,0,False
2022-03-16,0.8956525607680654,0.8956525607680654,0.0,0,False
2022-03-17,0.8956525607680654,0.8956525607680654,0.0,0,False
2022-03-18,0.8956525607680654,0.8956525607680654,0.0,0,False
2022-03-19,0.8956525607680654,0.8956525607680654,0.0,0,False
2022-03-20,0.8956525607680654,0.8956525607680654,0.0,0,False
2022-03-21,0.8956525607680654,0.8956525607680654,0.0,0,False
2022-03-22,0.8956525607680654,0.8956525607680654,0.0,0,False
2022-03-23,0.8956525607680654,0.8956525607680654,0.0,0,False
2022-03-24,0.8956525607680654,0.8956525607680654,0.0,0,False
2022-03-25,0.8956525607680654,0.8956525607680654,0.0,0,False
2022-03-26,0.8956525607680654,0.8956525607680654,0.0,0,False
2022-03-27,0.8956525607680654,0.8956525607680654,0.0,0,False
2022-03-28,0.8956525607680654,0.8956525607680654,0.0,0,False
2022-03-29,0.8956525607680654,0.8956525607680654,0.0,0,False
2022-03-30,0.8956525607680654,0.8956525607680654,0.0,0,False
2022-03-31,0.8956525607680654,0.8956525607680654,0.0,0,False
2022-04-01,0.8956525607680654,0.8956525607680654,0.0,0,False
2022-04-02,0.8956525607680654,0.8956525607680654,0.0,0,False
2022-04-03,0.8956525607680654,0.8956525607680654,0.0,0,False
2022-04-04,0.8956525607680654,0.8956525607680654,0.0,0,False
2022-04-05,0.8956525607680654,0.8956525607680654,0.0,0,False
2022-04-06,0.8956525607680654,0.8956525607680654,0.0,0,False
2022-04-07,0.8956525607680654,0.8956525607680654,0.0,0,False
2022-04-08,0.8956525607680654,0.8956525607680654,0.0,0,False
2022-04-09,0.8956525607680654,0.8956525607680654,0.0,0,False
2022-04-10,0.8956525607680654,0.8956525607680654,0.0,0,False
2022-04-11,0.8956525607680654,0.8956525607680654,0.0,0,False
2022-04-12,0.8956525607680654,0.8956525607680654,0.0,0,False
2022-04-13,0.8956525607680654,0.8956525607680654,0.0,0,False
2022-04-14,0.8956525607680654,0.8956525607680654,0.0,0,False
2022-04-15,0.8956525607680654,0.8956525607680654,0.0,0,False
2022-04-16,0.8956525607680654,0.8956525607680654,0.0,0,False
2022-04-17,0.8956525607680654,0.8956525607680654,0.0,0,False
2022-04-18,0.8956525607680654,0.8956525607680654,0.0,0,False
2022-04-19,0.8956525607680654,0.8956525607680654,0.0,0,False
2022-04-20,0.8956525607680654,0.8956525607680654,0.0,0,False
2022-04-21,0.8956525607680654,0.8956525607680654,0.0,0,False
2022-04-22,0.8956525607680654,0.8956525607680654,0.0,0,False
2022-04-23,0.8956525607680654,0.8956525607680654,0.0,0,False
2022-04-24,0.8956525607680654,0.8956525607680654,0.0,0,False
2022-04-25,0.8956525607680654,0.8956525607680654,0.0,0,False
2022-04-26,0.8956525607680654,0.8956525607680654,0.0,0,False
2022-04-27,0.8956525607680654,0.8956525607680654,0.0,0,False
2022-04-28,0.8956525607680654,0.8956525607680654,0.0,0,False
2022-04-29,0.8956525607680654,0.8956525607680654,0.0,0,False
2022-04-30,0.8956525607680654,0.8956525607680654,0.0,0,False
2022-05-01,0.8956525607680654,0.8956525607680654,0.0,0,False
2022-05-02,0.8956525607680654,0.8956525607680654,0.0,0,False
2022-05-03,0.8956525607680654,0.8956525607680654,0.0,0,False
2022-05-04,0.8956525607680654,0.8956525607680654,0.0,0,False
2022-05-05,0.8956525607680654,0.8956525607680654,0.0,0,False
2022-05-06,0.8956525607680654,0.8956525607680654,0.0,0,False
2022-05-07,0.8956525607680654,0.8956525607680654,0.0,0,False
2022-05-08,0.8956525607680654,0.8956525607680654,0.0,0,False
2022-05-09,0.8956525607680654,0.8956525607680654,0.0,0,False
2022-05-10,0.8956525607680654,0.8956525607680654,0.0,0,False
2022-05-11,0.8956525607680654,0.8956525607680654,0.0,0,False
2022-05-12,0.8956525607680654,0.8956525607680654,0.0,0,False
2022-05-13,0.8956525607680654,0.8956525607680654,0.0,0,False
2022-05-14,0.8956525607680654,0.8956525607680654,0.0,0,False
2022-05-15,0.8956525607680654,0.8956525607680654,0.0,0,False
2022-05-16,0.8956525607680654,0.8956525607680654,0.0,0,False
2022-05-17,0.8956525607680654,0.8956525607680654,0.0,0,False
2022-05-18,0.8956525607680654,0.8956525607680654,0.0,0,False
2022-05-19,0.8956525607680654,0.8956525607680654,0.0,0,False
2022-05-20,0.8956525607680654,0.8956525607680654,0.0,0,False
2022-05-21,0.8956525607680654,0.8956525607680654,0.0,0,False
2022-05-22,0.8956525607680654,0.8956525607680654,0.0,0,False
2022-05-23,0.8956525607680654,0.8956525607680654,0.0,0,False
2022-05-24,0.8956525607680654,0.8956525607680654,0.0,0,False
2022-05-25,0.8956525607680654,0.8956525607680654,0.0,0,False
2022-05-26,0.8956525607680654,0.8956525607680654,0.0,0,False
2022-05-27,0.8956525607680654,0.8956525607680654,0.0,0,False
2022-05-28,0.8956525607680654,0.8956525607680654,0.0,0,False
2022-05-29,0.8956525607680654,0.8956525607680654,0.0,0,False
2022-05-30,0.8956525607680654,0.8956525607680654,0.0,0,False
2022-05-31,0.8956525607680654,0.8956525607680654,0.0,0,False
2022-06-01,0.8956525607680654,0.8956525607680654,0.0,0,False
2022-06-02,0.8956525607680654,0.8956525607680654,0.0,0,False
2022-06-03,0.8956525607680654,0.8956525607680654,0.0,0,False
2022-06-04,0.8956525607680654,0.8956525607680654,0.0,0,False
2022-06-05,0.8956525607680654,0.8956525607680654,0.0,0,False
2022-06-06,0.8956525607680654,0.8956525607680654,0.0,0,False
2022-06-07,0.8956525607680654,0.8956525607680654,0.0,0,False
2022-06-08,0.8956525607680654,0.8956525607680654,0.0,0,False
2022-06-09,0.8956525607680654,0.8956525607680654,0.0,0,False
2022-06-10,0.8956525607680654,0.8956525607680654,0.0,0,False
2022-06-11,0.8956525607680654,0.8956525607680654,0.0,0,False
2022-06-12,0.8956525607680654,0.8956525607680654,0.0,0,False
2022-06-13,0.8956525607680654,0.8956525607680654,0.0,0,False
2022-06-14,0.8956525607680654,0.8956525607680654,0.0,0,False
2022-06-15,0.8956525607680654,0.8956525607680654,0.0,0,False
2022-06-16,0.8956525607680654,0.8956525607680654,0.0,0,False
2022-06-17,0.8956525607680654,0.8956525607680654,0.0,0,False
2022-06-18,0.8956525607680654,0.8956525607680654,0.0,0,False
2022-06-19,0.8956525607680654,0.8956525607680654,0.0,0,False
2022-06-20,0.8956525607680654,0.8956525607680654,0.0,0,False
2022-06-21,0.8956525607680654,0.8956525607680654,0.0,0,False
2022-06-22,0.8956525607680654,0.8956525607680654,0.0,0,False
2022-06-23,0.8956525607680654,0.8956525607680654,0.0,0,False
2022-06-24,0.8956525607680654,0.8956525607680654,0.0,0,False
2022-06-25,0.8956525607680654,0.8956525607680654,0.0,0,False
2022-06-26,0.8956525607680654,0.8956525607680654,0.0,0,False
2022-06-27,0.8956525607680654,0.8956525607680654,0.0,0,False
2022-06-28,0.8956525607680654,0.8956525607680654,0.0,0,False
2022-06-29,0.8956525607680654,0.8956525607680654,0.0,0,False
2022-06-30,0.8956525607680654,0.8956525607680654,0.0,0,False
2022-07-01,0.8956525607680654,0.8956525607680654,0.0,0,False
2022-07-02,0.8956525607680654,0.8956525607680654,0.0,0,False
2022-07-03,0.8956525607680654,0.8956525607680654,0.0,0,False
2022-07-04,0.8956525607680654,0.8956525607680654,0.0,0,False
2022-07-05,0.8956525607680654,0.8956525607680654,0.0,0,False
2022-07-06,0.8956525607680654,0.8956525607680654,0.0,0,False
2022-07-07,0.8956525607680654,0.8956525607680654,0.0,0,False
2022-07-08,0.8956525607680654,0.8956525607680654,0.0,0,False
2022-07-09,0.8956525607680654,0.8956525607680654,0.0,0,False
2022-07-10,0.8956525607680654,0.8956525607680654,0.0,0,False
2022-07-11,0.8956525607680654,0.8956525607680654,0.0,0,False
2022-07-12,0.8956525607680654,0.8956525607680654,0.0,0,False
2022-07-13,0.8956525607680654,0.8956525607680654,0.0,0,False
2022-07-14,0.8956525607680654,0.8956525607680654,0.0,0,False
2022-07-15,0.8956525607680654,0.8956525607680654,0.0,0,False
2022-07-16,0.8956525607680654,0.8956525607680654,0.0,0,False
2022-07-17,0.8956525607680654,0.8956525607680654,0.0,0,False
2022-07-18,0.8956525607680654,0.8956525607680654,0.0,0,False
2022-07-19,0.8956525607680654,0.8956525607680654,0.0,0,False
2022-07-20,0.8956525607680654,0.8956525607680654,0.0,0,False
2022-07-21,0.8956525607680654,0.8956525607680654,0.0,0,False
2022-07-22,0.8956525607680654,0.8956525607680654,0.0,0,False
2022-07-23,0.8956525607680654,0.8956525607680654,0.0,0,False
2022-07-24,0.8956525607680654,0.8956525607680654,0.0,0,False
2022-07-25,0.8956525607680654,0.8956525607680654,0.0,0,False
2022-07-26,0.8956525607680654,0.8956525607680654,0.0,0,False
2022-07-27,0.8956525607680654,0.8956525607680654,0.0,0,False
2022-07-28,0.8956525607680654,0.8956525607680654,0.0,0,False
2022-07-29,0.8956525607680654,0.8956525607680654,0.0,0,False
2022-07-30,0.8956525607680654,0.8956525607680654,0.0,0,False
2022-07-31,0.8956525607680654,0.8956525607680654,0.0,0,False
2022-08-01,0.8956525607680654,0.8956525607680654,0.0,0,False
2022-08-02,0.8956525607680654,0.8956525607680654,0.0,0,False
2022-08-03,0.8956525607680654,0.8956525607680654,0.0,0,False
2022-08-04,0.8956525607680654,0.8956525607680654,0.0,0,False
2022-08-05,0.8956525607680654,0.8956525607680654,0.0,0,False
2022-08-06,0.8956525607680654,0.8956525607680654,0.0,0,False
2022-08-07,0.8956525607680654,0.8956525607680654,0.0,0,False
2022-08-08,0.8956525607680654,0.8956525607680654,0.0,0,False
2022-08-09,0.8956525607680654,0.8956525607680654,0.0,0,False
2022-08-10,0.8956525607680654,0.8956525607680654,0.0,0,False
2022-08-11,0.8956525607680654,0.8956525607680654,0.0,0,False
2022-08-12,0.8956525607680654,0.8956525607680654,0.0,0,False
2022-08-13,0.8956525607680654,0.8956525607680654,0.0,0,False
2022-08-14,0.8956525607680654,0.8956525607680654,0.0,0,False
2022-08-15,0.8956525607680654,0.8956525607680654,0.0,0,False
2022-08-16,0.8956525607680654,0.8956525607680654,0.0,0,False
2022-08-17,0.8956525607680654,0.8956525607680654,0.0,0,False
2022-08-18,0.8956525607680654,0.8956525607680654,0.0,0,False
2022-08-19,0.8956525607680654,0.8956525607680654,0.0,0,False
2022-08-20,0.8956525607680654,0.8956525607680654,0.0,0,False
2022-08-21,0.8956525607680654,0.8956525607680654,0.0,0,False
2022-08-22,0.8956525607680654,0.8956525607680654,0.0,0,False
2022-08-23,0.8956525607680654,0.8956525607680654,0.0,0,False
2022-08-24,0.8956525607680654,0.8956525607680654,0.0,0,False
2022-08-25,0.8956525607680654,0.8956525607680654,0.0,0,False
2022-08-26,0.8956525607680654,0.8956525607680654,0.0,0,False
2022-08-27,0.8956525607680654,0.8956525607680654,0.0,0,False
2022-08-28,0.8956525607680654,0.8956525607680654,0.0,0,False
2022-08-29,0.8956525607680654,0.8956525607680654,0.0,0,False
2022-08-30,0.8956525607680654,0.8956525607680654,0.0,0,False
2022-08-31,0.8956525607680654,0.8956525607680654,0.0,0,False
2022-09-01,0.8956525607680654,0.8956525607680654,0.0,0,False
2022-09-02,0.8956525607680654,0.8956525607680654,0.0,0,False
2022-09-03,0.8956525607680654,0.8956525607680654,0.0,0,False
2022-09-04,0.8956525607680654,0.8956525607680654,0.0,0,False
2022-09-05,0.8956525607680654,0.8956525607680654,0.0,0,False
2022-09-06,0.8956525607680654,0.8956525607680654,0.0,0,False
2022-09-07,0.8956525607680654,0.8956525607680654,0.0,0,False
2022-09-08,0.8956525607680654,0.8956525607680654,0.0,0,False
2022-09-09,0.8956525607680654,0.8956525607680654,0.0,0,False
2022-09-10,0.8956525607680654,0.8956525607680654,0.0,0,False
2022-09-11,0.8956525607680654,0.8956525607680654,0.0,0,False
2022-09-12,0.8956525607680654,0.8956525607680654,0.0,0,False
2022-09-13,0.8956525607680654,0.8956525607680654,0.0,0,False
2022-09-14,0.8956525607680654,0.8956525607680654,0.0,0,False
2022-09-15,0.8956525607680654,0.8956525607680654,0.0,0,False
2022-09-16,0.8956525607680654,0.8956525607680654,0.0,0,False
2022-09-17,0.8956525607680654,0.8956525607680654,0.0,0,False
2022-09-18,0.8956525607680654,0.8956525607680654,0.0,0,False
2022-09-19,0.8956525607680654,0.8956525607680654,0.0,0,False
2022-09-20,0.8956525607680654,0.8956525607680654,0.0,0,False
2022-09-21,0.8956525607680654,0.8956525607680654,0.0,0,False
2022-09-22,0.8956525607680654,0.8956525607680654,0.0,0,False
2022-09-23,0.8956525607680654,0.8956525607680654,0.0,0,False
2022-09-24,0.8956525607680654,0.8956525607680654,0.0,0,False
2022-09-25,0.8956525607680654,0.8956525607680654,0.0,0,False
2022-09-26,0.8956525607680654,0.8956525607680654,0.0,0,False
2022-09-27,0.8956525607680654,0.8956525607680654,0.0,0,False
2022-09-28,0.8956525607680654,0.8956525607680654,0.0,0,False
2022-09-29,0.8956525607680654,0.8956525607680654,0.0,0,False
2022-09-30,0.8956525607680654,0.8956525607680654,0.0,0,False
2022-10-01,0.8956525607680654,0.8956525607680654,0.0,0,False
2022-10-02,0.8956525607680654,0.8956525607680654,0.0,0,False
2022-10-03,0.8956525607680654,0.8956525607680654,0.0,0,False
2022-10-04,0.8956525607680654,0.8956525607680654,0.0,0,False
2022-10-05,0.8956525607680654,0.8956525607680654,0.0,0,False
2022-10-06,0.8956525607680654,0.8956525607680654,0.0,0,False
2022-10-07,0.8956525607680654,0.8956525607680654,0.0,0,False
2022-10-08,0.8956525607680654,0.8956525607680654,0.0,0,False
2022-10-09,0.8956525607680654,0.8956525607680654,0.0,0,False
2022-10-10,0.8956525607680654,0.8956525607680654,0.0,0,False
2022-10-11,0.8956525607680654,0.8956525607680654,0.0,0,False
2022-10-12,0.8956525607680654,0.8956525607680654,0.0,0,False
2022-10-13,0.8956525607680654,0.8956525607680654,0.0,0,False
2022-10-14,0.8956525607680654,0.8956525607680654,0.0,0,False
2022-10-15,0.8956525607680654,0.8956525607680654,0.0,0,False
2022-10-16,0.8956525607680654,0.8956525607680654,0.0,0,False
2022-10-17,0.8956525607680654,0.8956525607680654,0.0,0,False
2022-10-18,0.8956525607680654,0.8956525607680654,0.0,0,False
2022-10-19,0.8956525607680654,0.8956525607680654,0.0,0,False
2022-10-20,0.8956525607680654,0.8956525607680654,0.0,0,False
2022-10-21,0.8956525607680654,0.8956525607680654,0.0,0,False
2022-10-22,0.8956525607680654,0.8956525607680654,0.0,0,False
2022-10-23,0.8956525607680654,0.8956525607680654,0.0,0,False
2022-10-24,0.8956525607680654,0.8956525607680654,0.0,0,False
2022-10-25,0.8956525607680654,0.8956525607680654,0.0,0,False
2022-10-26,0.8956525607680654,0.8956525607680654,0.0,0,False
2022-10-27,0.8956525607680654,0.8956525607680654,0.0,0,False
2022-10-28,0.8956525607680654,0.8956525607680654,0.0,0,False
2022-10-29,0.8956525607680654,0.8956525607680654,0.0,0,False
2022-10-30,0.8956525607680654,0.8956525607680654,0.0,0,False
2022-10-31,0.8956525607680654,0.8956525607680654,0.0,0,False
2022-11-01,0.8956525607680654,0.8956525607680654,0.0,0,False
2022-11-02,0.8956525607680654,0.8956525607680654,0.0,0,False
2022-11-03,0.8956525607680654,0.8956525607680654,0.0,0,False
2022-11-04,0.8956525607680654,0.8956525607680654,0.0,0,False
2022-11-05,0.8956525607680654,0.8956525607680654,0.0,0,False
2022-11-06,0.8956525607680654,0.8956525607680654,0.0,0,False
2022-11-07,0.8956525607680654,0.8956525607680654,0.0,0,False
2022-11-08,0.8956525607680654,0.8956525607680654,0.0,0,False
2022-11-09,0.8956525607680654,0.8956525607680654,0.0,0,False
2022-11-10,0.8956525607680654,0.8956525607680654,0.0,0,False
2022-11-11,0.8956525607680654,0.8956525607680654,0.0,0,False
2022-11-12,0.8956525607680654,0.8956525607680654,0.0,0,False
2022-11-13,0.8956525607680654,0.8956525607680654,0.0,0,False
2022-11-14,0.8956525607680654,0.8956525607680654,0.0,0,False
2022-11-15,0.8956525607680654,0.8956525607680654,0.0,0,False
2022-11-16,0.8956525607680654,0.8956525607680654,0.0,0,False
2022-11-17,0.8956525607680654,0.8956525607680654,0.0,0,False
2022-11-18,0.8956525607680654,0.8956525607680654,0.0,0,False
2022-11-19,0.8956525607680654,0.8956525607680654,0.0,0,False
2022-11-20,0.8956525607680654,0.8956525607680654,0.0,0,False
2022-11-21,0.8956525607680654,0.8956525607680654,0.0,0,False
2022-11-22,0.8956525607680654,0.8956525607680654,0.0,0,False
2022-11-23,0.8956525607680654,0.8956525607680654,0.0,0,False
2022-11-24,0.8956525607680654,0.8956525607680654,0.0,0,False
2022-11-25,0.8956525607680654,0.8956525607680654,0.0,0,False
2022-11-26,0.8956525607680654,0.8956525607680654,0.0,0,False
2022-11-27,0.8956525607680654,0.8956525607680654,0.0,0,False
2022-11-28,0.8956525607680654,0.8956525607680654,0.0,0,False
2022-11-29,0.8956525607680654,0.8956525607680654,0.0,0,False
2022-11-30,0.8956525607680654,0.8956525607680654,0.0,0,False
2022-12-01,0.8956525607680654,0.8956525607680654,0.0,0,False
2022-12-02,0.8956525607680654,0.8956525607680654,0.0,0,False
2022-12-03,0.8956525607680654,0.8956525607680654,0.0,0,False
2022-12-04,0.8956525607680654,0.8956525607680654,0.0,0,False
2022-12-05,0.8956525607680654,0.8956525607680654,0.0,0,False
2022-12-06,0.8956525607680654,0.8956525607680654,0.0,0,False
2022-12-07,0.8956525607680654,0.8956525607680654,0.0,0,False
2022-12-08,0.8956525607680654,0.8956525607680654,0.0,0,False
2022-12-09,0.8956525607680654,0.8956525607680654,0.0,0,False
2022-12-10,0.8956525607680654,0.8956525607680654,0.0,0,False
2022-12-11,0.8956525607680654,0.8956525607680654,0.0,0,False
2022-12-12,0.8956525607680654,0.8956525607680654,0.0,0,False
2022-12-13,0.8956525607680654,0.8956525607680654,0.0,0,False
2022-12-14,0.8956525607680654,0.8956525607680654,0.0,0,False
2022-12-15,0.8956525607680654,0.8956525607680654,0.0,0,False
2022-12-16,0.8956525607680654,0.8956525607680654,0.0,0,False
2022-12-17,0.8956525607680654,0.8956525607680654,0.0,0,False
2022-12-18,0.8956525607680654,0.8956525607680654,0.0,0,False
2022-12-19,0.8956525607680654,0.8956525607680654,0.0,0,False
2022-12-20,0.8956525607680654,0.8956525607680654,0.0,0,False
2022-12-21,0.8956525607680654,0.8956525607680654,0.0,0,False
2022-12-22,0.8956525607680654,0.8956525607680654,0.0,0,False
2022-12-23,0.8956525607680654,0.8956525607680654,0.0,0,False
2022-12-24,0.8956525607680654,0.8956525607680654,0.0,0,False
2022-12-25,0.8956525607680654,0.8956525607680654,0.0,0,False
2022-12-26,0.8956525607680654,0.8956525607680654,0.0,0,False
2022-12-27,0.8956525607680654,0.8956525607680654,0.0,0,False
2022-12-28,0.8956525607680654,0.8956525607680654,0.0,0,False
2022-12-29,0.8956525607680654,0.8956525607680654,0.0,0,False
2022-12-30,0.8956525607680654,0.8956525607680654,0.0,0,False
2022-12-31,0.8956525607680654,0.8956525607680654,0.0,0,False
2023-01-01,0.8956525607680654,0.8956525607680654,0.0,0,False
2023-01-02,0.8956525607680654,0.8956525607680654,0.0,0,False
2023-01-03,0.8956525607680654,0.8956525607680654,0.0,0,False
2023-01-04,0.8956525607680654,0.8956525607680654,0.0,0,False
2023-01-05,0.8956525607680654,0.8956525607680654,0.0,0,False
2023-01-06,0.8956525607680654,0.8956525607680654,0.0,0,False
2023-01-07,0.8956525607680654,0.8956525607680654,0.0,0,False
2023-01-08,0.8956525607680654,0.8956525607680654,0.0,0,False
2023-01-09,0.8956525607680654,0.8956525607680654,0.0,0,False
2023-01-10,0.8956525607680654,0.8956525607680654,0.0,0,False
2023-01-11,0.8956525607680654,0.8956525607680654,0.0,0,False
2023-01-12,0.8956525607680654,0.8956525607680654,0.0,0,False
2023-01-13,0.8956525607680654,0.8956525607680654,0.0,0,False
2023-01-14,0.8956525607680654,0.8956525607680654,0.0,0,False
2023-01-15,0.8956525607680654,0.8956525607680654,0.0,0,False
2023-01-16,0.8956525607680654,0.8956525607680654,0.0,0,False
2023-01-17,0.8956525607680654,0.8956525607680654,0.0,0,False
2023-01-18,0.8956525607680654,0.8956525607680654,0.0,0,False
2023-01-19,0.8956525607680654,0.8956525607680654,0.0,0,False
2023-01-20,0.8956525607680654,0.8956525607680654,0.0,0,False
2023-01-21,0.8956525607680654,0.8956525607680654,0.0,0,False
2023-01-22,0.8956525607680654,0.8956525607680654,0.0,0,False
2023-01-23,0.8956525607680654,0.8956525607680654,0.0,0,False
2023-01-24,0.8956525607680654,0.8956525607680654,0.0,0,False
2023-01-25,0.8956525607680654,0.8956525607680654,0.0,0,False
2023-01-26,0.8956525607680654,0.8956525607680654,0.0,0,False
2023-01-27,0.8956525607680654,0.8956525607680654,0.0,0,False
2023-01-28,0.8956525607680654,0.8956525607680654,0.0,0,False
2023-01-29,0.8956525607680654,0.8956525607680654,0.0,0,False
2023-01-30,0.8956525607680654,0.8956525607680654,0.0,0,False
2023-01-31,0.8956525607680654,0.8956525607680654,0.0,0,False
2023-02-01,0.8956525607680654,0.8956525607680654,0.0,0,False
2023-02-02,0.8956525607680654,0.8956525607680654,0.0,0,False
2023-02-03,0.8956525607680654,0.8956525607680654,0.0,0,False
2023-02-04,0.8956525607680654,0.8956525607680654,0.0,0,False
2023-02-05,0.8956525607680654,0.8956525607680654,0.0,0,False
2023-02-06,0.8956525607680654,0.8956525607680654,0.0,0,False
2023-02-07,0.8956525607680654,0.8956525607680654,0.0,0,False
2023-02-08,0.8956525607680654,0.8956525607680654,0.0,0,False
2023-02-09,0.8956525607680654,0.8956525607680654,0.0,0,False
2023-02-10,0.8956525607680654,0.8956525607680654,0.0,0,False
2023-02-11,0.8956525607680654,0.8956525607680654,0.0,0,False
2023-02-12,0.8956525607680654,0.8956525607680654,0.0,0,False
2023-02-13,0.8956525607680654,0.8956525607680654,0.0,0,False
2023-02-14,0.8956525607680654,0.8956525607680654,0.0,0,False
2023-02-15,0.8956525607680654,0.8956525607680654,0.0,0,False
2023-02-16,0.8956525607680654,0.8956525607680654,0.0,0,False
2023-02-17,0.8956525607680654,0.8956525607680654,0.0,0,False
2023-02-18,0.8956525607680654,0.8956525607680654,0.0,0,False
2023-02-19,0.8956525607680654,0.8956525607680654,0.0,0,False
2023-02-20,0.8956525607680654,0.8956525607680654,0.0,0,False
2023-02-21,0.8956525607680654,0.8956525607680654,0.0,0,False
2023-02-22,0.8956525607680654,0.8956525607680654,0.0,0,False
2023-02-23,0.8956525607680654,0.8956525607680654,0.0,0,False
2023-02-24,0.8956525607680654,0.8956525607680654,0.0,0,False
2023-02-25,0.8956525607680654,0.8956525607680654,0.0,0,False
2023-02-26,0.8956525607680654,0.8956525607680654,0.0,0,False
2023-02-27,0.8956525607680654,0.8956525607680654,0.0,0,False
2023-02-28,0.8956525607680654,0.8956525607680654,0.0,0,False
2023-03-01,0.8956525607680654,0.8956525607680654,0.0,0,False
2023-03-02,0.8956525607680654,0.8956525607680654,0.0,0,False
2023-03-03,0.8956525607680654,0.8956525607680654,0.0,0,False
2023-03-04,0.8956525607680654,0.8956525607680654,0.0,0,False
2023-03-05,0.8956525607680654,0.8956525607680654,0.0,0,False
2023-03-06,0.8956525607680654,0.8956525607680654,0.0,0,False
2023-03-07,0.8956525607680654,0.8956525607680654,0.0,0,False
2023-03-08,0.8956525607680654,0.8956525607680654,0.0,0,False
2023-03-09,0.8956525607680654,0.8956525607680654,0.0,0,False
2023-03-10,0.8956525607680654,0.8956525607680654,0.0,0,False
2023-03-11,0.8956525607680654,0.8956525607680654,0.0,0,False
2023-03-12,0.8956525607680654,0.8956525607680654,0.0,0,False
2023-03-13,0.8956525607680654,0.8956525607680654,0.0,0,False
2023-03-14,0.8956525607680654,0.8956525607680654,0.0,0,False
2023-03-15,0.8956525607680654,0.8956525607680654,0.0,0,False
2023-03-16,0.8956525607680654,0.8956525607680654,0.0,0,False
2023-03-17,0.8956525607680654,0.8956525607680654,0.0,0,False
2023-03-18,0.8956525607680654,0.8956525607680654,0.0,0,False
2023-03-19,0.8956525607680654,0.8956525607680654,0.0,0,False
2023-03-20,0.8956525607680654,0.8956525607680654,0.0,0,False
2023-03-21,0.8956525607680654,0.8956525607680654,0.0,0,False
2023-03-22,0.8956525607680654,0.8956525607680654,0.0,0,False
2023-03-23,0.8956525607680654,0.8956525607680654,0.0,0,False
2023-03-24,0.8956525607680654,0.8956525607680654,0.0,0,False
2023-03-25,0.8956525607680654,0.8956525607680654,0.0,0,False
2023-03-26,0.8956525607680654,0.8956525607680654,0.0,0,False
2023-03-27,0.8956525607680654,0.8956525607680654,0.0,0,False
2023-03-28,0.8956525607680654,0.8956525607680654,0.0,0,False
2023-03-29,0.8956525607680654,0.8956525607680654,0.0,0,False
2023-03-30,0.8956525607680654,0.8956525607680654,0.0,0,False
2023-03-31,0.8956525607680654,0.8956525607680654,0.0,0,False
2023-04-01,0.8956525607680654,0.8956525607680654,0.0,0,False
2023-04-02,0.8956525607680654,0.8956525607680654,0.0,0,False
2023-04-03,0.8956525607680654,0.8956525607680654,0.0,0,False
2023-04-04,0.8956525607680654,0.8956525607680654,0.0,0,False
2023-04-05,0.8956525607680654,0.8956525607680654,0.0,0,False
2023-04-06,0.8956525607680654,0.8956525607680654,0.0,0,False
2023-04-07,0.8956525607680654,0.8956525607680654,0.0,0,False
2023-04-08,0.8956525607680654,0.8956525607680654,0.0,0,False
2023-04-09,0.8956525607680654,0.8956525607680654,0.0,0,False
2023-04-10,0.8956525607680654,0.8956525607680654,0.0,0,False
2023-04-11,0.8956525607680654,0.8956525607680654,0.0,0,False
2023-04-12,0.8956525607680654,0.8956525607680654,0.0,0,False
2023-04-13,0.8956525607680654,0.8956525607680654,0.0,0,False
2023-04-14,0.8956525607680654,0.8956525607680654,0.0,0,False
2023-04-15,0.8956525607680654,0.8956525607680654,0.0,0,False
2023-04-16,0.8956525607680654,0.8956525607680654,0.0,0,False
2023-04-17,0.8956525607680654,0.8956525607680654,0.0,0,False
2023-04-18,0.8956525607680654,0.8956525607680654,0.0,0,False
2023-04-19,0.8956525607680654,0.8956525607680654,0.0,0,False
2023-04-20,0.8956525607680654,0.8956525607680654,0.0,0,False
2023-04-21,0.8956525607680654,0.8956525607680654,0.0,0,False
2023-04-22,0.8956525607680654,0.8956525607680654,0.0,0,False
2023-04-23,0.8956525607680654,0.8956525607680654,0.0,0,False
2023-04-24,0.8956525607680654,0.8956525607680654,0.0,0,False
2023-04-25,0.8956525607680654,0.8956525607680654,0.0,0,False
2023-04-26,0.8956525607680654,0.8956525607680654,0.0,0,False
2023-04-27,0.8956525607680654,0.8956525607680654,0.0,0,False
2023-04-28,0.8956525607680654,0.8956525607680654,0.0,0,False
2023-04-29,0.8956525607680654,0.8956525607680654,0.0,0,False
2023-04-30,0.8956525607680654,0.8956525607680654,0.0,0,False
2023-05-01,0.8956525607680654,0.8956525607680654,0.0,0,False
2023-05-02,0.8956525607680654,0.8956525607680654,0.0,0,False
2023-05-03,0.8956525607680654,0.8956525607680654,0.0,0,False
2023-05-04,0.8956525607680654,0.8956525607680654,0.0,0,False
2023-05-05,0.8956525607680654,0.8956525607680654,0.0,0,False
2023-05-06,0.8956525607680654,0.8956525607680654,0.0,0,False
2023-05-07,0.8956525607680654,0.8956525607680654,0.0,0,False
2023-05-08,0.8956525607680654,0.8956525607680654,0.0,0,False
2023-05-09,0.8956525607680654,0.8956525607680654,0.0,0,False
2023-05-10,0.8956525607680654,0.8956525607680654,0.0,0,False
2023-05-11,0.8956525607680654,0.8956525607680654,0.0,0,False
2023-05-12,0.8956525607680654,0.8956525607680654,0.0,0,False
2023-05-13,0.8956525607680654,0.8956525607680654,0.0,0,False
2023-05-14,0.8956525607680654,0.8956525607680654,0.0,0,False
2023-05-15,0.8956525607680654,0.8956525607680654,0.0,0,False
2023-05-16,0.8956525607680654,0.8956525607680654,0.0,0,False
2023-05-17,0.8956525607680654,0.8956525607680654,0.0,0,False
2023-05-18,0.8956525607680654,0.8956525607680654,0.0,0,False
2023-05-19,0.8956525607680654,0.8956525607680654,0.0,0,False
2023-05-20,0.8956525607680654,0.8956525607680654,0.0,0,False
2023-05-21,0.8956525607680654,0.8956525607680654,0.0,0,False
2023-05-22,0.8956525607680654,0.8956525607680654,0.0,0,False
2023-05-23,0.8956525607680654,0.8956525607680654,0.0,0,False
2023-05-24,0.8956525607680654,0.8956525607680654,0.0,0,False
2023-05-25,0.8956525607680654,0.8956525607680654,0.0,0,False
2023-05-26,0.8956525607680654,0.8956525607680654,0.0,0,False
2023-05-27,0.8956525607680654,0.8956525607680654,0.0,0,False
2023-05-28,0.8956525607680654,0.8956525607680654,0.0,0,False
2023-05-29,0.8956525607680654,0.8956525607680654,0.0,0,False
2023-05-30,0.8956525607680654,0.8956525607680654,0.0,0,False
2023-05-31,0.8956525607680654,0.8956525607680654,0.0,0,False
2023-06-01,0.8956525607680654,0.8956525607680654,0.0,0,False
2023-06-02,0.8956525607680654,0.8956525607680654,0.0,0,False
2023-06-03,0.8956525607680654,0.8956525607680654,0.0,0,False
2023-06-04,0.8956525607680654,0.8956525607680654,0.0,0,False
2023-06-05,0.8956525607680654,0.8956525607680654,0.0,0,False
2023-06-06,0.8956525607680654,0.8956525607680654,0.0,0,False
2023-06-07,0.8956525607680654,0.8956525607680654,0.0,0,False
2023-06-08,0.8956525607680654,0.8956525607680654,0.0,0,False
2023-06-09,0.8956525607680654,0.8956525607680654,0.0,0,False
2023-06-10,0.8956525607680654,0.8956525607680654,0.0,0,False
2023-06-11,0.8956525607680654,0.8956525607680654,0.0,0,False
2023-06-12,0.8956525607680654,0.8956525607680654,0.0,0,False
2023-06-13,0.8956525607680654,0.8956525607680654,0.0,0,False
2023-06-14,0.8956525607680654,0.8956525607680654,0.0,0,False
2023-06-15,0.8956525607680654,0.8956525607680654,0.0,0,False
2023-06-16,0.8956525607680654,0.8956525607680654,0.0,0,False
2023-06-17,0.8956525607680654,0.8956525607680654,0.0,0,False
2023-06-18,0.8956525607680654,0.8956525607680654,0.0,0,False
2023-06-19,0.8956525607680654,0.8956525607680654,0.0,0,False
2023-06-20,0.8956525607680654,0.8956525607680654,0.0,0,False
2023-06-21,0.8956525607680654,0.8956525607680654,0.0,0,False
2023-06-22,0.8956525607680654,0.8956525607680654,0.0,0,False
2023-06-23,0.8956525607680654,0.8956525607680654,0.0,0,False
2023-06-24,0.8956525607680654,0.8956525607680654,0.0,0,False
2023-06-25,0.8956525607680654,0.8956525607680654,0.0,0,False
2023-06-26,0.8956525607680654,0.8956525607680654,0.0,0,False
2023-06-27,0.8956525607680654,0.8956525607680654,0.0,0,False
2023-06-28,0.8956525607680654,0.8956525607680654,0.0,0,False
2023-06-29,0.8956525607680654,0.8956525607680654,0.0,0,False
2023-06-30,0.8956525607680654,0.8956525607680654,0.0,0,False
2023-07-01,0.8956525607680654,0.8956525607680654,0.0,0,False
2023-07-02,0.8956525607680654,0.8956525607680654,0.0,0,False
2023-07-03,0.8956525607680654,0.8956525607680654,0.0,0,False
2023-07-04,0.8956525607680654,0.8956525607680654,0.0,0,False
2023-07-05,0.8956525607680654,0.8956525607680654,0.0,0,False
2023-07-06,0.8956525607680654,0.8956525607680654,0.0,0,False
2023-07-07,0.8956525607680654,0.8956525607680654,0.0,0,False
2023-07-08,0.8956525607680654,0.8956525607680654,0.0,0,False
2023-07-09,0.8956525607680654,0.8956525607680654,0.0,0,False
2023-07-10,0.8956525607680654,0.8956525607680654,0.0,0,False
2023-07-11,0.8956525607680654,0.8956525607680654,0.0,0,False
2023-07-12,0.8956525607680654,0.8956525607680654,0.0,0,False
2023-07-13,0.8956525607680654,0.8956525607680654,0.0,0,False
2023-07-14,0.8956525607680654,0.8956525607680654,0.0,0,False
2023-07-15,0.8956525607680654,0.8956525607680654,0.0,0,False
2023-07-16,0.8956525607680654,0.8956525607680654,0.0,0,False
2023-07-17,0.8956525607680654,0.8956525607680654,0.0,0,False
2023-07-18,0.8956525607680654,0.8956525607680654,0.0,0,False
2023-07-19,0.8956525607680654,0.8956525607680654,0.0,0,False
2023-07-20,0.8956525607680654,0.8956525607680654,0.0,0,False
2023-07-21,0.8956525607680654,0.8956525607680654,0.0,0,False
2023-07-22,0.8956525607680654,0.8956525607680654,0.0,0,False
2023-07-23,0.8956525607680654,0.8956525607680654,0.0,0,False
2023-07-24,0.8956525607680654,0.8956525607680654,0.0,0,False
2023-07-25,0.8956525607680654,0.8956525607680654,0.0,0,False
2023-07-26,0.8956525607680654,0.8956525607680654,0.0,0,False
2023-07-27,0.8956525607680654,0.8956525607680654,0.0,0,False
2023-07-28,0.8956525607680654,0.8956525607680654,0.0,0,False
2023-07-29,0.8956525607680654,0.8956525607680654,0.0,0,False
2023-07-30,0.8956525607680654,0.8956525607680654,0.0,0,False
2023-07-31,0.8956525607680654,0.8956525607680654,0.0,0,False
2023-08-01,0.8956525607680654,0.8956525607680654,0.0,0,False
2023-08-02,0.8956525607680654,0.8956525607680654,0.0,0,False
2023-08-03,0.8956525607680654,0.8956525607680654,0.0,0,False
2023-08-04,0.8956525607680654,0.8956525607680654,0.0,0,False
2023-08-05,0.8956525607680654,0.8956525607680654,0.0,0,False
2023-08-06,0.8956525607680654,0.8956525607680654,0.0,0,False
2023-08-07,0.8956525607680654,0.8956525607680654,0.0,0,False
2023-08-08,0.8956525607680654,0.8956525607680654,0.0,0,False
2023-08-09,0.8956525607680654,0.8956525607680654,0.0,0,False
2023-08-10,0.8956525607680654,0.8956525607680654,0.0,0,False
2023-08-11,0.8956525607680654,0.8956525607680654,0.0,0,False
2023-08-12,0.8956525607680654,0.8956525607680654,0.0,0,False
2023-08-13,0.8956525607680654,0.8956525607680654,0.0,0,False
2023-08-14,0.8956525607680654,0.8956525607680654,0.0,0,False
2023-08-15,0.8956525607680654,0.8956525607680654,0.0,0,False
2023-08-16,0.8956525607680654,0.8956525607680654,0.0,0,False
2023-08-17,0.8956525607680654,0.8956525607680654,0.0,0,False
2023-08-18,0.8956525607680654,0.8956525607680654,0.0,0,False
2023-08-19,0.8956525607680654,0.8956525607680654,0.0,0,False
2023-08-20,0.8956525607680654,0.8956525607680654,0.0,0,False
2023-08-21,0.8956525607680654,0.8956525607680654,0.0,0,False
2023-08-22,0.8956525607680654,0.8956525607680654,0.0,0,False
2023-08-23,0.8956525607680654,0.8956525607680654,0.0,0,False
2023-08-24,0.8956525607680654,0.8956525607680654,0.0,0,False
2023-08-25,0.8956525607680654,0.8956525607680654,0.0,0,False
2023-08-26,0.8956525607680654,0.8956525607680654,0.0,0,False
2023-08-27,0.8956525607680654,0.8956525607680654,0.0,0,False
2023-08-28,0.8956525607680654,0.8956525607680654,0.0,0,False
2023-08-29,0.8956525607680654,0.8956525607680654,0.0,0,False
2023-08-30,0.8956525607680654,0.8956525607680654,0.0,0,False
2023-08-31,0.8956525607680654,0.8956525607680654,0.0,0,False
2023-09-01,0.8956525607680654,0.8956525607680654,0.0,0,False
2023-09-02,0.8956525607680654,0.8956525607680654,0.0,0,False
2023-09-03,0.8956525607680654,0.8956525607680654,0.0,0,False
2023-09-04,0.8956525607680654,0.8956525607680654,0.0,0,False
2023-09-05,0.8956525607680654,0.8956525607680654,0.0,0,False
2023-09-06,0.8956525607680654,0.8956525607680654,0.0,0,False
2023-09-07,0.8956525607680654,0.8956525607680654,0.0,0,False
2023-09-08,0.8956525607680654,0.8956525607680654,0.0,0,False
2023-09-09,0.8956525607680654,0.8956525607680654,0.0,0,False
2023-09-10,0.8956525607680654,0.8956525607680654,0.0,0,False
2023-09-11,0.8956525607680654,0.8956525607680654,0.0,0,False
2023-09-12,0.8956525607680654,0.8956525607680654,0.0,0,False
2023-09-13,0.8956525607680654,0.8956525607680654,0.0,0,False
2023-09-14,0.8956525607680654,0.8956525607680654,0.0,0,False
2023-09-15,0.8956525607680654,0.8956525607680654,0.0,0,False
2023-09-16,0.8956525607680654,0.8956525607680654,0.0,0,False
2023-09-17,0.8956525607680654,0.8956525607680654,0.0,0,False
2023-09-18,0.8956525607680654,0.8956525607680654,0.0,0,False
2023-09-19,0.8956525607680654,0.8956525607680654,0.0,0,False
2023-09-20,0.8956525607680654,0.8956525607680654,0.0,0,False
2023-09-21,0.8956525607680654,0.8956525607680654,0.0,0,False
2023-09-22,0.8956525607680654,0.8956525607680654,0.0,0,False
2023-09-23,0.8956525607680654,0.8956525607680654,0.0,0,False
2023-09-24,0.8956525607680654,0.8956525607680654,0.0,0,False
2023-09-25,0.8956525607680654,0.8956525607680654,0.0,0,False
2023-09-26,0.8956525607680654,0.8956525607680654,0.0,0,False
2023-09-27,0.8956525607680654,0.8956525607680654,0.0,0,False
2023-09-28,0.8956525607680654,0.8956525607680654,0.0,0,False
2023-09-29,0.8956525607680654,0.8956525607680654,0.0,0,False
2023-09-30,0.8956525607680654,0.8956525607680654,0.0,0,False
2023-10-01,0.8956525607680654,0.8956525607680654,0.0,0,False
2023-10-02,0.8956525607680654,0.8956525607680654,0.0,0,False
2023-10-03,0.8956525607680654,0.8956525607680654,0.0,0,False
2023-10-04,0.8956525607680654,0.8956525607680654,0.0,0,False
2023-10-05,0.8956525607680654,0.8956525607680654,0.0,0,False
2023-10-06,0.8956525607680654,0.8956525607680654,0.0,0,False
2023-10-07,0.8956525607680654,0.8956525607680654,0.0,0,False
2023-10-08,0.8956525607680654,0.8956525607680654,0.0,0,False
2023-10-09,0.8956525607680654,0.8956525607680654,0.0,0,False
2023-10-10,0.8956525607680654,0.8956525607680654,0.0,0,False
2023-10-11,0.8956525607680654,0.8956525607680654,0.0,0,False
2023-10-12,0.8956525607680654,0.8956525607680654,0.0,0,False
2023-10-13,0.8956525607680654,0.8956525607680654,0.0,0,False
2023-10-14,0.8956525607680654,0.8956525607680654,0.0,0,False
2023-10-15,0.8956525607680654,0.8956525607680654,0.0,0,False
2023-10-16,0.8956525607680654,0.8956525607680654,0.0,0,False
2023-10-17,0.8956525607680654,0.8956525607680654,0.0,0,False
2023-10-18,0.8956525607680654,0.8956525607680654,0.0,0,False
2023-10-19,0.8956525607680654,0.8956525607680654,0.0,0,False
2023-10-20,0.8956525607680654,0.8956525607680654,0.0,0,False
2023-10-21,0.8956525607680654,0.8956525607680654,0.0,0,False
2023-10-22,0.8956525607680654,0.8956525607680654,0.0,0,False
2023-10-23,0.8956525607680654,0.8956525607680654,0.0,0,False
2023-10-24,0.8956525607680654,0.8956525607680654,0.0,0,False
2023-10-25,0.8956525607680654,0.8956525607680654,0.0,0,False
2023-10-26,0.8956525607680654,0.8956525607680654,0.0,0,False
2023-10-27,0.8956525607680654,0.8956525607680654,0.0,0,False
2023-10-28,0.8956525607680654,0.8956525607680654,0.0,0,False
2023-10-29,0.8956525607680654,0.8956525607680654,0.0,0,False
2023-10-30,0.8956525607680654,0.8956525607680654,0.0,0,False
2023-10-31,0.8956525607680654,0.8956525607680654,0.0,0,False
2023-11-01,0.8956525607680654,0.8956525607680654,0.0,0,False
2023-11-02,0.8956525607680654,0.8956525607680654,0.0,0,False
2023-11-03,0.8956525607680654,0.8956525607680654,0.0,0,False
2023-11-04,0.8956525607680654,0.8956525607680654,0.0,0,False
2023-11-05,0.8956525607680654,0.8956525607680654,0.0,0,False
2023-11-06,0.8956525607680654,0.8956525607680654,0.0,0,False
2023-11-07,0.8956525607680654,0.8956525607680654,0.0,0,False
2023-11-08,0.8956525607680654,0.8956525607680654,0.0,0,False
2023-11-09,0.8956525607680654,0.8956525607680654,0.0,0,False
2023-11-10,0.8956525607680654,0.8956525607680654,0.0,0,False
2023-11-11,0.8956525607680654,0.8956525607680654,0.0,0,False
2023-11-12,0.8956525607680654,0.8956525607680654,0.0,0,False
2023-11-13,0.8956525607680654,0.8956525607680654,0.0,0,False
2023-11-14,0.8956525607680654,0.8956525607680654,0.0,0,False
2023-11-15,0.8956525607680654,0.8956525607680654,0.0,0,False
2023-11-16,0.8956525607680654,0.8956525607680654,0.0,0,False
2023-11-17,0.8956525607680654,0.8956525607680654,0.0,0,False
2023-11-18,0.8956525607680654,0.8956525607680654,0.0,0,False
2023-11-19,0.8956525607680654,0.8956525607680654,0.0,0,False
2023-11-20,0.8956525607680654,0.8956525607680654,0.0,0,False
2023-11-21,0.8956525607680654,0.8956525607680654,0.0,0,False
2023-11-22,0.8956525607680654,0.8956525607680654,0.0,0,False
2023-11-23,0.8956525607680654,0.8956525607680654,0.0,0,False
2023-11-24,0.8956525607680654,0.8956525607680654,0.0,0,False
2023-11-25,0.8956525607680654,0.8956525607680654,0.0,0,False
2023-11-26,0.8956525607680654,0.8956525607680654,0.0,0,False
2023-11-27,0.8956525607680654,0.8956525607680654,0.0,0,False
2023-11-28,0.8956525607680654,0.8956525607680654,0.0,0,False
2023-11-29,0.8956525607680654,0.8956525607680654,0.0,0,False
2023-11-30,0.8956525607680654,0.8956525607680654,0.0,0,False
2023-12-01,0.8956525607680654,0.8956525607680654,0.0,0,False
2023-12-02,0.8956525607680654,0.8956525607680654,0.0,0,False
2023-12-03,0.8956525607680654,0.8956525607680654,0.0,0,False
2023-12-04,0.8956525607680654,0.8956525607680654,0.0,0,False
2023-12-05,0.8956525607680654,0.8956525607680654,0.0,0,False
2023-12-06,0.8956525607680654,0.8956525607680654,0.0,0,False
2023-12-07,0.8956525607680654,0.8956525607680654,0.0,0,False
2023-12-08,0.8956525607680654,0.8956525607680654,0.0,0,False
2023-12-09,0.8956525607680654,0.8956525607680654,0.0,0,False
2023-12-10,0.8956525607680654,0.8956525607680654,0.0,0,False
2023-12-11,0.8956525607680654,0.8956525607680654,0.0,0,False
2023-12-12,0.8956525607680654,0.8956525607680654,0.0,0,False
2023-12-13,0.8956525607680654,0.8956525607680654,0.0,0,False
2023-12-14,0.8956525607680654,0.8956525607680654,0.0,0,False
2023-12-15,0.8956525607680654,0.8956525607680654,0.0,0,False
2023-12-16,0.8956525607680654,0.8956525607680654,0.0,0,False
2023-12-17,0.8956525607680654,0.8956525607680654,0.0,0,False
2023-12-18,0.8956525607680654,0.8956525607680654,0.0,0,False
2023-12-19,0.8956525607680654,0.8956525607680654,0.0,0,False
2023-12-20,0.8956525607680654,0.8956525607680654,0.0,0,False
2023-12-21,0.8956525607680654,0.8956525607680654,0.0,0,False
2023-12-22,0.8956525607680654,0.8956525607680654,0.0,0,False
2023-12-23,0.8956525607680654,0.8956525607680654,0.0,0,False
2023-12-24,0.8956525607680654,0.8956525607680654,0.0,0,False
2023-12-25,0.8956525607680654,0.8956525607680654,0.0,0,False
2023-12-26,0.8956525607680654,0.8956525607680654,0.0,0,False
2023-12-27,0.8956525607680654,0.8956525607680654,0.0,0,False
2023-12-28,0.8956525607680654,0.8956525607680654,0.0,0,False
2023-12-29,0.8956525607680654,0.8956525607680654,0.0,0,False
2023-12-30,0.8956525607680654,0.8956525607680654,0.0,0,False
2023-12-31,0.8956525607680654,0.8956525607680654,0.0,0,False
