day,start_equity,end_equity,return_pct,entries,active
2024-01-02,1.0093726014227875,1.016972769101664,0.7529595778767328,0,True
2024-01-03,1.016972769101664,1.0359204865961942,1.8631489524805644,4,True
2024-01-04,1.0359204865961942,1.0363817877487456,0.04453055601469913,2,True
2024-01-05,1.0363817877487456,1.0363817877487456,0.0,0,False
2024-01-06,1.0363817877487456,1.0513382636043547,1.4431434469818205,3,True
2024-01-07,1.0513382636043547,1.0790936978484789,2.6400099002360067,2,True
2024-01-08,1.0790936978484789,1.0647136594780517,-1.3326033132339044,5,True
2024-01-09,1.0647136594780517,1.065015602221605,0.028359056058446797,1,True
2024-01-10,1.065015602221605,1.0475666337564538,-1.638376792673557,4,True
2024-01-11,1.0475666337564538,1.0475666337564538,0.0,0,False
2024-01-12,1.0475666337564538,1.066681206975852,1.8246641887452508,1,True
2024-01-13,1.066681206975852,1.0639460875394569,-0.2564139518450359,0,True
2024-01-14,1.0639460875394569,1.058628214673135,-0.4998254073775743,1,True
2024-01-15,1.058628214673135,1.063863507495741,0.49453554610032757,1,True
2024-01-16,1.063863507495741,1.063863507495741,0.0,0,False
2024-01-17,1.063863507495741,1.063863507495741,0.0,0,False
2024-01-18,1.063863507495741,1.0585467931274195,-0.4997553098551766,1,True
2024-01-19,1.0585467931274195,1.0585467931274195,0.0,0,False
2024-01-20,1.0585467931274195,1.0585467931274195,0.0,0,False
2024-01-21,1.0585467931274195,1.0585467931274195,0.0,0,False
2024-01-22,1.0585467931274195,1.0585467931274195,0.0,0,False
2024-01-23,1.0585467931274195,1.052084840340618,-0.6104550907674144,3,True
2024-01-24,1.052084840340618,1.0505777466552302,-0.14324830352083762,0,True
2024-01-25,1.0505777466552302,1.0453291404874805,-0.4995923609137809,1,True
2024-01-26,1.0453291404874805,1.0453291404874805,0.0,0,False
2024-01-27,1.0453291404874805,1.0453291404874805,0.0,0,False
2024-01-28,1.0453291404874805,1.0402039401575491,-0.49029536549045627,2,True
2024-01-29,1.0402039401575491,1.040092421141675,-0.010720879970627095,0,True
2024-01-30,1.040092421141675,1.040092421141675,0.0,0,False
2024-01-31,1.040092421141675,1.040092421141675,0.0,0,False
2024-02-01,1.040092421141675,1.040092421141675,0.0,0,False
2024-02-02,1.040092421141675,1.0409471259615108,0.08217585307443986,1,True
2024-02-03,1.0409471259615108,1.03959522469117,-0.12987223237608259,0,True
2024-02-04,1.03959522469117,1.03959522469117,0.0,0,False
2024-02-05,1.03959522469117,1.03959522469117,0.0,0,False
2024-02-06,1.03959522469117,1.0316921680955298,-0.7602051652351394,2,True
2024-02-07,1.0316921680955298,1.0241060731137877,-0.7353060550751134,1,True
2024-02-08,1.0241060731137877,1.0241060731137877,0.0,0,False
2024-02-09,1.0241060731137877,1.0241060731137877,0.0,0,False
2024-02-10,1.0241060731137877,1.0241060731137877,0.0,0,False
2024-02-11,1.0241060731137877,1.0241060731137877,0.0,0,False
2024-02-12,1.0241060731137877,1.0241060731137877,0.0,0,False
2024-02-13,1.0241060731137877,1.0241060731137877,0.0,0,False
2024-02-14,1.0241060731137877,1.0241060731137877,0.0,0,False
2024-02-15,1.0241060731137877,1.0500985356486139,2.5380635089680137,2,True
2024-02-16,1.0500985356486139,1.0443788773515625,-0.5446782471245415,1,True
2024-02-17,1.0443788773515625,1.0443788773515625,0.0,0,False
2024-02-18,1.0443788773515625,1.0443788773515625,0.0,0,False
2024-02-19,1.0443788773515625,1.0443788773515625,0.0,0,False
2024-02-20,1.0443788773515625,1.0391635012502087,-0.4993758696632655,1,True
2024-02-21,1.0391635012502087,1.0602946823070263,2.033479912583025,5,True
2024-02-22,1.0602946823070263,1.0741907995168294,1.3105901068528825,1,True
2024-02-23,1.0741907995168294,1.0658739759885933,-0.7742408082415997,2,True
2024-02-24,1.0658739759885933,1.0639139554307846,-0.18388858363774796,0,True
2024-02-25,1.0639139554307846,1.0639139554307846,0.0,0,False
2024-02-26,1.0639139554307846,1.0667020127009537,0.2620566499703658,2,True
2024-02-27,1.0667020127009537,1.0728373918176284,0.5751727327428124,2,True
2024-02-28,1.0728373918176284,1.0608211761818809,-1.120040718881854,1,True
2024-02-29,1.0608211761818809,1.0811293139478555,1.9143789944944256,6,True
2024-03-01,1.0811293139478555,1.0802987991656852,-0.07681919003172943,2,True
2024-03-02,1.0802987991656852,1.0711682522425223,-0.8451871769379338,2,True
2024-03-03,1.0711682522425223,1.093653670350054,2.099149042221682,4,True
2024-03-04,1.093653670350054,1.0979676846647857,0.39445890702776154,0,True
2024-03-05,1.0979676846647857,1.0928186210024375,-0.4689631338212097,2,True
2024-03-06,1.0928186210024375,1.1249482674785283,2.940071285262169,9,True
2024-03-07,1.1249482674785283,1.111557060584082,-1.190384240909259,5,True
2024-03-08,1.111557060584082,1.1142509213100915,0.24235019699248017,1,True
2024-03-09,1.1142509213100915,1.1121559914945187,-0.1880123924968058,2,True
2024-03-10,1.1121559914945187,1.1152794579321936,0.280847872201595,1,True
2024-03-11,1.1152794579321936,1.1148062911511654,-0.04242584920425285,1,True
2024-03-12,1.1148062911511654,1.1345563660250764,1.7716149460833108,2,True
2024-03-13,1.1345563660250764,1.1255371499106297,-0.7949553133305809,0,True
2024-03-14,1.1255371499106297,1.1255371499106297,0.0,0,False
2024-03-15,1.1255371499106297,1.119913409177293,-0.49964949924425905,1,True
2024-03-16,1.119913409177293,1.1143231513918403,-0.49916875176621023,1,True
2024-03-17,1.1143231513918403,1.1087601777430143,-0.49922445224956924,1,True
2024-03-18,1.1087601777430143,1.1064288632505168,-0.21026318759418405,1,True
2024-03-19,1.1064288632505168,1.0922369076161906,-1.2826812554972977,2,True
2024-03-20,1.0922369076161906,1.0915040353036634,-0.06709829226763109,1,True
2024-03-21,1.0915040353036634,1.1029075616978854,1.0447534800958946,3,True
2024-03-22,1.1029075616978854,1.1075918139472216,0.42471848158562864,2,True
2024-03-23,1.1075918139472216,1.1029968843721445,-0.4148576684312788,1,True
2024-03-24,1.1029968843721445,1.098760612136848,-0.3840692839044424,2,True
2024-03-25,1.098760612136848,1.099912991291367,0.10487991121903573,0,True
2024-03-26,1.099912991291367,1.1052613580643533,0.4862536232713266,1,True
2024-03-27,1.1052613580643533,1.099684325159778,-0.5045895130489586,3,True
2024-03-28,1.099684325159778,1.099684325159778,0.0,0,False
2024-03-29,1.099684325159778,1.0887378430130845,-0.9954204034965275,2,True
2024-03-30,1.0887378430130845,1.0887378430130845,0.0,0,False
2024-03-31,1.0887378430130845,1.0887378430130845,0.0,0,False
2024-04-01,1.0887378430130845,1.0816063887454388,-0.6550203350982442,2,True
2024-04-02,1.0816063887454388,1.0828184355405257,0.11205987757643143,2,True
2024-04-03,1.0828184355405257,1.0800141545557913,-0.2589797968608254,1,True
2024-04-04,1.0800141545557913,1.0774074841893504,-0.24135520404480193,0,True
2024-04-05,1.0774074841893504,1.075815994145084,-0.14771477529357258,2,True
2024-04-06,1.075815994145084,1.0713382385054295,-0.41621947098980927,0,True
2024-04-07,1.0713382385054295,1.0726832973006866,0.1255494060525164,2,True
2024-04-08,1.0726832973006866,1.0709076624305063,-0.16553207033692674,0,True
2024-04-09,1.0709076624305063,1.0655617439740555,-0.4991950888013852,1,True
2024-04-10,1.0655617439740555,1.0602478482114586,-0.4986943077346706,1,True
2024-04-11,1.0602478482114586,1.0602478482114586,0.0,0,False
2024-04-12,1.0602478482114586,1.0549585777860258,-0.4988711304017568,1,True
2024-04-13,1.0549585777860258,1.060522885355518,0.5274432273132179,9,True
2024-04-14,1.060522885355518,1.0340253063634974,-2.4985391034855198,8,True
2024-04-15,1.0340253063634974,1.0379178600513024,0.37644665598122184,1,True
2024-04-16,1.0379178600513024,1.0356083733398136,-0.22251151082173237,0,True
2024-04-17,1.0356083733398136,1.0304386085715498,-0.49920075014374676,1,True
2024-04-18,1.0304386085715498,1.0304386085715498,0.0,0,False
2024-04-19,1.0304386085715498,1.0304386085715498,0.0,0,False
2024-04-20,1.0304386085715498,1.0304386085715498,0.0,0,False
2024-04-21,1.0304386085715498,1.0304386085715498,0.0,0,False
2024-04-22,1.0304386085715498,1.0304386085715498,0.0,0,False
2024-04-23,1.0304386085715498,1.0252922315644029,-0.4994355766891445,1,True
2024-04-24,1.0252922315644029,1.0252922315644029,0.0,0,False
2024-04-25,1.0252922315644029,1.0278868921863995,0.2530654716887515,2,True
2024-04-26,1.0278868921863995,1.0201766027431116,-0.7501106884326036,0,True
2024-04-27,1.0201766027431116,1.0176304768296331,-0.24957697585225036,1,True
2024-04-28,1.0176304768296331,1.0176304768296331,0.0,0,False
2024-04-29,1.0176304768296331,1.0252504639644546,0.7487970641918196,1,True
2024-04-30,1.0252504639644546,1.0255156088115995,0.025861470583454782,0,True
2024-05-01,1.0255156088115995,1.0255156088115995,0.0,0,False
2024-05-02,1.0255156088115995,1.0255156088115995,0.0,0,False
2024-05-03,1.0255156088115995,1.0255156088115995,0.0,0,False
2024-05-04,1.0255156088115995,1.0255156088115995,0.0,0,False
2024-05-05,1.0255156088115995,1.0255156088115995,0.0,0,False
2024-05-06,1.0255156088115995,1.0255156088115995,0.0,0,False
2024-05-07,1.0255156088115995,1.022955535595063,-0.24963766465760928,1,True
2024-05-08,1.022955535595063,1.022955535595063,0.0,0,False
2024-05-09,1.022955535595063,1.0153159752900431,-0.7468125484629051,5,True
2024-05-10,1.0153159752900431,1.0131142361460892,-0.21685260525177164,1,True
2024-05-11,1.0131142361460892,1.0132509527317186,0.013494686063197925,1,True
2024-05-12,1.0132509527317186,1.010585500094667,-0.2630594750358206,0,True
2024-05-13,1.010585500094667,1.0080595783069657,-0.2499463714316863,1,True
2024-05-14,1.0080595783069657,1.0080595783069657,0.0,0,False
2024-05-15,1.0080595783069657,1.0080595783069657,0.0,0,False
2024-05-16,1.0080595783069657,1.0080595783069657,0.0,0,False
2024-05-17,1.0080595783069657,1.0080595783069657,0.0,0,False
2024-05-18,1.0080595783069657,1.0080595783069657,0.0,0,False
2024-05-19,1.0080595783069657,1.0080595783069657,0.0,0,False
2024-05-20,1.0080595783069657,1.0080595783069657,0.0,0,False
2024-05-21,1.0080595783069657,1.0085844293071173,0.05206547424836394,2,True
2024-05-22,1.0085844293071173,1.0085844293071173,0.0,0,False
2024-05-23,1.0085844293071173,1.0149972949916755,0.6358283449769075,1,True
2024-05-24,1.0149972949916755,1.0144558372801458,-0.05334572951094518,2,True
2024-05-25,1.0144558372801458,1.0144558372801458,0.0,0,False
2024-05-26,1.0144558372801458,1.0144558372801458,0.0,0,False
2024-05-27,1.0144558372801458,1.0144558372801458,0.0,0,False
2024-05-28,1.0144558372801458,1.0144558372801458,0.0,0,False
2024-05-29,1.0144558372801458,1.0144558372801458,0.0,0,False
2024-05-30,1.0144558372801458,1.0144558372801458,0.0,0,False
2024-05-31,1.0144558372801458,1.009389245314702,-0.4994393821053711,2,True
2024-06-01,1.009389245314702,1.009389245314702,0.0,0,False
2024-06-02,1.009389245314702,1.00686878205626,-0.24970181425463256,1,True
2024-06-03,1.00686878205626,1.002704167653326,-0.4136203721034071,3,True
2024-06-04,1.002704167653326,0.9995311360576106,-0.31644743266016073,2,True
2024-06-05,0.9995311360576106,0.9995311360576106,0.0,0,False
2024-06-06,0.9995311360576106,0.994548359389869,-0.49851140079486544,2,True
2024-06-07,0.994548359389869,0.994548359389869,0.0,0,False
2024-06-08,0.994548359389869,1.0160435112447406,2.1612978043680453,5,True
2024-06-09,1.0160435112447406,1.0135070248681577,-0.24964347968479128,1,True
2024-06-10,1.0135070248681577,1.0135070248681577,0.0,0,False
2024-06-11,1.0135070248681577,1.0109761669237363,-0.2497129158774869,1,True
2024-06-12,1.0109761669237363,1.0084528520842246,-0.24959192135950437,1,True
2024-06-13,1.0084528520842246,1.0042683753143804,-0.4149402484405651,2,True
2024-06-14,1.0042683753143804,1.0017632684783686,-0.2494459546460992,1,True
2024-06-15,1.0017632684783686,1.0082666843740973,0.6491968811760396,1,True
2024-06-16,1.0082666843740973,1.0082666843740973,0.0,0,False
2024-06-17,1.0082666843740973,1.0082666843740973,0.0,0,False
2024-06-18,1.0082666843740973,1.013263068384191,0.4955419124252236,5,True
2024-06-19,1.013263068384191,1.0111222793451535,-0.2112767262356985,1,True
2024-06-20,1.0111222793451535,1.0107304189332695,-0.03875499728259735,0,True
2024-06-21,1.0107304189332695,1.0107304189332695,0.0,0,False
2024-06-22,1.0107304189332695,1.0082072327591758,-0.24963987694728296,1,True
2024-06-23,1.0082072327591758,1.0129485324224536,0.47027034812101576,1,True
2024-06-24,1.0129485324224536,1.013155582618585,0.02044034711576881,1,True
2024-06-25,1.013155582618585,1.0223524088110125,0.9077407606695065,1,True
2024-06-26,1.0223524088110125,1.0236659503421504,0.12848226500150606,0,True
2024-06-27,1.0236659503421504,1.0238472445440323,0.017710289359662568,1,True
2024-06-28,1.0238472445440323,1.021107699250272,-0.2675736354577407,0,True
2024-06-29,1.021107699250272,1.0160213067890045,-0.4981249739867799,2,True
2024-06-30,1.0160213067890045,1.0160213067890045,0.0,0,False
2024-07-01,1.0160213067890045,1.0160213067890045,0.0,0,False
2024-07-02,1.0160213067890045,1.0160213067890045,0.0,0,False
2024-07-03,1.0160213067890045,1.0160213067890045,0.0,0,False
2024-07-04,1.0160213067890045,1.0160213067890045,0.0,0,False
2024-07-05,1.0160213067890045,1.0226304982168426,0.6504973255655022,6,True
2024-07-06,1.0226304982168426,1.023237921766098,0.05939814530415699,2,True
2024-07-07,1.023237921766098,1.0210791911488346,-0.21097054471335142,2,True
2024-07-08,1.0210791911488346,1.0209780102915291,-0.009909207648395313,0,True
2024-07-09,1.0209780102915291,1.0209780102915291,0.0,0,False
2024-07-10,1.0209780102915291,1.0209780102915291,0.0,0,False
2024-07-11,1.0209780102915291,1.0209780102915291,0.0,0,False
2024-07-12,1.0209780102915291,1.0209780102915291,0.0,0,False
2024-07-13,1.0209780102915291,1.0209780102915291,0.0,0,False
2024-07-14,1.0209780102915291,1.0184294505345586,-0.24961945617641979,1,True
2024-07-15,1.0184294505345586,1.0184294505345586,0.0,0,False
2024-07-16,1.0184294505345586,1.015886311638195,-0.24971183767600325,1,True
2024-07-17,1.015886311638195,1.0133519381972471,-0.2494741204713269,1,True
2024-07-18,1.0133519381972471,1.0133519381972471,0.0,0,False
2024-07-19,1.0133519381972471,1.0133519381972471,0.0,0,False
2024-07-20,1.0133519381972471,1.0116159461224625,-0.1713118620834675,2,True
2024-07-21,1.0116159461224625,1.0116159461224625,0.0,0,False
2024-07-22,1.0116159461224625,1.0116159461224625,0.0,0,False
2024-07-23,1.0116159461224625,1.0090894043183287,-0.24975306229780836,1,True
2024-07-24,1.0090894043183287,1.0090894043183287,0.0,0,False
2024-07-25,1.0090894043183287,1.0090894043183287,0.0,0,False
2024-07-26,1.0090894043183287,1.0090894043183287,0.0,0,False
2024-07-27,1.0090894043183287,1.0090894043183287,0.0,0,False
2024-07-28,1.0090894043183287,1.0065693996366103,-0.24973056608603716,1,True
2024-07-29,1.0065693996366103,1.0065693996366103,0.0,0,False
2024-07-30,1.0065693996366103,1.0065693996366103,0.0,0,False
2024-07-31,1.0065693996366103,1.0040582843164512,-0.24947264650263534,1,True
2024-08-01,1.0040582843164512,1.0040582843164512,0.0,0,False
2024-08-02,1.0040582843164512,1.0040582843164512,0.0,0,False
2024-08-03,1.0040582843164512,1.0015541465941513,-0.24940162950845002,1,True
2024-08-04,1.0015541465941513,1.0015541465941513,0.0,0,False
2024-08-05,1.0015541465941513,1.0054256822958458,0.3865528104356475,8,True
2024-08-06,1.0054256822958458,1.0053956384852085,-0.0029881682123700237,0,True
2024-08-07,1.0053956384852085,1.0053956384852085,0.0,0,False
2024-08-08,1.0053956384852085,1.0053956384852085,0.0,0,False
2024-08-09,1.0053956384852085,1.0053956384852085,0.0,0,False
2024-08-10,1.0053956384852085,1.0053956384852085,0.0,0,False
2024-08-11,1.0053956384852085,1.0053956384852085,0.0,0,False
2024-08-12,1.0053956384852085,1.0103624255297046,0.4940131878808707,2,True
2024-08-13,1.0103624255297046,1.008445613016877,-0.18971534019810443,0,True
2024-08-14,1.008445613016877,1.008445613016877,0.0,0,False
2024-08-15,1.008445613016877,1.008445613016877,0.0,0,False
2024-08-16,1.008445613016877,1.008445613016877,0.0,0,False
2024-08-17,1.008445613016877,1.008445613016877,0.0,0,False
2024-08-18,1.008445613016877,1.0074627351488612,-0.09746463818465223,1,True
2024-08-19,1.0074627351488612,1.0026217242694953,-0.48051513078055663,2,True
2024-08-20,1.0026217242694953,1.0038471891084033,0.12222604091298717,1,True
2024-08-21,1.0038471891084033,1.0038471891084033,0.0,0,False
2024-08-22,1.0038471891084033,1.0038471891084033,0.0,0,False
2024-08-23,1.0038471891084033,1.0038471891084033,0.0,0,False
2024-08-24,1.0038471891084033,1.0038471891084033,0.0,0,False
2024-08-25,1.0038471891084033,1.0038471891084033,0.0,0,False
2024-08-26,1.0038471891084033,1.0038471891084033,0.0,0,False
2024-08-27,1.0038471891084033,1.0038471891084033,0.0,0,False
2024-08-28,1.0038471891084033,1.0038471891084033,0.0,0,False
2024-08-29,1.0038471891084033,1.00134445268123,-0.24931448275470336,1,True
2024-08-30,1.00134445268123,1.00134445268123,0.0,0,False
2024-08-31,1.00134445268123,1.00134445268123,0.0,0,False
2024-09-01,1.00134445268123,0.9988524618539621,-0.24886449618762851,1,True
2024-09-02,0.9988524618539621,0.9988524618539621,0.0,0,False
2024-09-03,0.9988524618539621,0.9988524618539621,0.0,0,False
2024-09-04,0.9988524618539621,0.9988524618539621,0.0,0,False
2024-09-05,0.9988524618539621,0.9953077283017623,-0.35488059423915974,2,True
2024-09-06,0.9953077283017623,0.9956605383504193,0.03544733338491923,0,True
2024-09-07,0.9956605383504193,0.9956605383504193,0.0,0,False
2024-09-08,0.9956605383504193,0.9956605383504193,0.0,0,False
2024-09-09,0.9956605383504193,0.9956605383504193,0.0,0,False
2024-09-10,0.9956605383504193,0.9956605383504193,0.0,0,False
2024-09-11,0.9956605383504193,0.9956605383504193,0.0,0,False
2024-09-12,0.9956605383504193,0.9956605383504193,0.0,0,False
2024-09-13,0.9956605383504193,0.9996071930430797,0.3963855692421969,1,True
2024-09-14,0.9996071930430797,0.9979416956275173,-0.1666151891616674,0,True
2024-09-15,0.9979416956275173,0.9979416956275173,0.0,0,False
2024-09-16,0.9979416956275173,0.9979416956275173,0.0,0,False
2024-09-17,0.9979416956275173,0.9979416956275173,0.0,0,False
2024-09-18,0.9979416956275173,0.9929563033859219,-0.49956748610053836,2,True
2024-09-19,0.9929563033859219,0.9925152334993265,-0.04441986873857662,1,True
2024-09-20,0.9925152334993265,0.994336467667661,0.18349684789356058,1,True
2024-09-21,0.994336467667661,0.9864284065455494,-0.795310378252645,4,True
2024-09-22,0.9864284065455494,0.992111325411888,0.5761106258324489,1,True
2024-09-23,0.992111325411888,0.9976529911004263,0.5585729692418884,1,True
2024-09-24,0.9976529911004263,0.9961345549095239,-0.1522008358064042,0,True
2024-09-25,0.9961345549095239,0.9961345549095239,0.0,0,False
2024-09-26,0.9961345549095239,0.9961345549095239,0.0,0,False
2024-09-27,0.9961345549095239,0.9961345549095239,0.0,0,False
2024-09-28,0.9961345549095239,0.9961345549095239,0.0,0,False
2024-09-29,0.9961345549095239,0.9961345549095239,0.0,0,False
2024-09-30,0.9961345549095239,0.9961345549095239,0.0,0,False
2024-10-01,0.9961345549095239,0.9961345549095239,0.0,0,False
2024-10-02,0.9961345549095239,0.9961345549095239,0.0,0,False
2024-10-03,0.9961345549095239,1.0003508322721857,0.42326383939614853,1,True
2024-10-04,1.0003508322721857,1.002297900558116,0.1946385431107034,0,True
2024-10-05,1.002297900558116,1.002297900558116,0.0,0,False
2024-10-06,1.002297900558116,1.002297900558116,0.0,0,False
2024-10-07,1.002297900558116,1.002297900558116,0.0,0,False
2024-10-08,1.002297900558116,1.002297900558116,0.0,0,False
2024-10-09,1.002297900558116,1.002297900558116,0.0,0,False
2024-10-10,1.002297900558116,1.002297900558116,0.0,0,False
2024-10-11,1.002297900558116,1.0015064422902629,-0.07896437450507499,1,True
2024-10-12,1.0015064422902629,1.0020140559283528,0.05068500976679324,0,True
2024-10-13,1.0020140559283528,1.0020140559283528,0.0,0,False
2024-10-14,1.0020140559283528,1.0020140559283528,0.0,0,False
2024-10-15,1.0020140559283528,0.9970163538826315,-0.4987656626324388,2,True
2024-10-16,0.9970163538826315,0.9970163538826315,0.0,0,False
2024-10-17,0.9970163538826315,0.9970163538826315,0.0,0,False
2024-10-18,0.9970163538826315,0.999973764860943,0.29662612521796916,3,True
2024-10-19,0.999973764860943,0.9982777558367169,-0.16960535204261218,1,True
2024-10-20,0.9982777558367169,0.9982777558367169,0.0,0,False
2024-10-21,0.9982777558367169,1.0052977315452565,0.703208667877786,1,True
2024-10-22,1.0052977315452565,1.013052339482155,0.771374259939761,2,True
2024-10-23,1.013052339482155,1.0023094839217024,-1.0604442773355593,2,True
2024-10-24,1.0023094839217024,0.9998087050276959,-0.24950166930693962,1,True
2024-10-25,0.9998087050276959,1.0017206323370418,0.1912293121405506,1,True
2024-10-26,1.0017206323370418,1.008734359255616,0.7001679602236965,2,True
2024-10-27,1.008734359255616,1.008734359255616,0.0,0,False
2024-10-28,1.008734359255616,1.008734359255616,0.0,0,False
2024-10-29,1.008734359255616,1.008734359255616,0.0,0,False
2024-10-30,1.008734359255616,1.008734359255616,0.0,0,False
2024-10-31,1.008734359255616,1.008734359255616,0.0,0,False
2024-11-01,1.008734359255616,1.008734359255616,0.0,0,False
2024-11-02,1.008734359255616,1.008734359255616,0.0,0,False
2024-11-03,1.008734359255616,1.008734359255616,0.0,0,False
2024-11-04,1.008734359255616,1.008734359255616,0.0,0,False
2024-11-05,1.008734359255616,1.008734359255616,0.0,0,False
2024-11-06,1.008734359255616,1.008734359255616,0.0,0,False
2024-11-07,1.008734359255616,1.008734359255616,0.0,0,False
2024-11-08,1.008734359255616,1.008734359255616,0.0,0,False
2024-11-09,1.008734359255616,1.0075127393887544,-0.12110421893064549,1,True
2024-11-10,1.0075127393887544,1.0050782349683283,-0.2416351005053441,3,True
2024-11-11,1.0050782349683283,1.0046271139750018,-0.04488416698632536,3,True
2024-11-12,1.0046271139750018,1.005504208032675,0.08730543357553522,0,True
2024-11-13,1.005504208032675,1.005504208032675,0.0,0,False
2024-11-14,1.005504208032675,1.0065536152980739,0.10436627286245503,1,True
2024-11-15,1.0065536152980739,1.0065536152980739,0.0,0,False
2024-11-16,1.0065536152980739,1.0057828694304407,-0.07657275836269184,1,True
2024-11-17,1.0057828694304407,1.0132914867357374,0.7465445608104915,2,True
2024-11-18,1.0132914867357374,1.0132914867357374,0.0,0,False
2024-11-19,1.0132914867357374,1.0107616517944196,-0.2496650741108608,1,True
2024-11-20,1.0107616517944196,1.0107616517944196,0.0,0,False
2024-11-21,1.0107616517944196,1.0107616517944196,0.0,0,False
2024-11-22,1.0107616517944196,1.0107616517944196,0.0,0,False
2024-11-23,1.0107616517944196,1.0132702432456473,0.2481882298140503,1,True
2024-11-24,1.0132702432456473,1.0223135169996824,0.8924838969975424,8,True
2024-11-25,1.0223135169996824,1.0236301454538164,0.12878910747438077,1,True
2024-11-26,1.0236301454538164,1.0185234145416466,-0.49888438073555363,2,True
2024-11-27,1.0185234145416466,1.019662605159162,0.11184726843300741,2,True
2024-11-28,1.019662605159162,1.019662605159162,0.0,0,False
2024-11-29,1.019662605159162,1.019662605159162,0.0,0,False
2024-11-30,1.019662605159162,1.024179151690304,0.4429451966061926,1,True
2024-12-01,1.024179151690304,1.024179151690304,0.0,0,False
2024-12-02,1.024179151690304,1.0264381417730934,0.22056591164358874,1,True
2024-12-03,1.0264381417730934,1.0287243221630835,0.22272948528987424,1,True
2024-12-04,1.0287243221630835,1.0270794615922747,-0.1598932323627955,3,True
2024-12-05,1.0270794615922747,1.0299806895991122,0.282473568533792,1,True
2024-12-06,1.0299806895991122,1.03090795336629,0.09002729629219441,1,True
2024-12-07,1.03090795336629,1.0315987032362615,0.06700402957566798,1,True
2024-12-08,1.0315987032362615,1.0315987032362615,0.0,0,False
2024-12-09,1.0315987032362615,1.0290215702049916,-0.24981933606401663,1,True
2024-12-10,1.0290215702049916,1.0246811694501192,-0.42179881166219957,5,True
2024-12-11,1.0246811694501192,1.0245376319189357,-0.014008018831901392,0,True
2024-12-12,1.0245376319189357,1.0245376319189357,0.0,0,False
2024-12-13,1.0245376319189357,1.0245376319189357,0.0,0,False
2024-12-14,1.0245376319189357,1.0245376319189357,0.0,0,False
2024-12-15,1.0245376319189357,1.0209974420673016,-0.34554024579881437,2,True
2024-12-16,1.0209974420673016,1.0194314938646,-0.15337435121588472,0,True
2024-12-17,1.0194314938646,1.0194314938646,0.0,0,False
2024-12-18,1.0194314938646,1.0168869209835274,-0.24960705024192897,1,True
2024-12-19,1.0168869209835274,1.017958052683704,0.10533439638900077,1,True
2024-12-20,1.017958052683704,1.0155315738312605,-0.2383672731942621,2,True
2024-12-21,1.0155315738312605,1.0155315738312605,0.0,0,False
2024-12-22,1.0155315738312605,1.0155315738312605,0.0,0,False
2024-12-23,1.0155315738312605,1.0155315738312605,0.0,0,False
2024-12-24,1.0155315738312605,1.0155315738312605,0.0,0,False
2024-12-25,1.0155315738312605,1.0204886446558772,0.48812572177499014,1,True
2024-12-26,1.0204886446558772,1.0201812703560704,-0.03012030573945612,1,True
2024-12-27,1.0201812703560704,1.0202204997940865,0.0038453399563431745,0,True
2024-12-28,1.0202204997940865,1.0202204997940865,0.0,0,False
2024-12-29,1.0202204997940865,1.0202204997940865,0.0,0,False
2024-12-30,1.0202204997940865,1.021659647557207,0.14106242360460985,1,True
2024-12-31,1.021659647557207,1.021659647557207,0.0,0,False
