day,start_equity,end_equity,return_pct,entries,active
2024-01-02,1.0032761764537503,0.9919630700785369,-1.1276163673298312,1,True
2024-01-03,0.9919630700785369,0.9689198543946778,-2.322991286564202,4,True
2024-01-04,0.9689198543946778,0.974742546302389,0.600946701762961,8,True
2024-01-05,0.974742546302389,0.9775131415234055,0.28423866707434353,7,True
2024-01-06,0.9775131415234055,0.9857973242127303,0.8474753266656032,7,True
2024-01-07,0.9857973242127303,1.0221640248796666,3.689064655960528,7,True
2024-01-08,1.0221640248796666,0.9824091073801519,-3.889289441994881,1,True
2024-01-09,0.9824091073801519,0.972665584719346,-0.9917988939240785,5,True
2024-01-10,0.972665584719346,0.9523441604929195,-2.0892508736484294,5,True
2024-01-11,0.9523441604929195,0.9776199072638688,2.6540559410651587,5,True
2024-01-12,0.9776199072638688,0.9579013840391876,-2.0169928085720823,1,True
2024-01-13,0.9579013840391876,0.9662902365942624,0.8757532554866554,8,True
2024-01-14,0.9662902365942624,0.964897869879174,-0.14409404776724033,0,True
2024-01-15,0.964897869879174,0.9780793736562764,1.366103521272466,4,True
2024-01-16,0.9780793736562764,0.9727451603025534,-0.5453763260319544,1,True
2024-01-17,0.9727451603025534,0.9803281561025333,0.7795459807398375,0,True
2024-01-18,0.9803281561025333,0.979043694737191,-0.13102361258794382,1,True
2024-01-19,0.979043694737191,0.9705684972575391,-0.8656607999428356,1,True
2024-01-20,0.9705684972575391,0.9938030934359322,2.393916168106136,7,True
2024-01-21,0.9938030934359322,0.9902748408741058,-0.35502531488688094,3,True
2024-01-22,0.9902748408741058,0.9704432949217582,-2.002630495473612,3,True
2024-01-23,0.9704432949217582,0.9501143908046527,-2.0948059740826475,9,True
2024-01-24,0.9501143908046527,0.9453757693586053,-0.4987422032450395,1,True
2024-01-25,0.9453757693586053,0.9357101773831102,-1.0224074160534835,3,True
2024-01-26,0.9357101773831102,0.9313059643220938,-0.47068132499463733,0,True
2024-01-27,0.9313059643220938,0.9313059643220938,0.0,0,False
2024-01-28,0.9313059643220938,0.9285158738555511,-0.2995890258872702,1,True
2024-01-29,0.9285158738555511,0.9266565141517185,-0.20025071796693217,0,True
2024-01-30,0.9266565141517185,0.9266565141517185,0.0,0,False
2024-01-31,0.9266565141517185,0.9220400808671347,-0.4981817117866716,1,True
2024-02-01,0.9220400808671347,0.9220400808671347,0.0,0,False
2024-02-02,0.9220400808671347,0.9192485709591022,-0.30275364010285966,3,True
2024-02-03,0.9192485709591022,0.9196981760313356,0.04891006485485683,1,True
2024-02-04,0.9196981760313356,0.9202276966776836,0.057575480755311936,1,True
2024-02-05,0.9202276966776836,0.9202276966776836,0.0,0,False
2024-02-06,0.9202276966776836,0.9167365157935358,-0.3793822873134678,2,True
2024-02-07,0.9167365157935358,0.912858902542349,-0.42298012399235585,5,True
2024-02-08,0.912858902542349,0.9291492964956835,1.78454675831774,1,True
2024-02-09,0.9291492964956835,0.9381623636492391,0.9700343300639291,0,True
2024-02-10,0.9381623636492391,0.9351180523668864,-0.32449727257348737,2,True
2024-02-11,0.9351180523668864,0.9338187639344095,-0.13894378674309538,0,True
2024-02-12,0.9338187639344095,0.9350262799678719,0.12930946347391448,3,True
2024-02-13,0.9350262799678719,0.9359011704075659,0.09356854009752169,0,True
2024-02-14,0.9359011704075659,0.9368817297521692,0.10477167628459849,2,True
2024-02-15,0.9368817297521692,0.9452731369026657,0.8956741159544368,6,True
2024-02-16,0.9452731369026657,0.9432497710786643,-0.21405091766717455,5,True
2024-02-17,0.9432497710786643,0.9360892271221706,-0.7591355096015717,5,True
2024-02-18,0.9360892271221706,0.9327160005991002,-0.3603530972619673,4,True
2024-02-19,0.9327160005991002,0.9292417238448373,-0.372490313453544,6,True
2024-02-20,0.9292417238448373,0.9240325274620717,-0.5605857172676254,10,True
2024-02-21,0.9240325274620717,0.9159352682289248,-0.8762959086934585,7,True
2024-02-22,0.9159352682289248,0.9268728783569871,1.194146628856374,3,True
2024-02-23,0.9268728783569871,0.917684920178954,-0.9912856868052988,7,True
2024-02-24,0.917684920178954,0.9192670319846629,0.1724025066686785,8,True
2024-02-25,0.9192670319846629,0.9229981707408175,0.4058819283553783,8,True
2024-02-26,0.9229981707408175,0.9295370815287587,0.7084424428157821,6,True
2024-02-27,0.9295370815287587,0.9303400765126161,0.08638654657400213,4,True
2024-02-28,0.9303400765126161,0.9521174141975632,2.340793246979067,6,True
2024-02-29,0.9521174141975632,0.963546638141333,1.2004006830819591,12,True
2024-03-01,0.963546638141333,0.9733006604568731,1.0123041199495475,8,True
2024-03-02,0.9733006604568731,0.976743433181009,0.3537214001806843,6,True
2024-03-03,0.976743433181009,0.9768537326404975,0.011292572413745816,11,True
2024-03-04,0.9768537326404975,0.997631068568942,2.1269648908728733,4,True
2024-03-05,0.997631068568942,0.9910743367866428,-0.6572301112980128,8,True
2024-03-06,0.9910743367866428,0.9682182033757427,-2.306197684929112,10,True
2024-03-07,0.9682182033757427,0.9655111495710827,-0.27959129411342376,7,True
2024-03-08,0.9655111495710827,0.9724796724020994,0.7217444183956312,5,True
2024-03-09,0.9724796724020994,0.980161436675331,0.789915151054732,6,True
2024-03-10,0.980161436675331,0.9878002002489712,0.7793372895337214,8,True
2024-03-11,0.9878002002489712,1.0002764793678347,1.2630367067873571,8,True
2024-03-12,1.0002764793678347,0.9995470598363938,-0.07292179177319502,4,True
2024-03-13,0.9995470598363938,0.9906997923931135,-0.8851276541925412,6,True
2024-03-14,0.9906997923931135,1.0045097373632388,1.3939586014009686,6,True
2024-03-15,1.0045097373632388,0.9843949130131111,-2.002451902848401,11,True
2024-03-16,0.9843949130131111,0.9827522682312665,-0.16686847525619886,4,True
2024-03-17,0.9827522682312665,0.9674037007468056,-1.561794155111429,8,True
2024-03-18,0.9674037007468056,0.9715874057783147,0.4324673379148214,4,True
2024-03-19,0.9715874057783147,0.9517112830548579,-2.0457369666638026,9,True
2024-03-20,0.9517112830548579,0.938507028254491,-1.3874223239198291,7,True
2024-03-21,0.938507028254491,0.9609726177954002,2.3937582633443366,5,True
2024-03-22,0.9609726177954002,0.9575400831491032,-0.35719380372895015,7,True
2024-03-23,0.9575400831491032,0.9685641707890675,1.1512925499378435,5,True
2024-03-24,0.9685641707890675,0.9664302316129982,-0.22031985493855544,7,True
2024-03-25,0.9664302316129982,0.9787499546580674,1.274765900535546,4,True
2024-03-26,0.9787499546580674,0.9965710349141179,1.820800110512022,7,True
2024-03-27,0.9965710349141179,0.9974139485561386,0.08458139083817873,6,True
2024-03-28,0.9974139485561386,0.9886004206816518,-0.8836379205690248,7,True
2024-03-29,0.9886004206816518,0.9813977565552936,-0.7285718249433693,8,True
2024-03-30,0.9813977565552936,0.9764988253542684,-0.49917896880267154,2,True
2024-03-31,0.9764988253542684,0.974064004563222,-0.24934190680291346,1,True
2024-04-01,0.974064004563222,0.9700966389007093,-0.40730030510589543,6,True
2024-04-02,0.9700966389007093,0.9569410371206297,-1.3561124997801488,8,True
2024-04-03,0.9569410371206297,0.9613713588502424,0.46296705416073447,4,True
2024-04-04,0.9613713588502424,0.959180372125298,-0.22790222579177621,3,True
2024-04-05,0.959180372125298,0.9446332149174188,-1.516623737373446,5,True
2024-04-06,0.9446332149174188,0.9374563957003319,-0.7597466512665796,3,True
2024-04-07,0.9374563957003319,0.9488430243304713,1.214630214521395,4,True
2024-04-08,0.9488430243304713,0.9399112203267954,-0.9413363195643898,1,True
2024-04-09,0.9399112203267954,0.9348373432466157,-0.5398251420400735,3,True
2024-04-10,0.9348373432466157,0.9296756091980815,-0.5521531725089179,6,True
2024-04-11,0.9296756091980815,0.9393261372396711,1.0380532678397225,1,True
2024-04-12,0.9393261372396711,0.9383273118758667,-0.1063342458179184,8,True
2024-04-13,0.9383273118758667,0.9192665981232423,-2.0313502027900054,9,True
2024-04-14,0.9192665981232423,0.8988307488804882,-2.223060131247623,12,True
2024-04-15,0.8988307488804882,0.9034186820959491,0.5104334960920331,5,True
2024-04-16,0.9034186820959491,0.8931704631149497,-1.1343820073792643,1,True
2024-04-17,0.8931704631149497,0.8898723592987926,-0.369258047859633,1,True
2024-04-18,0.8898723592987926,0.904330255968254,1.6247157829302639,1,True
2024-04-19,0.904330255968254,0.9258357048416856,2.378052567798483,10,True
2024-04-20,0.9258357048416856,0.9284538484075755,0.28278705953963534,0,True
2024-04-21,0.9284538484075755,0.9284538484075755,0.0,0,False
2024-04-22,0.9284538484075755,0.9284538484075755,0.0,0,False
2024-04-23,0.9284538484075755,0.9314619180545397,0.3239869867655232,4,True
2024-04-24,0.9314619180545397,0.9257767568162311,-0.6103482201594179,5,True
2024-04-25,0.9257767568162311,0.920584182832594,-0.5608883508260054,3,True
2024-04-26,0.920584182832594,0.9183998958355446,-0.23727183649066008,1,True
2024-04-27,0.9183998958355446,0.9180101642066582,-0.04243594001411832,6,True
2024-04-28,0.9180101642066582,0.922564508794577,0.4961104751878942,3,True
2024-04-29,0.922564508794577,0.9249645628224352,0.26015026645607175,3,True
2024-04-30,0.9249645628224352,0.9200605544333479,-0.530183380660898,2,True
2024-05-01,0.9200605544333479,0.9136679355502733,-0.6948041465609567,6,True
2024-05-02,0.9136679355502733,0.91675567267936,0.3379495995147419,4,True
2024-05-03,0.91675567267936,0.921098080061111,0.4736711766461843,3,True
2024-05-04,0.921098080061111,0.9216161657523348,0.05624652818616571,0,True
2024-05-05,0.9216161657523348,0.9193220202719729,-0.24892634977700112,1,True
2024-05-06,0.9193220202719729,0.9170298839993769,-0.24932898614979937,1,True
2024-05-07,0.9170298839993769,0.9184323759664211,0.15293852376190298,4,True
2024-05-08,0.9184323759664211,0.916493535699636,-0.2111032142943614,3,True
2024-05-09,0.916493535699636,0.9117106811876879,-0.5218645113843512,8,True
2024-05-10,0.9117106811876879,0.9051791520652669,-0.716403707578861,4,True
2024-05-11,0.9051791520652669,0.8972983862976539,-0.8706304989053448,4,True
2024-05-12,0.8972983862976539,0.8945715736707671,-0.3038913998428039,0,True
2024-05-13,0.8945715736707671,0.8941847845639719,-0.043237357208669724,4,True
2024-05-14,0.8941847845639719,0.8844892276592894,-1.0842900787458976,3,True
2024-05-15,0.8844892276592894,0.8769216637682787,-0.8555857611785123,3,True
2024-05-16,0.8769216637682787,0.868613779607331,-0.9473918257700942,4,True
2024-05-17,0.868613779607331,0.868613779607331,0.0,0,False
2024-05-18,0.868613779607331,0.868613779607331,0.0,0,False
2024-05-19,0.868613779607331,0.868613779607331,0.0,0,False
2024-05-20,0.868613779607331,0.868613779607331,0.0,0,False
2024-05-21,0.868613779607331,0.868613779607331,0.0,0,False
2024-05-22,0.868613779607331,0.868613779607331,0.0,0,False
2024-05-23,0.868613779607331,0.868613779607331,0.0,0,False
2024-05-24,0.868613779607331,0.868613779607331,0.0,0,False
2024-05-25,0.868613779607331,0.868613779607331,0.0,0,False
2024-05-26,0.868613779607331,0.868613779607331,0.0,0,False
2024-05-27,0.868613779607331,0.868613779607331,0.0,0,False
2024-05-28,0.868613779607331,0.868613779607331,0.0,0,False
2024-05-29,0.868613779607331,0.868613779607331,0.0,0,False
2024-05-30,0.868613779607331,0.868613779607331,0.0,0,False
2024-05-31,0.868613779607331,0.868613779607331,0.0,0,False
2024-06-01,0.868613779607331,0.868613779607331,0.0,0,False
2024-06-02,0.868613779607331,0.868613779607331,0.0,0,False
2024-06-03,0.868613779607331,0.868613779607331,0.0,0,False
2024-06-04,0.868613779607331,0.868613779607331,0.0,0,False
2024-06-05,0.868613779607331,0.868613779607331,0.0,0,False
2024-06-06,0.868613779607331,0.868613779607331,0.0,0,False
2024-06-07,0.868613779607331,0.868613779607331,0.0,0,False
2024-06-08,0.868613779607331,0.868613779607331,0.0,0,False
2024-06-09,0.868613779607331,0.868613779607331,0.0,0,False
2024-06-10,0.868613779607331,0.868613779607331,0.0,0,False
2024-06-11,0.868613779607331,0.868613779607331,0.0,0,False
2024-06-12,0.868613779607331,0.868613779607331,0.0,0,False
2024-06-13,0.868613779607331,0.868613779607331,0.0,0,False
2024-06-14,0.868613779607331,0.868613779607331,0.0,0,False
2024-06-15,0.868613779607331,0.868613779607331,0.0,0,False
2024-06-16,0.868613779607331,0.868613779607331,0.0,0,False
2024-06-17,0.868613779607331,0.868613779607331,0.0,0,False
2024-06-18,0.868613779607331,0.868613779607331,0.0,0,False
2024-06-19,0.868613779607331,0.868613779607331,0.0,0,False
2024-06-20,0.868613779607331,0.868613779607331,0.0,0,False
2024-06-21,0.868613779607331,0.868613779607331,0.0,0,False
2024-06-22,0.868613779607331,0.868613779607331,0.0,0,False
2024-06-23,0.868613779607331,0.868613779607331,0.0,0,False
2024-06-24,0.868613779607331,0.868613779607331,0.0,0,False
2024-06-25,0.868613779607331,0.868613779607331,0.0,0,False
2024-06-26,0.868613779607331,0.868613779607331,0.0,0,False
2024-06-27,0.868613779607331,0.868613779607331,0.0,0,False
2024-06-28,0.868613779607331,0.868613779607331,0.0,0,False
2024-06-29,0.868613779607331,0.868613779607331,0.0,0,False
2024-06-30,0.868613779607331,0.868613779607331,0.0,0,False
2024-07-01,0.868613779607331,0.868613779607331,0.0,0,False
2024-07-02,0.868613779607331,0.868613779607331,0.0,0,False
2024-07-03,0.868613779607331,0.868613779607331,0.0,0,False
2024-07-04,0.868613779607331,0.868613779607331,0.0,0,False
2024-07-05,0.868613779607331,0.868613779607331,0.0,0,False
2024-07-06,0.868613779607331,0.868613779607331,0.0,0,False
2024-07-07,0.868613779607331,0.868613779607331,0.0,0,False
2024-07-08,0.868613779607331,0.868613779607331,0.0,0,False
2024-07-09,0.868613779607331,0.868613779607331,0.0,0,False
2024-07-10,0.868613779607331,0.868613779607331,0.0,0,False
2024-07-11,0.868613779607331,0.868613779607331,0.0,0,False
2024-07-12,0.868613779607331,0.868613779607331,0.0,0,False
2024-07-13,0.868613779607331,0.868613779607331,0.0,0,False
2024-07-14,0.868613779607331,0.868613779607331,0.0,0,False
2024-07-15,0.868613779607331,0.868613779607331,0.0,0,False
2024-07-16,0.868613779607331,0.868613779607331,0.0,0,False
2024-07-17,0.868613779607331,0.868613779607331,0.0,0,False
2024-07-18,0.868613779607331,0.868613779607331,0.0,0,False
2024-07-19,0.868613779607331,0.868613779607331,0.0,0,False
2024-07-20,0.868613779607331,0.868613779607331,0.0,0,False
2024-07-21,0.868613779607331,0.868613779607331,0.0,0,False
2024-07-22,0.868613779607331,0.868613779607331,0.0,0,False
2024-07-23,0.868613779607331,0.868613779607331,0.0,0,False
2024-07-24,0.868613779607331,0.868613779607331,0.0,0,False
2024-07-25,0.868613779607331,0.868613779607331,0.0,0,False
2024-07-26,0.868613779607331,0.868613779607331,0.0,0,False
2024-07-27,0.868613779607331,0.868613779607331,0.0,0,False
2024-07-28,0.868613779607331,0.868613779607331,0.0,0,False
2024-07-29,0.868613779607331,0.868613779607331,0.0,0,False
2024-07-30,0.868613779607331,0.868613779607331,0.0,0,False
2024-07-31,0.868613779607331,0.868613779607331,0.0,0,False
2024-08-01,0.868613779607331,0.868613779607331,0.0,0,False
2024-08-02,0.868613779607331,0.868613779607331,0.0,0,False
2024-08-03,0.868613779607331,0.868613779607331,0.0,0,False
2024-08-04,0.868613779607331,0.868613779607331,0.0,0,False
2024-08-05,0.868613779607331,0.868613779607331,0.0,0,False
2024-08-06,0.868613779607331,0.868613779607331,0.0,0,False
2024-08-07,0.868613779607331,0.868613779607331,0.0,0,False
2024-08-08,0.868613779607331,0.868613779607331,0.0,0,False
2024-08-09,0.868613779607331,0.868613779607331,0.0,0,False
2024-08-10,0.868613779607331,0.868613779607331,0.0,0,False
2024-08-11,0.868613779607331,0.868613779607331,0.0,0,False
2024-08-12,0.868613779607331,0.868613779607331,0.0,0,False
2024-08-13,0.868613779607331,0.868613779607331,0.0,0,False
2024-08-14,0.868613779607331,0.868613779607331,0.0,0,False
2024-08-15,0.868613779607331,0.868613779607331,0.0,0,False
2024-08-16,0.868613779607331,0.868613779607331,0.0,0,False
2024-08-17,0.868613779607331,0.868613779607331,0.0,0,False
2024-08-18,0.868613779607331,0.868613779607331,0.0,0,False
2024-08-19,0.868613779607331,0.868613779607331,0.0,0,False
2024-08-20,0.868613779607331,0.868613779607331,0.0,0,False
2024-08-21,0.868613779607331,0.868613779607331,0.0,0,False
2024-08-22,0.868613779607331,0.868613779607331,0.0,0,False
2024-08-23,0.868613779607331,0.868613779607331,0.0,0,False
2024-08-24,0.868613779607331,0.868613779607331,0.0,0,False
2024-08-25,0.868613779607331,0.868613779607331,0.0,0,False
2024-08-26,0.868613779607331,0.868613779607331,0.0,0,False
2024-08-27,0.868613779607331,0.868613779607331,0.0,0,False
2024-08-28,0.868613779607331,0.868613779607331,0.0,0,False
2024-08-29,0.868613779607331,0.868613779607331,0.0,0,False
2024-08-30,0.868613779607331,0.868613779607331,0.0,0,False
2024-08-31,0.868613779607331,0.868613779607331,0.0,0,False
2024-09-01,0.868613779607331,0.868613779607331,0.0,0,False
2024-09-02,0.868613779607331,0.868613779607331,0.0,0,False
2024-09-03,0.868613779607331,0.868613779607331,0.0,0,False
2024-09-04,0.868613779607331,0.868613779607331,0.0,0,False
2024-09-05,0.868613779607331,0.868613779607331,0.0,0,False
2024-09-06,0.868613779607331,0.868613779607331,0.0,0,False
2024-09-07,0.868613779607331,0.868613779607331,0.0,0,False
2024-09-08,0.868613779607331,0.868613779607331,0.0,0,False
2024-09-09,0.868613779607331,0.868613779607331,0.0,0,False
2024-09-10,0.868613779607331,0.868613779607331,0.0,0,False
2024-09-11,0.868613779607331,0.868613779607331,0.0,0,False
2024-09-12,0.868613779607331,0.868613779607331,0.0,0,False
2024-09-13,0.868613779607331,0.868613779607331,0.0,0,False
2024-09-14,0.868613779607331,0.868613779607331,0.0,0,False
2024-09-15,0.868613779607331,0.868613779607331,0.0,0,False
2024-09-16,0.868613779607331,0.868613779607331,0.0,0,False
2024-09-17,0.868613779607331,0.868613779607331,0.0,0,False
2024-09-18,0.868613779607331,0.868613779607331,0.0,0,False
2024-09-19,0.868613779607331,0.868613779607331,0.0,0,False
2024-09-20,0.868613779607331,0.868613779607331,0.0,0,False
2024-09-21,0.868613779607331,0.868613779607331,0.0,0,False
2024-09-22,0.868613779607331,0.868613779607331,0.0,0,False
2024-09-23,0.868613779607331,0.868613779607331,0.0,0,False
2024-09-24,0.868613779607331,0.868613779607331,0.0,0,False
2024-09-25,0.868613779607331,0.868613779607331,0.0,0,False
2024-09-26,0.868613779607331,0.868613779607331,0.0,0,False
2024-09-27,0.868613779607331,0.868613779607331,0.0,0,False
2024-09-28,0.868613779607331,0.868613779607331,0.0,0,False
2024-09-29,0.868613779607331,0.868613779607331,0.0,0,False
2024-09-30,0.868613779607331,0.868613779607331,0.0,0,False
2024-10-01,0.868613779607331,0.868613779607331,0.0,0,False
2024-10-02,0.868613779607331,0.868613779607331,0.0,0,False
2024-10-03,0.868613779607331,0.868613779607331,0.0,0,False
2024-10-04,0.868613779607331,0.868613779607331,0.0,0,False
2024-10-05,0.868613779607331,0.868613779607331,0.0,0,False
2024-10-06,0.868613779607331,0.868613779607331,0.0,0,False
2024-10-07,0.868613779607331,0.868613779607331,0.0,0,False
2024-10-08,0.868613779607331,0.868613779607331,0.0,0,False
2024-10-09,0.868613779607331,0.868613779607331,0.0,0,False
2024-10-10,0.868613779607331,0.868613779607331,0.0,0,False
2024-10-11,0.868613779607331,0.868613779607331,0.0,0,False
2024-10-12,0.868613779607331,0.868613779607331,0.0,0,False
2024-10-13,0.868613779607331,0.868613779607331,0.0,0,False
2024-10-14,0.868613779607331,0.868613779607331,0.0,0,False
2024-10-15,0.868613779607331,0.868613779607331,0.0,0,False
2024-10-16,0.868613779607331,0.868613779607331,0.0,0,False
2024-10-17,0.868613779607331,0.868613779607331,0.0,0,False
2024-10-18,0.868613779607331,0.868613779607331,0.0,0,False
2024-10-19,0.868613779607331,0.868613779607331,0.0,0,False
2024-10-20,0.868613779607331,0.868613779607331,0.0,0,False
2024-10-21,0.868613779607331,0.868613779607331,0.0,0,False
2024-10-22,0.868613779607331,0.868613779607331,0.0,0,False
2024-10-23,0.868613779607331,0.868613779607331,0.0,0,False
2024-10-24,0.868613779607331,0.868613779607331,0.0,0,False
2024-10-25,0.868613779607331,0.868613779607331,0.0,0,False
2024-10-26,0.868613779607331,0.868613779607331,0.0,0,False
2024-10-27,0.868613779607331,0.868613779607331,0.0,0,False
2024-10-28,0.868613779607331,0.868613779607331,0.0,0,False
2024-10-29,0.868613779607331,0.868613779607331,0.0,0,False
2024-10-30,0.868613779607331,0.868613779607331,0.0,0,False
2024-10-31,0.868613779607331,0.868613779607331,0.0,0,False
2024-11-01,0.868613779607331,0.868613779607331,0.0,0,False
2024-11-02,0.868613779607331,0.868613779607331,0.0,0,False
2024-11-03,0.868613779607331,0.868613779607331,0.0,0,False
2024-11-04,0.868613779607331,0.868613779607331,0.0,0,False
2024-11-05,0.868613779607331,0.868613779607331,0.0,0,False
2024-11-06,0.868613779607331,0.868613779607331,0.0,0,False
2024-11-07,0.868613779607331,0.868613779607331,0.0,0,False
2024-11-08,0.868613779607331,0.868613779607331,0.0,0,False
2024-11-09,0.868613779607331,0.868613779607331,0.0,0,False
2024-11-10,0.868613779607331,0.868613779607331,0.0,0,False
2024-11-11,0.868613779607331,0.868613779607331,0.0,0,False
2024-11-12,0.868613779607331,0.868613779607331,0.0,0,False
2024-11-13,0.868613779607331,0.868613779607331,0.0,0,False
2024-11-14,0.868613779607331,0.868613779607331,0.0,0,False
2024-11-15,0.868613779607331,0.868613779607331,0.0,0,False
2024-11-16,0.868613779607331,0.868613779607331,0.0,0,False
2024-11-17,0.868613779607331,0.868613779607331,0.0,0,False
2024-11-18,0.868613779607331,0.868613779607331,0.0,0,False
2024-11-19,0.868613779607331,0.868613779607331,0.0,0,False
2024-11-20,0.868613779607331,0.868613779607331,0.0,0,False
2024-11-21,0.868613779607331,0.868613779607331,0.0,0,False
2024-11-22,0.868613779607331,0.868613779607331,0.0,0,False
2024-11-23,0.868613779607331,0.868613779607331,0.0,0,False
2024-11-24,0.868613779607331,0.868613779607331,0.0,0,False
2024-11-25,0.868613779607331,0.868613779607331,0.0,0,False
2024-11-26,0.868613779607331,0.868613779607331,0.0,0,False
2024-11-27,0.868613779607331,0.868613779607331,0.0,0,False
2024-11-28,0.868613779607331,0.868613779607331,0.0,0,False
2024-11-29,0.868613779607331,0.868613779607331,0.0,0,False
2024-11-30,0.868613779607331,0.868613779607331,0.0,0,False
2024-12-01,0.868613779607331,0.868613779607331,0.0,0,False
2024-12-02,0.868613779607331,0.868613779607331,0.0,0,False
2024-12-03,0.868613779607331,0.868613779607331,0.0,0,False
2024-12-04,0.868613779607331,0.868613779607331,0.0,0,False
2024-12-05,0.868613779607331,0.868613779607331,0.0,0,False
2024-12-06,0.868613779607331,0.868613779607331,0.0,0,False
2024-12-07,0.868613779607331,0.868613779607331,0.0,0,False
2024-12-08,0.868613779607331,0.868613779607331,0.0,0,False
2024-12-09,0.868613779607331,0.868613779607331,0.0,0,False
2024-12-10,0.868613779607331,0.868613779607331,0.0,0,False
2024-12-11,0.868613779607331,0.868613779607331,0.0,0,False
2024-12-12,0.868613779607331,0.868613779607331,0.0,0,False
2024-12-13,0.868613779607331,0.868613779607331,0.0,0,False
2024-12-14,0.868613779607331,0.868613779607331,0.0,0,False
2024-12-15,0.868613779607331,0.868613779607331,0.0,0,False
2024-12-16,0.868613779607331,0.868613779607331,0.0,0,False
2024-12-17,0.868613779607331,0.868613779607331,0.0,0,False
2024-12-18,0.868613779607331,0.868613779607331,0.0,0,False
2024-12-19,0.868613779607331,0.868613779607331,0.0,0,False
2024-12-20,0.868613779607331,0.868613779607331,0.0,0,False
2024-12-21,0.868613779607331,0.868613779607331,0.0,0,False
2024-12-22,0.868613779607331,0.868613779607331,0.0,0,False
2024-12-23,0.868613779607331,0.868613779607331,0.0,0,False
2024-12-24,0.868613779607331,0.868613779607331,0.0,0,False
2024-12-25,0.868613779607331,0.868613779607331,0.0,0,False
2024-12-26,0.868613779607331,0.868613779607331,0.0,0,False
2024-12-27,0.868613779607331,0.868613779607331,0.0,0,False
2024-12-28,0.868613779607331,0.868613779607331,0.0,0,False
2024-12-29,0.868613779607331,0.868613779607331,0.0,0,False
2024-12-30,0.868613779607331,0.868613779607331,0.0,0,False
2024-12-31,0.868613779607331,0.868613779607331,0.0,0,False
