day,start_equity,end_equity,return_pct,entries,active
2021-09-02,1.0,1.0,0.0,0,False
2021-09-03,1.0,1.0,0.0,0,False
2021-09-04,1.0,1.0,0.0,0,False
2021-09-05,1.0,1.0,0.0,0,False
2021-09-06,1.0,1.0,0.0,0,False
2021-09-07,1.0,1.0,0.0,0,False
2021-09-08,1.0,1.0,0.0,0,False
2021-09-09,1.0,1.0,0.0,0,False
2021-09-10,1.0,1.0,0.0,0,False
2021-09-11,1.0,1.0,0.0,0,False
2021-09-12,1.0,1.0,0.0,0,False
2021-09-13,1.0,1.0,0.0,0,False
2021-09-14,1.0,1.0,0.0,0,False
2021-09-15,1.0,1.0,0.0,0,False
2021-09-16,1.0,1.0,0.0,0,False
2021-09-17,1.0,1.0,0.0,0,False
2021-09-18,1.0,1.0,0.0,0,False
2021-09-19,1.0,1.0,0.0,0,False
2021-09-20,1.0,1.0,0.0,0,False
2021-09-21,1.0,1.0,0.0,0,False
2021-09-22,1.0,1.0,0.0,0,False
2021-09-23,1.0,1.0,0.0,0,False
2021-09-24,1.0,1.0,0.0,0,False
2021-09-25,1.0,1.0,0.0,0,False
2021-09-26,1.0,1.0,0.0,0,False
2021-09-27,1.0,1.0,0.0,0,False
2021-09-28,1.0,1.0,0.0,0,False
2021-09-29,1.0,1.0,0.0,0,False
2021-09-30,1.0,1.0,0.0,0,False
2021-10-01,1.0,1.0,0.0,0,False
2021-10-02,1.0,1.0,0.0,0,False
2021-10-03,1.0,1.0,0.0,0,False
2021-10-04,1.0,1.0,0.0,0,False
2021-10-05,1.0,0.9993927768733932,-0.06072231266067707,1,True
2021-10-06,0.9993927768733932,1.001462836963209,0.2071317841912057,3,True
2021-10-07,1.001462836963209,0.9921245380864658,-0.9324658421734577,2,True
2021-10-08,0.9921245380864658,0.9915463266172426,-0.05828012986539566,1,True
2021-10-09,0.9915463266172426,0.9925648569534974,0.10272140684839393,3,True
2021-10-10,0.9925648569534974,0.9866416853011333,-0.5967541174633384,1,True
2021-10-11,0.9866416853011333,0.9866416853011333,0.0,0,False
2021-10-12,0.9866416853011333,0.9866416853011333,0.0,0,False
2021-10-13,0.9866416853011333,1.0008768443348255,1.442789134674305,4,True
2021-10-14,1.0008768443348255,1.0106902750496696,0.980483340222138,0,True
2021-10-15,1.0106902750496696,1.011103413213607,0.040876831818437154,4,True
2021-10-16,1.011103413213607,1.024957145279684,1.3701597566608381,2,True
2021-10-17,1.024957145279684,1.024957145279684,0.0,0,False
2021-10-18,1.024957145279684,1.0273204567103937,0.23057660913861078,1,True
2021-10-19,1.0273204567103937,1.0273204567103937,0.0,0,False
2021-10-20,1.0273204567103937,1.0273204567103937,0.0,0,False
2021-10-21,1.0273204567103937,1.0273204567103937,0.0,0,False
2021-10-22,1.0273204567103937,1.0273204567103937,0.0,0,False
2021-10-23,1.0273204567103937,1.0273204567103937,0.0,0,False
2021-10-24,1.0273204567103937,1.0273204567103937,0.0,0,False
2021-10-25,1.0273204567103937,1.03952867264258,1.1883551867815978,2,True
2021-10-26,1.03952867264258,1.04017203810824,0.061890112566542754,0,True
2021-10-27,1.04017203810824,1.0424934562998371,0.22317636953779196,7,True
2021-10-28,1.0424934562998371,1.0390270305390492,-0.332512951504893,3,True
2021-10-29,1.0390270305390492,1.0332907966550657,-0.5520774450889387,0,True
2021-10-30,1.0332907966550657,1.0347482474783547,0.14104943429351646,1,True
2021-10-31,1.0347482474783547,1.0290114892538613,-0.5544110114197975,1,True
2021-11-01,1.0290114892538613,1.038133544765469,0.8864872362331022,2,True
2021-11-02,1.038133544765469,1.034024924215004,-0.395769944163904,1,True
2021-11-03,1.034024924215004,1.0332065629867737,-0.07914327876105132,1,True
2021-11-04,1.0332065629867737,1.0551334530750904,2.1222174610400213,1,True
2021-11-05,1.0551334530750904,1.037793009463331,-1.643436056474401,3,True
2021-11-06,1.037793009463331,1.0305067232439094,-0.702094363035799,2,True
2021-11-07,1.0305067232439094,1.0305067232439094,0.0,0,False
2021-11-08,1.0305067232439094,1.0305067232439094,0.0,0,False
2021-11-09,1.0305067232439094,1.0305067232439094,0.0,0,False
2021-11-10,1.0305067232439094,1.0305067232439094,0.0,0,False
2021-11-11,1.0305067232439094,1.0112811316691857,-1.8656444583111442,13,True
2021-11-12,1.0112811316691857,1.0083244698201002,-0.29236794364049246,1,True
2021-11-13,1.0083244698201002,1.0074945791322212,-0.08230393218832122,1,True
2021-11-14,1.0074945791322212,1.0074945791322212,0.0,0,False
2021-11-15,1.0074945791322212,1.0074945791322212,0.0,0,False
2021-11-16,1.0074945791322212,1.0309849319063829,2.331561207445354,7,True
2021-11-17,1.0309849319063829,1.0203481901411018,-1.031706811234645,0,True
2021-11-18,1.0203481901411018,1.0093007136232408,-1.0827163339539259,4,True
2021-11-19,1.0093007136232408,1.0242186594246987,1.4780476819346244,5,True
2021-11-20,1.0242186594246987,1.0233155071972821,-0.08817963030705034,0,True
2021-11-21,1.0233155071972821,1.0208164375442035,-0.24421301499898407,1,True
2021-11-22,1.0208164375442035,1.008222220736598,-1.2337396170758685,5,True
2021-11-23,1.008222220736598,1.005830533956642,-0.23721821744899785,0,True
2021-11-24,1.005830533956642,1.0013269631489234,-0.44774647971789205,2,True
2021-11-25,1.0013269631489234,0.9950874780479643,-0.6231216506282333,5,True
2021-11-26,0.9950874780479643,0.9668668869116742,-2.835990981581804,11,True
2021-11-27,0.9668668869116742,0.9674798994093403,0.06340195387435354,0,True
2021-11-28,0.9674798994093403,0.9605725616248248,-0.7139515548315267,7,True
2021-11-29,0.9605725616248248,0.9526886463466573,-0.8207516634487044,1,True
2021-11-30,0.9526886463466573,0.9435917103780292,-0.9548697786535776,3,True
2021-12-01,0.9435917103780292,0.9459767897374837,0.25276603569344136,3,True
2021-12-02,0.9459767897374837,0.9446407873371566,-0.14122993447839294,5,True
2021-12-03,0.9446407873371566,0.9389206302407113,-0.6055378058118621,2,True
2021-12-04,0.9389206302407113,0.8674698805469279,-7.609881750650804,21,True
2021-12-05,0.8674698805469279,0.872793254020988,0.6136666636429755,3,True
2021-12-06,0.872793254020988,0.8662845778865153,-0.7457294272712356,15,True
2021-12-07,0.8662845778865153,0.8909701329255556,2.8495895770493718,0,True
2021-12-08,0.8909701329255556,0.8935385642895306,0.2882735648546797,2,True
2021-12-09,0.8935385642895306,0.8890050071070194,-0.5073711828113336,2,True
2021-12-10,0.8890050071070194,0.8756612635732567,-1.5009750706788005,4,True
2021-12-11,0.8756612635732567,0.8692700875593986,-0.7298685324708787,2,True
2021-12-12,0.8692700875593986,0.8692700875593986,0.0,0,False
2021-12-13,0.8692700875593986,0.8637038037201316,-0.6403399724584147,2,True
2021-12-14,0.8637038037201316,0.8623357219328693,-0.1583971011091534,1,True
2021-12-15,0.8623357219328693,0.8624189497972145,0.009651445745340048,1,True
2021-12-16,0.8624189497972145,0.8624189497972145,0.0,0,False
2021-12-17,0.8624189497972145,0.8582801066548693,-0.479910969409747,5,True
2021-12-18,0.8582801066548693,0.8577979536588711,-0.0561766481897541,1,True
2021-12-19,0.8577979536588711,0.8532516173499574,-0.5300008340567541,1,True
2021-12-20,0.8532516173499574,0.8532516173499574,0.0,0,False
2021-12-21,0.8532516173499574,0.8502543572687333,-0.3512750541901033,1,True
2021-12-22,0.8502543572687333,0.8497682310988702,-0.05717420507255211,0,True
2021-12-23,0.8497682310988702,0.8497682310988702,0.0,0,False
2021-12-24,0.8497682310988702,0.8497682310988702,0.0,0,False
2021-12-25,0.8497682310988702,0.8530957176630362,0.39157577824049383,2,True
2021-12-26,0.8530957176630362,0.851923672837366,-0.13738725929616225,0,True
2021-12-27,0.851923672837366,0.851923672837366,0.0,0,False
2021-12-28,0.851923672837366,0.849287747269784,-0.30940865380615357,1,True
2021-12-29,0.849287747269784,0.849287747269784,0.0,0,False
2021-12-30,0.849287747269784,0.849287747269784,0.0,0,False
2021-12-31,0.849287747269784,0.849287747269784,0.0,0,False
2022-01-01,0.849287747269784,0.849287747269784,0.0,0,False
2022-01-02,0.849287747269784,0.849287747269784,0.0,0,False
2022-01-03,0.849287747269784,0.849287747269784,0.0,0,False
2022-01-04,0.849287747269784,0.849287747269784,0.0,0,False
2022-01-05,0.849287747269784,0.8492944792584581,0.0007926628749599374,1,True
2022-01-06,0.8492944792584581,0.8263494398083154,-2.7016588486689086,8,True
2022-01-07,0.8263494398083154,0.8181312370312698,-0.9945190716111552,5,True
2022-01-08,0.8181312370312698,0.8181312370312698,0.0,0,False
2022-01-09,0.8181312370312698,0.8186832408050834,0.06747129908113436,1,True
2022-01-10,0.8186832408050834,0.8178749948895196,-0.09872510823220049,0,True
2022-01-11,0.8178749948895196,0.8178749948895196,0.0,0,False
2022-01-12,0.8178749948895196,0.8178749948895196,0.0,0,False
2022-01-13,0.8178749948895196,0.8178749948895196,0.0,0,False
2022-01-14,0.8178749948895196,0.8178749948895196,0.0,0,False
2022-01-15,0.8178749948895196,0.8182490631500243,0.04573660557445347,1,True
2022-01-16,0.8182490631500243,0.8174654178233972,-0.09577100199911204,0,True
2022-01-17,0.8174654178233972,0.8197275592221067,0.27672625035719545,1,True
2022-01-18,0.8197275592221067,0.8197275592221067,0.0,0,False
2022-01-19,0.8197275592221067,0.8175214998493054,-0.2691210449109138,1,True
2022-01-20,0.8175214998493054,0.8175214998493054,0.0,0,False
2022-01-21,0.8175214998493054,0.7925723314627767,-3.051805780169403,8,True
2022-01-22,0.7925723314627767,0.7643177446316878,-3.564922179271901,17,True
2022-01-23,0.7643177446316878,0.7657717221420249,0.19023207567132605,0,True
2022-01-24,0.7657717221420249,0.755375869731822,-1.357565461038901,5,True
2022-01-25,0.755375869731822,0.7617795152027593,0.8477429221045663,0,True
2022-01-26,0.7617795152027593,0.7625024952372695,0.09490673089544988,1,True
2022-01-27,0.7625024952372695,0.7562052288913109,-0.8258682935849415,8,True
2022-01-28,0.7562052288913109,0.7515783320598312,-0.6118572914740827,0,True
2022-01-29,0.7515783320598312,0.7515783320598312,0.0,0,False
2022-01-30,0.7515783320598312,0.7583093924414775,0.8955899996742511,1,True
2022-01-31,0.7583093924414775,0.7568977572792492,-0.18615556872945138,0,True
2022-02-01,0.7568977572792492,0.7568977572792492,0.0,0,False
2022-02-02,0.7568977572792492,0.7575339132473006,0.08404780724124983,1,True
2022-02-03,0.7575339132473006,0.7576835351021234,0.01975117578318919,4,True
2022-02-04,0.7576835351021234,0.7621084394684224,0.5840042922013122,0,True
2022-02-05,0.7621084394684224,0.7621084394684224,0.0,0,False
2022-02-06,0.7621084394684224,0.7621084394684224,0.0,0,False
2022-02-07,0.7621084394684224,0.7621084394684224,0.0,0,False
2022-02-08,0.7621084394684224,0.757832133208229,-0.5611151955194571,3,True
2022-02-09,0.757832133208229,0.7561170918598944,-0.22630887147448986,2,True
2022-02-10,0.7561170918598944,0.7619309686146108,0.768912225012075,5,True
2022-02-11,0.7619309686146108,0.7565104669488086,-0.7114163735407852,0,True
2022-02-12,0.7565104669488086,0.7378816686277683,-2.462464055014979,5,True
2022-02-13,0.7378816686277683,0.7378816686277683,0.0,0,False
2022-02-14,0.7378816686277683,0.7378816686277683,0.0,0,False
2022-02-15,0.7378816686277683,0.7378816686277683,0.0,0,False
2022-02-16,0.7378816686277683,0.7378816686277683,0.0,0,False
2022-02-17,0.7378816686277683,0.7378816686277683,0.0,0,False
2022-02-18,0.7378816686277683,0.7378816686277683,0.0,0,False
2022-02-19,0.7378816686277683,0.7378816686277683,0.0,0,False
2022-02-20,0.7378816686277683,0.7378816686277683,0.0,0,False
2022-02-21,0.7378816686277683,0.7378816686277683,0.0,0,False
2022-02-22,0.7378816686277683,0.7325400694544392,-0.723909998098049,2,True
2022-02-23,0.7325400694544392,0.7325400694544392,0.0,0,False
2022-02-24,0.7325400694544392,0.7166426575703235,-2.170176424063097,9,True
2022-02-25,0.7166426575703235,0.7324681453117173,2.20828157160613,0,True
2022-02-26,0.7324681453117173,0.7324681453117173,0.0,0,False
2022-02-27,0.7324681453117173,0.7324681453117173,0.0,0,False
2022-02-28,0.7324681453117173,0.7292194243584553,-0.44353068103452076,2,True
2022-03-01,0.7292194243584553,0.7292194243584553,0.0,0,False
2022-03-02,0.7292194243584553,0.7292194243584553,0.0,0,False
2022-03-03,0.7292194243584553,0.7292194243584553,0.0,0,False
2022-03-04,0.7292194243584553,0.7339380147262294,0.647074146704929,3,True
2022-03-05,0.7339380147262294,0.727903965212127,-0.8221470196435154,3,True
2022-03-06,0.727903965212127,0.7229295342823214,-0.6833911020605377,4,True
2022-03-07,0.7229295342823214,0.7208856966100456,-0.28271602906703164,0,True
2022-03-08,0.7208856966100456,0.7172939348831245,-0.4982428897967184,1,True
2022-03-09,0.7172939348831245,0.7257427307518022,1.1778708082976097,2,True
2022-03-10,0.7257427307518022,0.7221804901678615,-0.4908406840328339,3,True
2022-03-11,0.7221804901678615,0.7211602283344056,-0.1412751863760109,1,True
2022-03-12,0.7211602283344056,0.7211602283344056,0.0,0,False
2022-03-13,0.7211602283344056,0.7211602283344056,0.0,0,False
2022-03-14,0.7211602283344056,0.7181208660689247,-0.42145450429244,1,True
2022-03-15,0.7181208660689247,0.718885689423899,0.1065034301483303,1,True
2022-03-16,0.718885689423899,0.7201074271845097,0.16994882198724248,1,True
2022-03-17,0.7201074271845097,0.7167954609794649,-0.4599266831608717,1,True
2022-03-18,0.7167954609794649,0.715892885885764,-0.12591808163342488,0,True
2022-03-19,0.715892885885764,0.715892885885764,0.0,0,False
2022-03-20,0.715892885885764,0.7128353138744107,-0.4270990914472139,1,True
2022-03-21,0.7128353138744107,0.7136035153990818,0.10776704095871725,4,True
2022-03-22,0.7136035153990818,0.7129690248618469,-0.08891359467030346,0,True
2022-03-23,0.7129690248618469,0.7123014447717019,-0.09363381393383552,2,True
2022-03-24,0.7123014447717019,0.7117749489387,-0.07391475011968573,0,True
2022-03-25,0.7117749489387,0.7117749489387,0.0,0,False
2022-03-26,0.7117749489387,0.7126686256831044,0.1255560828232305,1,True
2022-03-27,0.7126686256831044,0.7113328746618354,-0.1874294690591527,1,True
2022-03-28,0.7113328746618354,0.7103582739264389,-0.13701050100626277,1,True
2022-03-29,0.7103582739264389,0.7141378196950932,0.5320619055738218,1,True
2022-03-30,0.7141378196950932,0.7123642215395318,-0.24835516431808147,6,True
2022-03-31,0.7123642215395318,0.7141280541718118,0.24760264187160264,6,True
2022-04-01,0.7141280541718118,0.7239556008637303,1.376160288691608,7,True
2022-04-02,0.7239556008637303,0.7268824849879134,0.4042905560356358,2,True
2022-04-03,0.7268824849879134,0.7222638690062692,-0.6354006427491621,2,True
2022-04-04,0.7222638690062692,0.7222638690062692,0.0,0,False
2022-04-05,0.7222638690062692,0.7194813198521463,-0.3852538211486789,6,True
2022-04-06,0.7194813198521463,0.6987282506449003,-2.884448648577942,15,True
2022-04-07,0.6987282506449003,0.6989021816666425,0.0248925131596911,2,True
2022-04-08,0.6989021816666425,0.702894076534081,0.571166462511119,0,True
2022-04-09,0.702894076534081,0.702894076534081,0.0,0,False
2022-04-10,0.702894076534081,0.702894076534081,0.0,0,False
2022-04-11,0.702894076534081,0.6947509776428986,-1.1585101031631129,6,True
2022-04-12,0.6947509776428986,0.69227475419213,-0.3564188508477839,0,True
2022-04-13,0.69227475419213,0.6928104378456723,0.07738020927361422,1,True
2022-04-14,0.6928104378456723,0.6928104378456723,0.0,0,False
2022-04-15,0.6928104378456723,0.6940539723199678,0.179491301857726,1,True
2022-04-16,0.6940539723199678,0.6940539723199678,0.0,0,False
2022-04-17,0.6940539723199678,0.695154276703394,0.15853297111005915,1,True
2022-04-18,0.695154276703394,0.6931062309601173,-0.29461744132384116,8,True
2022-04-19,0.6931062309601173,0.7008450613904594,1.1165431913116697,1,True
2022-04-20,0.7008450613904594,0.7008450613904594,0.0,0,False
2022-04-21,0.7008450613904594,0.7006777207327876,-0.023876983215076475,3,True
2022-04-22,0.7006777207327876,0.6975707481947382,-0.4434239088977998,1,True
2022-04-23,0.6975707481947382,0.6910172603105678,-0.93947286366729,2,True
2022-04-24,0.6910172603105678,0.6910172603105678,0.0,0,False
2022-04-25,0.6910172603105678,0.6887809988145532,-0.3236187609857222,3,True
2022-04-26,0.6887809988145532,0.6846039577462436,-0.6064396485237933,2,True
2022-04-27,0.6846039577462436,0.6819855244930191,-0.38247416241129484,0,True
2022-04-28,0.6819855244930191,0.683493894790719,0.2211733597749399,1,True
2022-04-29,0.683493894790719,0.6778467072464827,-0.8262235533157858,2,True
2022-04-30,0.6778467072464827,0.6742657683014472,-0.5282815283682241,2,True
2022-05-01,0.6742657683014472,0.6827063347129951,1.2518159468202894,7,True
2022-05-02,0.6827063347129951,0.6869934149339392,0.6279537779221522,1,True
2022-05-03,0.6869934149339392,0.6874212981225726,0.06228344833181243,3,True
2022-05-04,0.6874212981225726,0.6832717395693353,-0.6036412553073633,1,True
2022-05-05,0.6832717395693353,0.6832717395693353,0.0,0,False
2022-05-06,0.6832717395693353,0.6663718931375738,-2.4733712010997833,8,True
2022-05-07,0.6663718931375738,0.659422379742085,-1.0428881330464712,2,True
2022-05-08,0.659422379742085,0.6530901056358976,-0.9602758870064454,3,True
2022-05-09,0.6530901056358976,0.6452515185963115,-1.2002305611342745,5,True
2022-05-10,0.6452515185963115,0.6406615596826555,-0.711344147417281,17,True
2022-05-11,0.6406615596826555,0.6224589395558805,-2.8412224600757097,29,True
2022-05-12,0.6224589395558805,0.6094910782756418,-2.0833279845721586,1,True
2022-05-13,0.6094910782756418,0.6476920554053667,6.267684383141803,6,True
2022-05-14,0.6476920554053667,0.6188879439800179,-4.44719233236871,11,True
2022-05-15,0.6188879439800179,0.6252023159597779,1.0202771020473955,2,True
2022-05-16,0.6252023159597779,0.6271271643505595,0.30787608133322486,11,True
2022-05-17,0.6271271643505595,0.6251016083441672,-0.32298967761824615,4,True
2022-05-18,0.6251016083441672,0.6144263266392267,-1.707767435316354,2,True
2022-05-19,0.6144263266392267,0.6127860626696346,-0.2669586081319064,7,True
2022-05-20,0.6127860626696346,0.6143437281122651,0.2541940062808168,1,True
2022-05-21,0.6143437281122651,0.6143437281122651,0.0,0,False
2022-05-22,0.6143437281122651,0.6143437281122651,0.0,0,False
2022-05-23,0.6143437281122651,0.615195630825021,0.1386687409300258,4,True
2022-05-24,0.615195630825021,0.5984375659005373,-2.7240220971676887,14,True
2022-05-25,0.5984375659005373,0.596316056626502,-0.35450803808461107,1,True
2022-05-26,0.596316056626502,0.5859225820182146,-1.7429472999747397,13,True
2022-05-27,0.5859225820182146,0.5780238250472025,-1.348088845424722,4,True
2022-05-28,0.5780238250472025,0.5775633608276314,-0.07966180624708885,0,True
2022-05-29,0.5775633608276314,0.5807154587823282,0.5457579494273945,4,True
2022-05-30,0.5807154587823282,0.5791731037415013,-0.26559565747757974,0,True
2022-05-31,0.5791731037415013,0.5770370738688804,-0.3688068142014944,6,True
2022-06-01,0.5770370738688804,0.5739042795444336,-0.5429104066818846,2,True
2022-06-02,0.5739042795444336,0.5676788243370007,-1.0847549720965133,7,True
2022-06-03,0.5676788243370007,0.571650295264557,0.6995982159797354,0,True
2022-06-04,0.571650295264557,0.571650295264557,0.0,0,False
2022-06-05,0.571650295264557,0.571650295264557,0.0,0,False
2022-06-06,0.571650295264557,0.5731192510466242,0.2569675541560512,1,True
2022-06-07,0.5731192510466242,0.5682072385983349,-0.8570663852800364,5,True
2022-06-08,0.5682072385983349,0.5690544639009453,0.14910498231250902,5,True
2022-06-09,0.5690544639009453,0.569952772809179,0.15785991767389707,5,True
2022-06-10,0.569952772809179,0.5710811356023544,0.19797478791339085,5,True
2022-06-11,0.5710811356023544,0.5666008619294488,-0.7845248938541771,8,True
2022-06-12,0.5666008619294488,0.5516911124988146,-2.6314378308324393,15,True
2022-06-13,0.5516911124988146,0.5384048202598025,-2.4082846248571155,7,True
2022-06-14,0.5384048202598025,0.5375347268807291,-0.16160579295213529,10,True
2022-06-15,0.5375347268807291,0.5337504990850295,-0.7039968966580434,8,True
2022-06-16,0.5337504990850295,0.5284669666406208,-0.9898880569602975,6,True
2022-06-17,0.5284669666406208,0.5266980400036197,-0.33472794870146316,1,True
2022-06-18,0.5266980400036197,0.5217984477012431,-0.9302469214320652,5,True
2022-06-19,0.5217984477012431,0.5234166549271092,0.3101211268440984,3,True
2022-06-20,0.5234166549271092,0.5262760620231596,0.5462965438974399,1,True
2022-06-21,0.5262760620231596,0.5251915304928023,-0.2060765458698599,0,True
2022-06-22,0.5251915304928023,0.5255319268122476,0.06481374882909563,5,True
2022-06-23,0.5255319268122476,0.5206510485590986,-0.9287500918840896,1,True
2022-06-24,0.5206510485590986,0.5168812083085546,-0.7240627404817679,2,True
2022-06-25,0.5168812083085546,0.5169137236460006,0.006290678965181762,4,True
2022-06-26,0.5169137236460006,0.516573305055802,-0.0658559784014856,0,True
2022-06-27,0.516573305055802,0.5138827692439043,-0.5208429830896977,5,True
2022-06-28,0.5138827692439043,0.5104524309847894,-0.6675332321731786,3,True
2022-06-29,0.5104524309847894,0.5118928025481777,0.28217547335593895,5,True
2022-06-30,0.5118928025481777,0.5061157738144447,-1.1285622116535388,3,True
2022-07-01,0.5061157738144447,0.5063732735784715,0.05087764052207344,1,True
2022-07-02,0.5063732735784715,0.5081274886687087,0.34642726655780276,1,True
2022-07-03,0.5081274886687087,0.5092025814104252,0.21157933111102256,1,True
2022-07-04,0.5092025814104252,0.5095576950713779,0.06973917138619612,0,True
2022-07-05,0.5095576950713779,0.5097559185561821,0.0389010874963569,1,True
2022-07-06,0.5097559185561821,0.5114983887591339,0.34182441822101506,0,True
2022-07-07,0.5114983887591339,0.5114983887591339,0.0,0,False
2022-07-08,0.5114983887591339,0.5114983887591339,0.0,0,False
2022-07-09,0.5114983887591339,0.5114983887591339,0.0,0,False
2022-07-10,0.5114983887591339,0.5114983887591339,0.0,0,False
2022-07-11,0.5114983887591339,0.5089473592179896,-0.49873657419193806,1,True
2022-07-12,0.5089473592179896,0.5100748990802936,0.22154351366248104,2,True
2022-07-13,0.5100748990802936,0.512404909487922,0.45679770006905596,5,True
2022-07-14,0.512404909487922,0.5168762609956419,0.8726207389754492,0,True
2022-07-15,0.5168762609956419,0.5168762609956419,0.0,0,False
2022-07-16,0.5168762609956419,0.5168762609956419,0.0,0,False
2022-07-17,0.5168762609956419,0.5168762609956419,0.0,0,False
2022-07-18,0.5168762609956419,0.517638940497505,0.14755552913070513,1,True
2022-07-19,0.517638940497505,0.51698652100389,-0.12603756065724392,0,True
2022-07-20,0.51698652100389,0.5178125500240317,0.15977767051600367,2,True
2022-07-21,0.5178125500240317,0.5120297782181235,-1.1167693416545998,7,True
2022-07-22,0.5120297782181235,0.5120297782181235,0.0,0,False
2022-07-23,0.5120297782181235,0.5144955431193022,0.4815666990618528,2,True
2022-07-24,0.5144955431193022,0.5150475109377628,0.10728330416898135,3,True
2022-07-25,0.5150475109377628,0.5153296635346588,0.05478185815950276,1,True
2022-07-26,0.5153296635346588,0.5133766183681292,-0.37898947115397874,1,True
2022-07-27,0.5133766183681292,0.5137318582316608,0.06919673604550702,1,True
2022-07-28,0.5137318582316608,0.5137318582316608,0.0,0,False
2022-07-29,0.5137318582316608,0.5156165814666871,0.36686905918463797,2,True
2022-07-30,0.5156165814666871,0.5155884007671439,-0.005465437023588482,1,True
2022-07-31,0.5155884007671439,0.5148681008529225,-0.13970444508636382,1,True
2022-08-01,0.5148681008529225,0.5150743139310466,0.04005163221076913,1,True
2022-08-02,0.5150743139310466,0.5116149640845833,-0.6716215025481698,5,True
2022-08-03,0.5116149640845833,0.5128695872554218,0.2452280052213318,1,True
2022-08-04,0.5128695872554218,0.5117238250342915,-0.22340225460857344,0,True
2022-08-05,0.5117238250342915,0.5143292474884595,0.5091462086983078,2,True
2022-08-06,0.5143292474884595,0.5143292474884595,0.0,0,False
2022-08-07,0.5143292474884595,0.513980226300204,-0.06785948688702303,2,True
2022-08-08,0.513980226300204,0.5133778364632062,-0.11720097509081429,0,True
2022-08-09,0.5133778364632062,0.5127709939363646,-0.11820582887300812,6,True
2022-08-10,0.5127709939363646,0.5142887441289818,0.2959898688820184,2,True
2022-08-11,0.5142887441289818,0.5150989475752394,0.1575386308774407,1,True
2022-08-12,0.5150989475752394,0.5140470985071989,-0.20420330365495953,4,True
2022-08-13,0.5140470985071989,0.5128466795597436,-0.2335231442685548,0,True
2022-08-14,0.5128466795597436,0.5128466795597436,0.0,0,False
2022-08-15,0.5128466795597436,0.5128466795597436,0.0,0,False
2022-08-16,0.5128466795597436,0.5098755440412733,-0.5793418651010573,2,True
2022-08-17,0.5098755440412733,0.5078070013869644,-0.40569560130568894,1,True
2022-08-18,0.5078070013869644,0.5056854463360999,-0.4177876722987195,1,True
2022-08-19,0.5056854463360999,0.49287029751499256,-2.5342134945663175,12,True
2022-08-20,0.49287029751499256,0.49128649874321967,-0.3213418986208416,1,True
2022-08-21,0.49128649874321967,0.49128649874321967,0.0,0,False
2022-08-22,0.49128649874321967,0.49128649874321967,0.0,0,False
2022-08-23,0.49128649874321967,0.49128649874321967,0.0,0,False
2022-08-24,0.49128649874321967,0.49128649874321967,0.0,0,False
2022-08-25,0.49128649874321967,0.4900874575468831,-0.24406149963491774,1,True
2022-08-26,0.4900874575468831,0.4897963547227648,-0.059398137951827135,1,True
2022-08-27,0.4897963547227648,0.48349482661849097,-1.2865608417687358,6,True
2022-08-28,0.48349482661849097,0.4831786852750931,-0.06538670653601919,0,True
2022-08-29,0.4831786852750931,0.48436351236990555,0.24521509969710475,2,True
2022-08-30,0.48436351236990555,0.48513428980461804,0.1591320186240308,1,True
2022-08-31,0.48513428980461804,0.4836494222713463,-0.30607350675413425,2,True
2022-09-01,0.4836494222713463,0.48038482643280345,-0.6749921923221658,1,True
2022-09-02,0.48038482643280345,0.48038482643280345,0.0,0,False
2022-09-03,0.48038482643280345,0.48038482643280345,0.0,0,False
2022-09-04,0.48038482643280345,0.48038482643280345,0.0,0,False
2022-09-05,0.48038482643280345,0.48038482643280345,0.0,0,False
2022-09-06,0.48038482643280345,0.4786217082711338,-0.367022034139175,1,True
2022-09-07,0.4786217082711338,0.4740830057720346,-0.948285967950302,5,True
2022-09-08,0.4740830057720346,0.4739225401113819,-0.03384758759521489,0,True
2022-09-09,0.4739225401113819,0.4739225401113819,0.0,0,False
2022-09-10,0.4739225401113819,0.474770040959576,0.17882687073607073,1,True
2022-09-11,0.474770040959576,0.47735916571195064,0.5453429089884665,0,True
2022-09-12,0.47735916571195064,0.47735916571195064,0.0,0,False
2022-09-13,0.47735916571195064,0.4732039355433882,-0.8704620057656598,4,True
2022-09-14,0.4732039355433882,0.4754603898069659,0.47684604756861315,2,True
2022-09-15,0.4754603898069659,0.47195750570661427,-0.7367352097981894,3,True
2022-09-16,0.47195750570661427,0.4692626148574183,-0.5710028586495608,3,True
2022-09-17,0.4692626148574183,0.4687311669684206,-0.11325170004417018,1,True
2022-09-18,0.4687311669684206,0.46861469447230947,-0.0248484641771185,0,True
2022-09-19,0.46861469447230947,0.4686700512229785,0.011812849943027004,11,True
2022-09-20,0.4686700512229785,0.46788380373301486,-0.16776141080744322,0,True
2022-09-21,0.46788380373301486,0.46788380373301486,0.0,0,False
2022-09-22,0.46788380373301486,0.4688565004209188,0.20789278879569384,2,True
2022-09-23,0.4688565004209188,0.4659979097114725,-0.6096941616208773,2,True
2022-09-24,0.4659979097114725,0.4659979097114725,0.0,0,False
2022-09-25,0.4659979097114725,0.4659979097114725,0.0,0,False
2022-09-26,0.4659979097114725,0.4659979097114725,0.0,0,False
2022-09-27,0.4659979097114725,0.4659979097114725,0.0,0,False
2022-09-28,0.4659979097114725,0.4659979097114725,0.0,0,False
2022-09-29,0.4659979097114725,0.4659979097114725,0.0,0,False
2022-09-30,0.4659979097114725,0.464863471104129,-0.24344285321921122,1,True
2022-10-01,0.464863471104129,0.46489926787044855,0.007700490261042248,0,True
2022-10-02,0.46489926787044855,0.46489926787044855,0.0,0,False
2022-10-03,0.46489926787044855,0.46489926787044855,0.0,0,False
2022-10-04,0.46489926787044855,0.46489926787044855,0.0,0,False
2022-10-05,0.46489926787044855,0.46489926787044855,0.0,0,False
2022-10-06,0.46489926787044855,0.46489926787044855,0.0,0,False
2022-10-07,0.46489926787044855,0.46489926787044855,0.0,0,False
2022-10-08,0.46489926787044855,0.46359486095550206,-0.28057839732068546,1,True
2022-10-09,0.46359486095550206,0.46359486095550206,0.0,0,False
2022-10-10,0.46359486095550206,0.46359486095550206,0.0,0,False
2022-10-11,0.46359486095550206,0.4737868451274955,2.1984678930622836,6,True
2022-10-12,0.4737868451274955,0.4718997071673782,-0.3983094886497951,2,True
2022-10-13,0.4718997071673782,0.46989690875184253,-0.42441187928631274,1,True
2022-10-14,0.46989690875184253,0.46989690875184253,0.0,0,False
2022-10-15,0.46989690875184253,0.46989690875184253,0.0,0,False
2022-10-16,0.46989690875184253,0.46989690875184253,0.0,0,False
2022-10-17,0.46989690875184253,0.46989690875184253,0.0,0,False
2022-10-18,0.46989690875184253,0.46989690875184253,0.0,0,False
2022-10-19,0.46989690875184253,0.46989690875184253,0.0,0,False
2022-10-20,0.46989690875184253,0.47191123046567063,0.428673114530298,2,True
2022-10-21,0.47191123046567063,0.47125210417583485,-0.13967166858592783,0,True
2022-10-22,0.47125210417583485,0.47125210417583485,0.0,0,False
2022-10-23,0.47125210417583485,0.47125210417583485,0.0,0,False
2022-10-24,0.47125210417583485,0.47125210417583485,0.0,0,False
2022-10-25,0.47125210417583485,0.46979734471822904,-0.3087008937923019,2,True
2022-10-26,0.46979734471822904,0.46908610649531995,-0.15139255913326766,0,True
2022-10-27,0.46908610649531995,0.46908610649531995,0.0,0,False
2022-10-28,0.46908610649531995,0.46718000222010114,-0.406344218859922,1,True
2022-10-29,0.46718000222010114,0.46718000222010114,0.0,0,False
2022-10-30,0.46718000222010114,0.46484088163042525,-0.5006893656749223,2,True
2022-10-31,0.46484088163042525,0.46401063346399724,-0.17860911103944055,1,True
2022-11-01,0.46401063346399724,0.46401063346399724,0.0,0,False
2022-11-02,0.46401063346399724,0.46758409158159536,0.7701241867930975,3,True
2022-11-03,0.46758409158159536,0.46615206518423447,-0.30626071826290735,3,True
2022-11-04,0.46615206518423447,0.46855579316732177,0.5156531875788906,4,True
2022-11-05,0.46855579316732177,0.468372634548874,-0.039090033912425604,2,True
2022-11-06,0.468372634548874,0.46689177871830145,-0.3161704423655931,2,True
2022-11-07,0.46689177871830145,0.4599381382711473,-1.489347374297978,8,True
2022-11-08,0.4599381382711473,0.44539418821533056,-3.162153525794953,13,True
2022-11-09,0.44539418821533056,0.41763686890846513,-6.232079367287535,19,True
2022-11-10,0.41763686890846513,0.42315994299073423,1.3224584545670437,13,True
2022-11-11,0.42315994299073423,0.4210397277139439,-0.5010434734926683,18,True
2022-11-12,0.4210397277139439,0.415128746479603,-1.4039010680618746,6,True
2022-11-13,0.415128746479603,0.41393690644231884,-0.28710130228062347,1,True
2022-11-14,0.41393690644231884,0.41483602375966105,0.21721119894089203,6,True
2022-11-15,0.41483602375966105,0.4110979856628016,-0.90108811259485,1,True
2022-11-16,0.4110979856628016,0.4097328670612,-0.33206647787403787,2,True
2022-11-17,0.4097328670612,0.4106022792965544,0.2121900157998624,1,True
2022-11-18,0.4106022792965544,0.4113612163645664,0.1848350840409907,0,True
2022-11-19,0.4113612163645664,0.4114716934261531,0.026856460257240755,3,True
2022-11-20,0.4114716934261531,0.40897015903892986,-0.607948110936618,3,True
2022-11-21,0.40897015903892986,0.4019050894431843,-1.727526920875666,7,True
2022-11-22,0.4019050894431843,0.39637176552120107,-1.3767737874753827,4,True
2022-11-23,0.39637176552120107,0.40084131840245857,1.127616361720496,1,True
2022-11-24,0.40084131840245857,0.39848112749876125,-0.5888092857053273,2,True
2022-11-25,0.39848112749876125,0.39760317349713603,-0.2203251148018115,2,True
2022-11-26,0.39760317349713603,0.39760317349713603,0.0,0,False
2022-11-27,0.39760317349713603,0.39760317349713603,0.0,0,False
2022-11-28,0.39760317349713603,0.3928071124778477,-1.2062431436611454,5,True
2022-11-29,0.3928071124778477,0.3922662762314788,-0.13768494235180118,0,True
2022-11-30,0.3922662762314788,0.3922662762314788,0.0,0,False
2022-12-01,0.3922662762314788,0.39243051290269104,0.041868669616484944,1,True
2022-12-02,0.39243051290269104,0.39304851572082905,0.15748082725954848,1,True
2022-12-03,0.39304851572082905,0.3929541354841129,-0.024012363090364364,0,True
2022-12-04,0.3929541354841129,0.3929541354841129,0.0,0,False
2022-12-05,0.3929541354841129,0.3929541354841129,0.0,0,False
2022-12-06,0.3929541354841129,0.3934640365690546,0.12976096671268866,2,True
2022-12-07,0.3934640365690546,0.39274571509998846,-0.1825634371389495,1,True
2022-12-08,0.39274571509998846,0.38968840360846846,-0.7784455371439569,2,True
2022-12-09,0.38968840360846846,0.3903890754895188,0.17980311309298003,0,True
2022-12-10,0.3903890754895188,0.3903890754895188,0.0,0,False
2022-12-11,0.3903890754895188,0.3903890754895188,0.0,0,False
2022-12-12,0.3903890754895188,0.38969513493807867,-0.1777561399662564,1,True
2022-12-13,0.38969513493807867,0.38996084643649676,0.06818445358840464,1,True
2022-12-14,0.38996084643649676,0.38996084643649676,0.0,0,False
2022-12-15,0.38996084643649676,0.38996084643649676,0.0,0,False
2022-12-16,0.38996084643649676,0.38836273430867513,-0.40981348318051003,5,True
2022-12-17,0.38836273430867513,0.38628360374223286,-0.5353578968237849,5,True
2022-12-18,0.38628360374223286,0.38535342004488216,-0.24080330833079477,0,True
2022-12-19,0.38535342004488216,0.38343189148496715,-0.49864058808436473,1,True
2022-12-20,0.38343189148496715,0.38343189148496715,0.0,0,False
2022-12-21,0.38343189148496715,0.38343189148496715,0.0,0,False
2022-12-22,0.38343189148496715,0.38343189148496715,0.0,0,False
2022-12-23,0.38343189148496715,0.38343189148496715,0.0,0,False
2022-12-24,0.38343189148496715,0.38343189148496715,0.0,0,False
2022-12-25,0.38343189148496715,0.38343189148496715,0.0,0,False
2022-12-26,0.38343189148496715,0.38343189148496715,0.0,0,False
2022-12-27,0.38343189148496715,0.38343189148496715,0.0,0,False
2022-12-28,0.38343189148496715,0.3846149562302484,0.30854625594638474,4,True
2022-12-29,0.3846149562302484,0.3818335389582809,-0.723169296178483,0,True
2022-12-30,0.3818335389582809,0.3862287276461987,1.151074549372666,1,True
2022-12-31,0.3862287276461987,0.3874465514805165,0.31531156207349476,0,True
2023-01-01,0.3874465514805165,0.3874465514805165,0.0,0,False
2023-01-02,0.3874465514805165,0.3870450472250231,-0.10362829504073634,1,True
2023-01-03,0.3870450472250231,0.3870391130335525,-0.0015332043422744412,0,True
2023-01-04,0.3870391130335525,0.3870391130335525,0.0,0,False
2023-01-05,0.3870391130335525,0.3870391130335525,0.0,0,False
2023-01-06,0.3870391130335525,0.3865641116754383,-0.12272696534239014,1,True
2023-01-07,0.3865641116754383,0.3877613600353743,0.3097153418476717,0,True
2023-01-08,0.3877613600353743,0.3877613600353743,0.0,0,False
2023-01-09,0.3877613600353743,0.3873155060467139,-0.11498154138405159,1,True
2023-01-10,0.3873155060467139,0.38722399206559094,-0.023627760751698812,1,True
2023-01-11,0.38722399206559094,0.38316755541488196,-1.0475685220511566,3,True
2023-01-12,0.38316755541488196,0.38316755541488196,0.0,0,False
2023-01-13,0.38316755541488196,0.383060611269318,-0.02791054306467977,1,True
2023-01-14,0.383060611269318,0.38468782879111696,0.4247937464535889,4,True
2023-01-15,0.38468782879111696,0.3863699983714647,0.43728172675334687,4,True
2023-01-16,0.3863699983714647,0.3839903539999945,-0.6158978133655069,1,True
2023-01-17,0.3839903539999945,0.3831590605797591,-0.21648809965558735,0,True
2023-01-18,0.3831590605797591,0.3831590605797591,0.0,0,False
2023-01-19,0.3831590605797591,0.37621528795260245,-1.8122428363432252,8,True
2023-01-20,0.37621528795260245,0.37621528795260245,0.0,0,False
2023-01-21,0.37621528795260245,0.3752752230227414,-0.24987419702611202,2,True
2023-01-22,0.3752752230227414,0.3779721872051283,0.7186630016934092,1,True
2023-01-23,0.3779721872051283,0.3780625532502075,0.023908120263382848,1,True
2023-01-24,0.3780625532502075,0.39241756455001187,3.796993692285633,4,True
2023-01-25,0.39241756455001187,0.3907676293964454,-0.4204539507446592,7,True
2023-01-26,0.3907676293964454,0.3907676293964454,0.0,0,False
2023-01-27,0.3907676293964454,0.39009364448126244,-0.17247716148441894,2,True
2023-01-28,0.39009364448126244,0.3894841772198476,-0.15623614227944227,0,True
2023-01-29,0.3894841772198476,0.38825559109881674,-0.3154392894213487,1,True
2023-01-30,0.38825559109881674,0.38556677781029,-0.6925369138708448,5,True
2023-01-31,0.38556677781029,0.39126586491285587,1.4781063697790975,6,True
2023-02-01,0.39126586491285587,0.3880890279683503,-0.8119381805037129,2,True
2023-02-02,0.3880890279683503,0.3880890279683503,0.0,0,False
2023-02-03,0.3880890279683503,0.39156274338606023,0.8950820990469177,2,True
2023-02-04,0.39156274338606023,0.3909535621794986,-0.15557690736704988,0,True
2023-02-05,0.3909535621794986,0.392060676896008,0.2831831766252124,5,True
2023-02-06,0.392060676896008,0.3854843968650557,-1.67736282123917,2,True
2023-02-07,0.3854843968650557,0.38443066647688884,-0.27335228007574486,0,True
2023-02-08,0.38443066647688884,0.3816006541703244,-0.7361567516192324,3,True
2023-02-09,0.3816006541703244,0.38054926704595704,-0.27552026257745554,8,True
2023-02-10,0.38054926704595704,0.377344013068671,-0.8422704377194279,9,True
2023-02-11,0.377344013068671,0.3864417208839252,2.4109850693718515,2,True
2023-02-12,0.3864417208839252,0.39079427119691984,1.126314804477846,1,True
2023-02-13,0.39079427119691984,0.392512397650372,0.4396498567366125,3,True
2023-02-14,0.392512397650372,0.39235375780740334,-0.04041651777582089,1,True
2023-02-15,0.39235375780740334,0.39244807500407297,0.024038815684268577,0,True
2023-02-16,0.39244807500407297,0.39244807500407297,0.0,0,False
2023-02-17,0.39244807500407297,0.39507454933619085,0.6692539725390745,1,True
2023-02-18,0.39507454933619085,0.39553044448973784,0.11539471583603689,1,True
2023-02-19,0.39553044448973784,0.3958687378163584,0.08552902345027036,1,True
2023-02-20,0.3958687378163584,0.39793054621321094,0.5208313261172437,3,True
2023-02-21,0.39793054621321094,0.4033594979318498,1.364296300020662,5,True
2023-02-22,0.4033594979318498,0.40300806153866603,-0.08712733801625738,1,True
2023-02-23,0.40300806153866603,0.40655160693974923,0.8792740739612226,1,True
2023-02-24,0.40655160693974923,0.40655160693974923,0.0,0,False
2023-02-25,0.40655160693974923,0.4040354728585485,-0.6188966021166475,2,True
2023-02-26,0.4040354728585485,0.4040354728585485,0.0,0,False
2023-02-27,0.4040354728585485,0.40202005949010394,-0.4988208966370089,1,True
2023-02-28,0.40202005949010394,0.4011763043268508,-0.20987887129892968,1,True
2023-03-01,0.4011763043268508,0.39957900693324633,-0.3981534742647952,1,True
2023-03-02,0.39957900693324633,0.39880994178806045,-0.19246885643178224,1,True
2023-03-03,0.39880994178806045,0.39505565674979887,-0.9413719781982577,9,True
2023-03-04,0.39505565674979887,0.39490323226630875,-0.038583040360473664,0,True
2023-03-05,0.39490323226630875,0.39711021392746537,0.5588664464686754,4,True
2023-03-06,0.39711021392746537,0.39750243197207824,0.09876805754598372,0,True
2023-03-07,0.39750243197207824,0.39750243197207824,0.0,0,False
2023-03-08,0.39750243197207824,0.39750243197207824,0.0,0,False
2023-03-09,0.39750243197207824,0.39750243197207824,0.0,0,False
2023-03-10,0.39750243197207824,0.38970574645901995,-1.9614183174622601,10,True
2023-03-11,0.38970574645901995,0.3895919964873283,-0.029188682159608792,7,True
2023-03-12,0.3895919964873283,0.3918654574875889,0.583549205517242,0,True
2023-03-13,0.3918654574875889,0.3918654574875889,0.0,0,False
2023-03-14,0.3918654574875889,0.39107051685607147,-0.20286060338517986,1,True
2023-03-15,0.39107051685607147,0.38995112116548525,-0.2862388347721456,4,True
2023-03-16,0.38995112116548525,0.38725525298001434,-0.6913348979260547,5,True
2023-03-17,0.38725525298001434,0.3852587265704884,-0.5155582510920742,2,True
2023-03-18,0.3852587265704884,0.3930099304619604,2.0119476489142807,2,True
2023-03-19,0.3930099304619604,0.38864964946338904,-1.1094582249985718,3,True
2023-03-20,0.38864964946338904,0.39019058316337907,0.3964840061267516,4,True
2023-03-21,0.39019058316337907,0.38774238286655177,-0.6274370531905382,0,True
2023-03-22,0.38774238286655177,0.38774238286655177,0.0,0,False
2023-03-23,0.38774238286655177,0.39441598981898907,1.7211445659099267,7,True
2023-03-24,0.39441598981898907,0.3908646394224989,-0.9004073080607133,1,True
2023-03-25,0.3908646394224989,0.3889454651468138,-0.49100739287152306,1,True
2023-03-26,0.3889454651468138,0.3889454651468138,0.0,0,False
2023-03-27,0.3889454651468138,0.38700627175764624,-0.4985771947323192,1,True
2023-03-28,0.38700627175764624,0.39231946101681253,1.3728948719708534,4,True
2023-03-29,0.39231946101681253,0.39231946101681253,0.0,0,False
2023-03-30,0.39231946101681253,0.3912121544684956,-0.2822461433462986,1,True
2023-03-31,0.3912121544684956,0.3912121544684956,0.0,0,False
2023-04-01,0.3912121544684956,0.3908796350211916,-0.08499721787932346,1,True
2023-04-02,0.3908796350211916,0.39054992985048775,-0.08434953913267762,0,True
2023-04-03,0.39054992985048775,0.39054992985048775,0.0,0,False
2023-04-04,0.39054992985048775,0.39038440025189486,-0.04238372252589606,1,True
2023-04-05,0.39038440025189486,0.38943932880438387,-0.242087400751978,1,True
2023-04-06,0.38943932880438387,0.3872920341797606,-0.5513810408454778,2,True
2023-04-07,0.3872920341797606,0.3865374099364578,-0.1948463114923138,1,True
2023-04-08,0.3865374099364578,0.38729101196257776,0.1949622486071556,1,True
2023-04-09,0.38729101196257776,0.38737785705566,0.022423730579790302,0,True
2023-04-10,0.38737785705566,0.38737785705566,0.0,0,False
2023-04-11,0.38737785705566,0.38737785705566,0.0,0,False
2023-04-12,0.38737785705566,0.3892191639420522,0.4753257969847269,1,True
2023-04-13,0.3892191639420522,0.38939711557918993,0.04572016324566608,0,True
2023-04-14,0.38939711557918993,0.39208812158933837,0.691069836546121,1,True
2023-04-15,0.39208812158933837,0.39033897082116076,-0.44611164477194043,1,True
2023-04-16,0.39033897082116076,0.39033897082116076,0.0,0,False
2023-04-17,0.39033897082116076,0.3902228042563232,-0.029760432219505528,1,True
2023-04-18,0.3902228042563232,0.3902228042563232,0.0,0,False
2023-04-19,0.3902228042563232,0.38446760893029613,-1.4748485386432475,9,True
2023-04-20,0.38446760893029613,0.38123162176416187,-0.8416800507948463,0,True
2023-04-21,0.38123162176416187,0.38123162176416187,0.0,0,False
2023-04-22,0.38123162176416187,0.3801235353816169,-0.2906596198440359,1,True
2023-04-23,0.3801235353816169,0.3801235353816169,0.0,0,False
2023-04-24,0.3801235353816169,0.3801235353816169,0.0,0,False
2023-04-25,0.3801235353816169,0.3801235353816169,0.0,0,False
2023-04-26,0.3801235353816169,0.3801235353816169,0.0,0,False
2023-04-27,0.3801235353816169,0.378155552930226,-0.5177218109936765,9,True
2023-04-28,0.378155552930226,0.378155552930226,0.0,0,False
2023-04-29,0.378155552930226,0.37626918588305674,-0.4988336235055457,1,True
2023-04-30,0.37626918588305674,0.37626918588305674,0.0,0,False
2023-05-01,0.37626918588305674,0.37626918588305674,0.0,0,False
2023-05-02,0.37626918588305674,0.37626918588305674,0.0,0,False
2023-05-03,0.37626918588305674,0.37626918588305674,0.0,0,False
2023-05-04,0.37626918588305674,0.37626918588305674,0.0,0,False
2023-05-05,0.37626918588305674,0.37626918588305674,0.0,0,False
2023-05-06,0.37626918588305674,0.37439422793351357,-0.4983022846111851,1,True
2023-05-07,0.37439422793351357,0.37439422793351357,0.0,0,False
2023-05-08,0.37439422793351357,0.380097618016235,1.5233648537269273,6,True
2023-05-09,0.380097618016235,0.3791756124460702,-0.2425707309024583,6,True
2023-05-10,0.3791756124460702,0.3772355169392103,-0.5116614685064413,2,True
2023-05-11,0.3772355169392103,0.3798737692184977,0.6993647630778366,6,True
2023-05-12,0.3798737692184977,0.3782386060935226,-0.43044907479109495,0,True
2023-05-13,0.3782386060935226,0.3782386060935226,0.0,0,False
2023-05-14,0.3782386060935226,0.3782386060935226,0.0,0,False
2023-05-15,0.3782386060935226,0.3782386060935226,0.0,0,False
2023-05-16,0.3782386060935226,0.3782386060935226,0.0,0,False
2023-05-17,0.3782386060935226,0.3782386060935226,0.0,0,False
2023-05-18,0.3782386060935226,0.37734690759046846,-0.2357502615250362,1,True
2023-05-19,0.37734690759046846,0.37734690759046846,0.0,0,False
2023-05-20,0.37734690759046846,0.37734690759046846,0.0,0,False
2023-05-21,0.37734690759046846,0.37734690759046846,0.0,0,False
2023-05-22,0.37734690759046846,0.3762706744552885,-0.2852105353273404,1,True
2023-05-23,0.3762706744552885,0.3762706744552885,0.0,0,False
2023-05-24,0.3762706744552885,0.37515636914038625,-0.2961446082704655,1,True
2023-05-25,0.37515636914038625,0.37678625516004427,0.4344551109161987,0,True
2023-05-26,0.37678625516004427,0.3776769539164812,0.23639364340894975,1,True
2023-05-27,0.3776769539164812,0.3809524036434261,0.8672622708319144,0,True
2023-05-28,0.3809524036434261,0.3809524036434261,0.0,0,False
2023-05-29,0.3809524036434261,0.3809524036434261,0.0,0,False
2023-05-30,0.3809524036434261,0.38236042595677117,0.36960583523788504,2,True
2023-05-31,0.38236042595677117,0.38079437672000677,-0.4095740904267786,1,True
2023-06-01,0.38079437672000677,0.38079437672000677,0.0,0,False
2023-06-02,0.38079437672000677,0.38579959882605,1.3144159714636672,1,True
2023-06-03,0.38579959882605,0.39073526318549573,1.2793337200101895,0,True
2023-06-04,0.39073526318549573,0.3879165016228116,-0.7213993279500786,3,True
2023-06-05,0.3879165016228116,0.3871904503594675,-0.18716689295422695,1,True
2023-06-06,0.3871904503594675,0.3749512212122064,-3.161035902589582,12,True
2023-06-07,0.3749512212122064,0.3751339352216138,0.048730074492531195,1,True
2023-06-08,0.3751339352216138,0.3737238155490893,-0.3758976568439487,1,True
2023-06-09,0.3737238155490893,0.37261806220949556,-0.29587446493585245,1,True
2023-06-10,0.37261806220949556,0.37965884824057006,1.8895450181145579,7,True
2023-06-11,0.37965884824057006,0.37849994792724667,-0.30524780831370224,0,True
2023-06-12,0.37849994792724667,0.37849994792724667,0.0,0,False
2023-06-13,0.37849994792724667,0.37882309547607984,0.0853758502749713,1,True
2023-06-14,0.37882309547607984,0.37880269253294635,-0.005385876251251531,0,True
2023-06-15,0.37880269253294635,0.3806532051223102,0.48851621855958705,5,True
2023-06-16,0.3806532051223102,0.3837368712222714,0.810098551244387,0,True
2023-06-17,0.3837368712222714,0.3843068619635053,0.14853687096012536,1,True
2023-06-18,0.3843068619635053,0.3847869504685292,0.12492321957797703,0,True
2023-06-19,0.3847869504685292,0.3867210889394053,0.502651783934227,1,True
2023-06-20,0.3867210889394053,0.3873636753228509,0.16616274669889464,1,True
2023-06-21,0.3873636753228509,0.3873636753228509,0.0,0,False
2023-06-22,0.3873636753228509,0.38632226962554234,-0.26884443835384353,1,True
2023-06-23,0.38632226962554234,0.38632226962554234,0.0,0,False
2023-06-24,0.38632226962554234,0.3863273528159459,0.0013157901584293086,1,True
2023-06-25,0.3863273528159459,0.386076818373389,-0.06485029877660864,4,True
2023-06-26,0.386076818373389,0.38575408957505924,-0.08359186124913265,0,True
2023-06-27,0.38575408957505924,0.38575408957505924,0.0,0,False
2023-06-28,0.38575408957505924,0.38575408957505924,0.0,0,False
2023-06-29,0.38575408957505924,0.3853077493419005,-0.11570589793369335,2,True
2023-06-30,0.3853077493419005,0.3817838105687725,-0.9145777055215798,9,True
2023-07-01,0.3817838105687725,0.38490877898592946,0.8185177921770537,1,True
2023-07-02,0.38490877898592946,0.38490877898592946,0.0,0,False
2023-07-03,0.38490877898592946,0.38490877898592946,0.0,0,False
2023-07-04,0.38490877898592946,0.3844121902384879,-0.12901465868091488,1,True
2023-07-05,0.3844121902384879,0.38367451601312197,-0.19189667864285553,1,True
2023-07-06,0.38367451601312197,0.38261222793740546,-0.27687220062334594,2,True
2023-07-07,0.38261222793740546,0.3817320538501988,-0.2300433762798204,0,True
2023-07-08,0.3817320538501988,0.3817320538501988,0.0,0,False
2023-07-09,0.3817320538501988,0.3817320538501988,0.0,0,False
2023-07-10,0.3817320538501988,0.3817320538501988,0.0,0,False
2023-07-11,0.3817320538501988,0.3817320538501988,0.0,0,False
2023-07-12,0.3817320538501988,0.3810984515961492,-0.16598088833752467,1,True
2023-07-13,0.3810984515961492,0.3810984515961492,0.0,0,False
2023-07-14,0.3810984515961492,0.3810984515961492,0.0,0,False
2023-07-15,0.3810984515961492,0.3822068201503585,0.2908352289459959,6,True
2023-07-16,0.3822068201503585,0.381624995881837,-0.152227599782917,2,True
2023-07-17,0.381624995881837,0.38023291678486754,-0.3647767080226849,0,True
2023-07-18,0.38023291678486754,0.3801960905930419,-0.009685166696515868,2,True
2023-07-19,0.3801960905930419,0.37727599400320483,-0.7680501357292258,1,True
2023-07-20,0.37727599400320483,0.3756814964083925,-0.4226342571901909,2,True
2023-07-21,0.3756814964083925,0.3757753551361972,0.0249835908081808,0,True
2023-07-22,0.3757753551361972,0.3757753551361972,0.0,0,False
2023-07-23,0.3757753551361972,0.3757753551361972,0.0,0,False
2023-07-24,0.3757753551361972,0.3735730830081615,-0.5860608200975559,4,True
2023-07-25,0.3735730830081615,0.3719533109249048,-0.43358907719304174,0,True
2023-07-26,0.3719533109249048,0.3719533109249048,0.0,0,False
2023-07-27,0.3719533109249048,0.3719533109249048,0.0,0,False
2023-07-28,0.3719533109249048,0.3719533109249048,0.0,0,False
2023-07-29,0.3719533109249048,0.3719533109249048,0.0,0,False
2023-07-30,0.3719533109249048,0.3719533109249048,0.0,0,False
2023-07-31,0.3719533109249048,0.3700993237009975,-0.4984462214618124,1,True
2023-08-01,0.3700993237009975,0.3688159592021909,-0.34676218426258343,2,True
2023-08-02,0.3688159592021909,0.3688159592021909,0.0,0,False
2023-08-03,0.3688159592021909,0.3688159592021909,0.0,0,False
2023-08-04,0.3688159592021909,0.3688159592021909,0.0,0,False
2023-08-05,0.3688159592021909,0.3688159592021909,0.0,0,False
2023-08-06,0.3688159592021909,0.3688159592021909,0.0,0,False
2023-08-07,0.3688159592021909,0.36797667516032684,-0.22756174751211722,2,True
2023-08-08,0.36797667516032684,0.3638752253623944,-1.114595047673994,5,True
2023-08-09,0.3638752253623944,0.3625832648957155,-0.35505590285576094,0,True
2023-08-10,0.3625832648957155,0.3607780646801704,-0.4978719070402593,1,True
2023-08-11,0.3607780646801704,0.3607780646801704,0.0,0,False
2023-08-12,0.3607780646801704,0.3607780646801704,0.0,0,False
2023-08-13,0.3607780646801704,0.3614108809546673,0.1754032011502371,1,True
2023-08-14,0.3614108809546673,0.35960710016661557,-0.49909421190834635,1,True
2023-08-15,0.35960710016661557,0.35960710016661557,0.0,0,False
2023-08-16,0.35960710016661557,0.3608695856905475,0.35107358095738395,7,True
2023-08-17,0.3608695856905475,0.3626939187560444,0.505538049710097,5,True
2023-08-18,0.3626939187560444,0.3730636492711855,2.8590858514272455,7,True
2023-08-19,0.3730636492711855,0.37304121491938363,-0.006013545368388495,0,True
2023-08-20,0.37304121491938363,0.3724491056402437,-0.15872489565741388,1,True
2023-08-21,0.3724491056402437,0.3716418954948268,-0.21673032185949292,1,True
2023-08-22,0.3716418954948268,0.37230494377719514,0.17841053186038458,1,True
2023-08-23,0.37230494377719514,0.37230494377719514,0.0,0,False
2023-08-24,0.37230494377719514,0.37230494377719514,0.0,0,False
2023-08-25,0.37230494377719514,0.3650104249022762,-1.9592860629012554,6,True
2023-08-26,0.3650104249022762,0.3643596204622638,-0.1782974938829951,0,True
2023-08-27,0.3643596204622638,0.3643596204622638,0.0,0,False
2023-08-28,0.3643596204622638,0.36212942781683355,-0.6120855660681546,2,True
2023-08-29,0.36212942781683355,0.3648234041742179,0.743926383896909,1,True
2023-08-30,0.3648234041742179,0.36307039204421515,-0.48050977814065865,2,True
2023-08-31,0.36307039204421515,0.3643198929511107,0.3441483894790931,2,True
2023-09-01,0.3643198929511107,0.36278942837960587,-0.42008811517471045,1,True
2023-09-02,0.36278942837960587,0.3594772174350576,-0.9129844161507639,3,True
2023-09-03,0.3594772174350576,0.35925239105281387,-0.06254259556361941,0,True
2023-09-04,0.35925239105281387,0.35853263310463657,-0.2003488260907571,3,True
2023-09-05,0.35853263310463657,0.3563284884890558,-0.6147682001759414,0,True
2023-09-06,0.3563284884890558,0.35774057704516443,0.39628842535053277,4,True
2023-09-07,0.35774057704516443,0.3577059037720374,-0.009692295297725195,3,True
2023-09-08,0.3577059037720374,0.3543260781493062,-0.9448615712211228,4,True
2023-09-09,0.3543260781493062,0.35580924154101806,0.41858713856417484,5,True
2023-09-10,0.35580924154101806,0.3523212402229265,-0.9803009340018654,5,True
2023-09-11,0.3523212402229265,0.3506280695119812,-0.48057582616192196,1,True
2023-09-12,0.3506280695119812,0.3502160112973978,-0.11752003060020444,2,True
2023-09-13,0.3502160112973978,0.3483990143224248,-0.5188217889415814,2,True
2023-09-14,0.3483990143224248,0.34974023011560473,0.38496543848964837,4,True
2023-09-15,0.34974023011560473,0.3510019867375987,0.36076965511713244,1,True
2023-09-16,0.3510019867375987,0.3530939718721711,0.5960037873336432,5,True
2023-09-17,0.3530939718721711,0.35193814000105866,-0.3273439829584168,2,True
2023-09-18,0.35193814000105866,0.34964101903175065,-0.6527058901036109,1,True
2023-09-19,0.34964101903175065,0.34964101903175065,0.0,0,False
2023-09-20,0.34964101903175065,0.3502800134579729,0.1827572828816848,3,True
2023-09-21,0.3502800134579729,0.35055781318954127,0.07930790250518793,1,True
2023-09-22,0.35055781318954127,0.3549936361067848,1.2653613042836742,1,True
2023-09-23,0.3549936361067848,0.3545274395906564,-0.13132531648768486,0,True
2023-09-24,0.3545274395906564,0.3536779187132462,-0.23962062806508477,1,True
2023-09-25,0.3536779187132462,0.35367425309573974,-0.0010364281490371496,1,True
2023-09-26,0.35367425309573974,0.35394773741936725,0.07732661375083882,1,True
2023-09-27,0.35394773741936725,0.35291535871783836,-0.2916754628962903,0,True
2023-09-28,0.35291535871783836,0.35291535871783836,0.0,0,False
2023-09-29,0.35291535871783836,0.3494064333834786,-0.9942682424216032,2,True
2023-09-30,0.3494064333834786,0.3494064333834786,0.0,0,False
2023-10-01,0.3494064333834786,0.3491169317296712,-0.08285527287062999,1,True
2023-10-02,0.3491169317296712,0.34975193587657116,0.1818886708685019,1,True
2023-10-03,0.34975193587657116,0.3501234403069612,0.1062194064656019,2,True
2023-10-04,0.3501234403069612,0.34766597909628044,-0.7018842293238681,5,True
2023-10-05,0.34766597909628044,0.34420838689114874,-0.9945155445233222,2,True
2023-10-06,0.34420838689114874,0.34420838689114874,0.0,0,False
2023-10-07,0.34420838689114874,0.34261769485124144,-0.46213052920478503,1,True
2023-10-08,0.34261769485124144,0.34196854367435336,-0.18946808254312053,1,True
2023-10-09,0.34196854367435336,0.3407778059293135,-0.3482009579728329,1,True
2023-10-10,0.3407778059293135,0.3393409722465309,-0.42163358580946664,1,True
2023-10-11,0.3393409722465309,0.3393409722465309,0.0,0,False
2023-10-12,0.3393409722465309,0.3393409722465309,0.0,0,False
2023-10-13,0.3393409722465309,0.3393409722465309,0.0,0,False
2023-10-14,0.3393409722465309,0.3393409722465309,0.0,0,False
2023-10-15,0.3393409722465309,0.3393125491956423,-0.008375956107053995,1,True
2023-10-16,0.3393125491956423,0.3393060190200719,-0.001924531110297778,2,True
2023-10-17,0.3393060190200719,0.33986925989379374,0.16599790223248423,2,True
2023-10-18,0.33986925989379374,0.3369304589549454,-0.8646857146676679,3,True
2023-10-19,0.3369304589549454,0.33253885565394653,-1.3034153441099594,4,True
2023-10-20,0.33253885565394653,0.33225828101464067,-0.08437349035621544,0,True
2023-10-21,0.33225828101464067,0.33294001702404086,0.20518254874439812,2,True
2023-10-22,0.33294001702404086,0.33515015826998396,0.6638256541518395,1,True
2023-10-23,0.33515015826998396,0.33515015826998396,0.0,0,False
2023-10-24,0.33515015826998396,0.3336888226403149,-0.4360241502532336,4,True
2023-10-25,0.3336888226403149,0.34241470922478495,2.614977186058076,7,True
2023-10-26,0.34241470922478495,0.34874502343501274,1.8487273004595517,3,True
2023-10-27,0.34874502343501274,0.3463715715474408,-0.6805693925591494,5,True
2023-10-28,0.3463715715474408,0.34686045797981396,0.14114508017764038,1,True
2023-10-29,0.34686045797981396,0.34686045797981396,0.0,0,False
2023-10-30,0.34686045797981396,0.34588549159690546,-0.28108317350064027,2,True
2023-10-31,0.34588549159690546,0.3425343751369478,-0.9688514093164291,5,True
2023-11-01,0.3425343751369478,0.34151803601305936,-0.2967115704758383,4,True
2023-11-02,0.34151803601305936,0.3409535742280045,-0.1652802269667797,3,True
2023-11-03,0.3409535742280045,0.3394098646033057,-0.4527624114790685,1,True
2023-11-04,0.3394098646033057,0.3400261438007156,0.18157374363005907,1,True
2023-11-05,0.3400261438007156,0.3384339527112137,-0.4682554910939718,4,True
2023-11-06,0.3384339527112137,0.33671137006331536,-0.5089863573375597,3,True
2023-11-07,0.33671137006331536,0.3314983971970006,-1.548202208121019,5,True
2023-11-08,0.3314983971970006,0.3314983971970006,0.0,0,False
2023-11-09,0.3314983971970006,0.33578042682140047,1.2917195559938754,3,True
2023-11-10,0.33578042682140047,0.3348635346066464,-0.27306303212299987,6,True
2023-11-11,0.3348635346066464,0.3334407796889187,-0.42487603775638316,3,True
2023-11-12,0.3334407796889187,0.3376072414827426,1.2495357639551452,4,True
2023-11-13,0.3376072414827426,0.33514109125592495,-0.7304790667364114,3,True
2023-11-14,0.33514109125592495,0.33338200565569087,-0.5248791169241596,4,True
2023-11-15,0.33338200565569087,0.3328642875508969,-0.15529275606093185,1,True
2023-11-16,0.3328642875508969,0.3305929193604704,-0.6823706463491397,4,True
2023-11-17,0.3305929193604704,0.3295292583916092,-0.3217434211594372,3,True
2023-11-18,0.3295292583916092,0.32665394315224994,-0.8725523352291376,3,True
2023-11-19,0.32665394315224994,0.322940413903091,-1.1368389474570417,3,True
2023-11-20,0.322940413903091,0.3234401723422111,0.15475252325343192,1,True
2023-11-21,0.3234401723422111,0.31656641005302616,-2.1252036317592204,4,True
2023-11-22,0.31656641005302616,0.31514418345810963,-0.44926642554347085,5,True
2023-11-23,0.31514418345810963,0.3140440079771591,-0.349102264518486,3,True
2023-11-24,0.3140440079771591,0.31909082647983916,1.607041807671461,1,True
2023-11-25,0.31909082647983916,0.3180206509766677,-0.3353827231504791,4,True
2023-11-26,0.3180206509766677,0.3181412768755476,0.03793020940918712,1,True
2023-11-27,0.3181412768755476,0.31838398154101855,0.07628832946624531,3,True
2023-11-28,0.31838398154101855,0.31883675410943113,0.1422095942833268,3,True
2023-11-29,0.31883675410943113,0.3186937046930706,-0.04486603709163983,3,True
2023-11-30,0.3186937046930706,0.3174932592727498,-0.3766768538703835,0,True
2023-12-01,0.3174932592727498,0.3174932592727498,0.0,0,False
2023-12-02,0.3174932592727498,0.3174932592727498,0.0,0,False
2023-12-03,0.3174932592727498,0.31779674288367554,0.09558741864974518,1,True
2023-12-04,0.31779674288367554,0.32012633709017707,0.7330453375207213,5,True
2023-12-05,0.32012633709017707,0.3220722537214764,0.6078589624918029,4,True
2023-12-06,0.3220722537214764,0.3176549087357238,-1.37153850873869,5,True
2023-12-07,0.3176549087357238,0.3184208244543186,0.24111565649753697,4,True
2023-12-08,0.3184208244543186,0.317333604573174,-0.3414411990823041,1,True
2023-12-09,0.317333604573174,0.3164094990607748,-0.29120947138332465,0,True
2023-12-10,0.3164094990607748,0.315274567189487,-0.3586908340794892,3,True
2023-12-11,0.315274567189487,0.31553548790268104,0.08275983550465327,7,True
2023-12-12,0.31553548790268104,0.31492707044144874,-0.19282061275464057,0,True
2023-12-13,0.31492707044144874,0.31370893763169966,-0.3867983809843878,6,True
2023-12-14,0.31370893763169966,0.31730415274021334,1.1460352821488717,2,True
2023-12-15,0.31730415274021334,0.31550846164396656,-0.5659210825762373,3,True
2023-12-16,0.31550846164396656,0.3196287502985925,1.3059201750587057,4,True
2023-12-17,0.3196287502985925,0.31931402577926976,-0.09846564773310362,2,True
2023-12-18,0.31931402577926976,0.31824266979830634,-0.33551798369921837,7,True
2023-12-19,0.31824266979830634,0.31598610940772115,-0.7090690861836113,4,True
2023-12-20,0.31598610940772115,0.3137592282446806,-0.7047402074776499,2,True
2023-12-21,0.3137592282446806,0.3121005638670733,-0.528642420140657,1,True
2023-12-22,0.3121005638670733,0.31054374465002177,-0.4988197386642912,1,True
2023-12-23,0.31054374465002177,0.31039755016065335,-0.047076939042256516,1,True
2023-12-24,0.31039755016065335,0.30942909009554664,-0.3120063494719716,2,True
2023-12-25,0.30942909009554664,0.30864168107649265,-0.2544715556028865,2,True
2023-12-26,0.30864168107649265,0.30717537658419014,-0.47508310840851387,1,True
2023-12-27,0.30717537658419014,0.30290883947554426,-1.3889580460810569,11,True
2023-12-28,0.30290883947554426,0.3030505067055462,0.046768932279173114,1,True
2023-12-29,0.3030505067055462,0.3038974701994652,0.2794793195122436,2,True
2023-12-30,0.3038974701994652,0.3025280482856796,-0.4506197148948954,3,True
2023-12-31,0.3025280482856796,0.30139053506880426,-0.3760025635048403,2,True
