day,start_equity,end_equity,return_pct,entries,active
2021-09-02,1.0,1.0,0.0,0,False
2021-09-03,1.0,1.0,0.0,0,False
2021-09-04,1.0,1.0,0.0,0,False
2021-09-05,1.0,1.0,0.0,0,False
2021-09-06,1.0,1.0,0.0,0,False
2021-09-07,1.0,1.0,0.0,0,False
2021-09-08,1.0,1.0,0.0,0,False
2021-09-09,1.0,1.0,0.0,0,False
2021-09-10,1.0,1.0,0.0,0,False
2021-09-11,1.0,1.0,0.0,0,False
2021-09-12,1.0,1.0,0.0,0,False
2021-09-13,1.0,1.0,0.0,0,False
2021-09-14,1.0,1.0,0.0,0,False
2021-09-15,1.0,1.0,0.0,0,False
2021-09-16,1.0,1.0,0.0,0,False
2021-09-17,1.0,1.0,0.0,0,False
2021-09-18,1.0,1.0,0.0,0,False
2021-09-19,1.0,1.0,0.0,0,False
2021-09-20,1.0,1.0,0.0,0,False
2021-09-21,1.0,1.0,0.0,0,False
2021-09-22,1.0,1.0,0.0,0,False
2021-09-23,1.0,1.0,0.0,0,False
2021-09-24,1.0,1.0,0.0,0,False
2021-09-25,1.0,1.0,0.0,0,False
2021-09-26,1.0,1.0,0.0,0,False
2021-09-27,1.0,1.0,0.0,0,False
2021-09-28,1.0,1.0,0.0,0,False
2021-09-29,1.0,1.0,0.0,0,False
2021-09-30,1.0,1.0,0.0,0,False
2021-10-01,1.0,1.0,0.0,0,False
2021-10-02,1.0,1.0,0.0,0,False
2021-10-03,1.0,1.0,0.0,0,False
2021-10-04,1.0,1.0,0.0,0,False
2021-10-05,1.0,1.0,0.0,0,False
2021-10-06,1.0,0.9979076339734806,-0.209236602651941,1,True
2021-10-07,0.9979076339734806,0.9979076339734806,0.0,0,False
2021-10-08,0.9979076339734806,0.9979076339734806,0.0,0,False
2021-10-09,0.9979076339734806,0.9959728762708805,-0.19388144120074946,3,True
2021-10-10,0.9959728762708805,0.9900453248315004,-0.595151894253787,1,True
2021-10-11,0.9900453248315004,0.9900453248315004,0.0,0,False
2021-10-12,0.9900453248315004,0.9900453248315004,0.0,0,False
2021-10-13,0.9900453248315004,1.0036748203430572,1.376653691473817,4,True
2021-10-14,1.0036748203430572,1.0169161724211782,1.3192870648677912,0,True
2021-10-15,1.0169161724211782,1.0200546994249693,0.3086318311094072,1,True
2021-10-16,1.0200546994249693,1.0360103346678833,1.5641940821319311,0,True
2021-10-17,1.0360103346678833,1.0360103346678833,0.0,0,False
2021-10-18,1.0360103346678833,1.0371218957091115,0.10729246649692215,1,True
2021-10-19,1.0371218957091115,1.0371218957091115,0.0,0,False
2021-10-20,1.0371218957091115,1.0371218957091115,0.0,0,False
2021-10-21,1.0371218957091115,1.0371218957091115,0.0,0,False
2021-10-22,1.0371218957091115,1.0371218957091115,0.0,0,False
2021-10-23,1.0371218957091115,1.0371218957091115,0.0,0,False
2021-10-24,1.0371218957091115,1.0371218957091115,0.0,0,False
2021-10-25,1.0371218957091115,1.0407787084187505,0.3525923736417358,1,True
2021-10-26,1.0407787084187505,1.0407787084187505,0.0,0,False
2021-10-27,1.0407787084187505,1.0349345939321994,-0.5615136473564153,6,True
2021-10-28,1.0349345939321994,1.0322363456319177,-0.26071679467490894,0,True
2021-10-29,1.0322363456319177,1.0322363456319177,0.0,0,False
2021-10-30,1.0322363456319177,1.0322363456319177,0.0,0,False
2021-10-31,1.0322363456319177,1.0322363456319177,0.0,0,False
2021-11-01,1.0322363456319177,1.0335936060584605,0.13148737033783497,1,True
2021-11-02,1.0335936060584605,1.0324638258499717,-0.10930603690527674,0,True
2021-11-03,1.0324638258499717,1.032619224635924,0.015051257202580715,1,True
2021-11-04,1.032619224635924,1.052012500282647,1.8780664918920609,1,True
2021-11-05,1.052012500282647,1.0436328192464854,-0.7965381622281331,0,True
2021-11-06,1.0436328192464854,1.0424641009087847,-0.11198558689871074,1,True
2021-11-07,1.0424641009087847,1.0424641009087847,0.0,0,False
2021-11-08,1.0424641009087847,1.0424641009087847,0.0,0,False
2021-11-09,1.0424641009087847,1.0424641009087847,0.0,0,False
2021-11-10,1.0424641009087847,1.0424641009087847,0.0,0,False
2021-11-11,1.0424641009087847,1.016568962619083,-2.4840316579848865,5,True
2021-11-12,1.016568962619083,1.016568962619083,0.0,0,False
2021-11-13,1.016568962619083,1.015421425507082,-0.11288335117418669,1,True
2021-11-14,1.015421425507082,1.015421425507082,0.0,0,False
2021-11-15,1.015421425507082,1.015421425507082,0.0,0,False
2021-11-16,1.015421425507082,1.033593010047116,1.7895608742901636,5,True
2021-11-17,1.033593010047116,1.0203308533542959,-1.2831120725376843,0,True
2021-11-18,1.0203308533542959,1.017691545290623,-0.25867178817500225,2,True
2021-11-19,1.017691545290623,1.0241606509320416,0.6356646737760929,2,True
2021-11-20,1.0241606509320416,1.0246867597593312,0.05136975598611926,0,True
2021-11-21,1.0246867597593312,1.0246867597593312,0.0,0,False
2021-11-22,1.0246867597593312,1.020809081534486,-0.37842571770480005,1,True
2021-11-23,1.020809081534486,1.020809081534486,0.0,0,False
2021-11-24,1.020809081534486,1.020809081534486,0.0,0,False
2021-11-25,1.020809081534486,1.0233792994393454,0.251782429383951,2,True
2021-11-26,1.0233792994393454,1.0013561097686932,-2.152006561273767,4,True
2021-11-27,1.0013561097686932,1.0013561097686932,0.0,0,False
2021-11-28,1.0013561097686932,1.000108174002608,-0.12462457200899113,1,True
2021-11-29,1.000108174002608,1.000108174002608,0.0,0,False
2021-11-30,1.000108174002608,1.000108174002608,0.0,0,False
2021-12-01,1.000108174002608,1.0002053910120567,0.009720649423305971,1,True
2021-12-02,1.0002053910120567,0.9983126079617706,-0.18923943694914014,3,True
2021-12-03,0.9983126079617706,0.9956240747166318,-0.26930775227088644,1,True
2021-12-04,0.9956240747166318,0.9746132677287039,-2.110315280785857,8,True
2021-12-05,0.9746132677287039,0.9750246754309744,0.04221240525785763,1,True
2021-12-06,0.9750246754309744,0.9689976017776629,-0.618145756223798,7,True
2021-12-07,0.9689976017776629,0.996054226160003,2.7922282091001893,0,True
2021-12-08,0.996054226160003,0.999644301427526,0.3604297008370283,1,True
2021-12-09,0.999644301427526,0.9981289299600047,-0.15159106747844042,0,True
2021-12-10,0.9981289299600047,0.9944067781554007,-0.3729129266650144,1,True
2021-12-11,0.9944067781554007,0.991613277204282,-0.28092135054634815,1,True
2021-12-12,0.991613277204282,0.991613277204282,0.0,0,False
2021-12-13,0.991613277204282,0.9884419745196079,-0.3198124468053898,1,True
2021-12-14,0.9884419745196079,0.9884419745196079,0.0,0,False
2021-12-15,0.9884419745196079,0.9884419745196079,0.0,0,False
2021-12-16,0.9884419745196079,0.9884419745196079,0.0,0,False
2021-12-17,0.9884419745196079,0.9889738992471383,0.053814461672252456,2,True
2021-12-18,0.9889738992471383,0.9919080650592093,0.2966878917941784,0,True
2021-12-19,0.9919080650592093,0.987439177808065,-0.45053442033233804,1,True
2021-12-20,0.987439177808065,0.987439177808065,0.0,0,False
2021-12-21,0.987439177808065,0.9848398638413624,-0.2632378808862579,1,True
2021-12-22,0.9848398638413624,0.984024199063961,-0.08282207162287891,0,True
2021-12-23,0.984024199063961,0.984024199063961,0.0,0,False
2021-12-24,0.984024199063961,0.984024199063961,0.0,0,False
2021-12-25,0.984024199063961,0.9860651885431224,0.20741252919418418,1,True
2021-12-26,0.9860651885431224,0.9860651885431224,0.0,0,False
2021-12-27,0.9860651885431224,0.9860651885431224,0.0,0,False
2021-12-28,0.9860651885431224,0.9860651885431224,0.0,0,False
2021-12-29,0.9860651885431224,0.9860651885431224,0.0,0,False
2021-12-30,0.9860651885431224,0.9860651885431224,0.0,0,False
2021-12-31,0.9860651885431224,0.9860651885431224,0.0,0,False
2022-01-01,0.9860651885431224,0.9860651885431224,0.0,0,False
2022-01-02,0.9860651885431224,0.9860651885431224,0.0,0,False
2022-01-03,0.9860651885431224,0.9860651885431224,0.0,0,False
2022-01-04,0.9860651885431224,0.9860651885431224,0.0,0,False
2022-01-05,0.9860651885431224,0.9871634783111384,0.1113810507435753,1,True
2022-01-06,0.9871634783111384,0.9659616624405626,-2.147751242463747,5,True
2022-01-07,0.9659616624405626,0.9652624412355598,-0.0723860202936133,4,True
2022-01-08,0.9652624412355598,0.9709160006317259,0.5857017899639105,0,True
2022-01-09,0.9709160006317259,0.9715842997311879,0.06883181439250041,1,True
2022-01-10,0.9715842997311879,0.9730652964384522,0.15243110738554222,0,True
2022-01-11,0.9730652964384522,0.9730652964384522,0.0,0,False
2022-01-12,0.9730652964384522,0.9730652964384522,0.0,0,False
2022-01-13,0.9730652964384522,0.9730652964384522,0.0,0,False
2022-01-14,0.9730652964384522,0.9730652964384522,0.0,0,False
2022-01-15,0.9730652964384522,0.9735346294446633,0.04823242673732686,1,True
2022-01-16,0.9735346294446633,0.9725169696920485,-0.10453246570133468,0,True
2022-01-17,0.9725169696920485,0.9746930941751846,0.22376210914090144,1,True
2022-01-18,0.9746930941751846,0.9799797689644719,0.542393787427109,0,True
2022-01-19,0.9799797689644719,0.9799797689644719,0.0,0,False
2022-01-20,0.9799797689644719,0.9799797689644719,0.0,0,False
2022-01-21,0.9799797689644719,0.9568153301204679,-2.363767046791332,7,True
2022-01-22,0.9568153301204679,0.9372023729755263,-2.0498163571932126,6,True
2022-01-23,0.9372023729755263,0.9372023729755263,0.0,0,False
2022-01-24,0.9372023729755263,0.9344077453253029,-0.29818828150751653,2,True
2022-01-25,0.9344077453253029,0.9421183826748367,0.8251897940817488,0,True
2022-01-26,0.9421183826748367,0.9421183826748367,0.0,0,False
2022-01-27,0.9421183826748367,0.9472111198608038,0.5405623411686156,4,True
2022-01-28,0.9472111198608038,0.9439308155818251,-0.3463118422280198,0,True
2022-01-29,0.9439308155818251,0.9439308155818251,0.0,0,False
2022-01-30,0.9439308155818251,0.9473195406910626,0.3590014282083498,1,True
2022-01-31,0.9473195406910626,0.9461144414494976,-0.12721148353869172,0,True
2022-02-01,0.9461144414494976,0.9461144414494976,0.0,0,False
2022-02-02,0.9461144414494976,0.9461144414494976,0.0,0,False
2022-02-03,0.9461144414494976,0.9460939958892542,-0.002161002871070572,3,True
2022-02-04,0.9460939958892542,0.9494526793445908,0.3550052605692411,0,True
2022-02-05,0.9494526793445908,0.9494526793445908,0.0,0,False
2022-02-06,0.9494526793445908,0.9494526793445908,0.0,0,False
2022-02-07,0.9494526793445908,0.9494526793445908,0.0,0,False
2022-02-08,0.9494526793445908,0.9494526793445908,0.0,0,False
2022-02-09,0.9494526793445908,0.9507234206326345,0.13383934931026076,2,True
2022-02-10,0.9507234206326345,0.953714784605101,0.31464082061594123,5,True
2022-02-11,0.953714784605101,0.9491527421187054,-0.4783445281583365,0,True
2022-02-12,0.9491527421187054,0.9396868683981995,-0.9972971999613112,4,True
2022-02-13,0.9396868683981995,0.9396868683981995,0.0,0,False
2022-02-14,0.9396868683981995,0.9396868683981995,0.0,0,False
2022-02-15,0.9396868683981995,0.9396868683981995,0.0,0,False
2022-02-16,0.9396868683981995,0.9396868683981995,0.0,0,False
2022-02-17,0.9396868683981995,0.9396868683981995,0.0,0,False
2022-02-18,0.9396868683981995,0.9396868683981995,0.0,0,False
2022-02-19,0.9396868683981995,0.9396868683981995,0.0,0,False
2022-02-20,0.9396868683981995,0.9396868683981995,0.0,0,False
2022-02-21,0.9396868683981995,0.9396868683981995,0.0,0,False
2022-02-22,0.9396868683981995,0.9395919774366065,-0.010098147030057625,2,True
2022-02-23,0.9395919774366065,0.9391921511889494,-0.042553178109072665,0,True
2022-02-24,0.9391921511889494,0.9298306932501536,-0.9967564067635104,4,True
2022-02-25,0.9298306932501536,0.9298306932501536,0.0,0,False
2022-02-26,0.9298306932501536,0.9298306932501536,0.0,0,False
2022-02-27,0.9298306932501536,0.9298306932501536,0.0,0,False
2022-02-28,0.9298306932501536,0.9310164020662033,0.12751878644758907,1,True
2022-03-01,0.9310164020662033,0.9324322404054404,0.15207447861229628,0,True
2022-03-02,0.9324322404054404,0.9324322404054404,0.0,0,False
2022-03-03,0.9324322404054404,0.9324322404054404,0.0,0,False
2022-03-04,0.9324322404054404,0.9311781352091961,-0.13449826613662896,1,True
2022-03-05,0.9311781352091961,0.9311781352091961,0.0,0,False
2022-03-06,0.9311781352091961,0.9281859807648709,-0.3213299723422991,3,True
2022-03-07,0.9281859807648709,0.9271990112996088,-0.10633315797862197,0,True
2022-03-08,0.9271990112996088,0.9277587682157691,0.060370741268989114,1,True
2022-03-09,0.9277587682157691,0.9320977156023105,0.4676805582647159,1,True
2022-03-10,0.9320977156023105,0.9312407096836154,-0.09194378490041677,3,True
2022-03-11,0.9312407096836154,0.9296401396433285,-0.1718750075724973,0,True
2022-03-12,0.9296401396433285,0.9296401396433285,0.0,0,False
2022-03-13,0.9296401396433285,0.9296401396433285,0.0,0,False
2022-03-14,0.9296401396433285,0.9278027677652494,-0.19764334603538103,1,True
2022-03-15,0.9278027677652494,0.9283092962530256,0.05459441439221724,1,True
2022-03-16,0.9283092962530256,0.9296004927664773,0.13909119715416196,1,True
2022-03-17,0.9296004927664773,0.9276306966670846,-0.2118970584374935,1,True
2022-03-18,0.9276306966670846,0.9272703646312406,-0.03884434151852911,0,True
2022-03-19,0.9272703646312406,0.9272703646312406,0.0,0,False
2022-03-20,0.9272703646312406,0.9254244386537346,-0.19907095577674783,1,True
2022-03-21,0.9254244386537346,0.9244216912713574,-0.10835540326078474,3,True
2022-03-22,0.9244216912713574,0.9244216912713574,0.0,0,False
2022-03-23,0.9244216912713574,0.9244216912713574,0.0,0,False
2022-03-24,0.9244216912713574,0.9244216912713574,0.0,0,False
2022-03-25,0.9244216912713574,0.9244216912713574,0.0,0,False
2022-03-26,0.9244216912713574,0.9244216912713574,0.0,0,False
2022-03-27,0.9244216912713574,0.9244216912713574,0.0,0,False
2022-03-28,0.9244216912713574,0.9244216912713574,0.0,0,False
2022-03-29,0.9244216912713574,0.9244216912713574,0.0,0,False
2022-03-30,0.9244216912713574,0.9233874098778524,-0.11188415452287881,4,True
2022-03-31,0.9233874098778524,0.9247943038533234,0.1523622653309742,5,True
2022-04-01,0.9247943038533234,0.9163206532846282,-0.9162740874795849,0,True
2022-04-02,0.9163206532846282,0.9163206532846282,0.0,0,False
2022-04-03,0.9163206532846282,0.9145586355692578,-0.1922926989645357,1,True
2022-04-04,0.9145586355692578,0.9145586355692578,0.0,0,False
2022-04-05,0.9145586355692578,0.9149957021243198,0.047789888812332926,3,True
2022-04-06,0.9149957021243198,0.9068857591098579,-0.88633673312708,9,True
2022-04-07,0.9068857591098579,0.9085364656896686,0.18201924147875914,1,True
2022-04-08,0.9085364656896686,0.9105824417415765,0.22519470920243645,0,True
2022-04-09,0.9105824417415765,0.9105824417415765,0.0,0,False
2022-04-10,0.9105824417415765,0.9105824417415765,0.0,0,False
2022-04-11,0.9105824417415765,0.9067578792917614,-0.42001276045914304,6,True
2022-04-12,0.9067578792917614,0.9029627922123975,-0.4185336754204072,0,True
2022-04-13,0.9029627922123975,0.9029627922123975,0.0,0,False
2022-04-14,0.9029627922123975,0.9029627922123975,0.0,0,False
2022-04-15,0.9029627922123975,0.9029627922123975,0.0,0,False
2022-04-16,0.9029627922123975,0.9029627922123975,0.0,0,False
2022-04-17,0.9029627922123975,0.9033074546155108,0.038170166709616815,1,True
2022-04-18,0.9033074546155108,0.9045177586764364,0.13398583779435924,6,True
2022-04-19,0.9045177586764364,0.9086384144639742,0.4555638347629065,0,True
2022-04-20,0.9086384144639742,0.9086384144639742,0.0,0,False
2022-04-21,0.9086384144639742,0.9099048776423231,0.13938032535152356,2,True
2022-04-22,0.9099048776423231,0.9076306623337266,-0.24993989640865744,0,True
2022-04-23,0.9076306623337266,0.9076306623337266,0.0,0,False
2022-04-24,0.9076306623337266,0.9076306623337266,0.0,0,False
2022-04-25,0.9076306623337266,0.9055877074415395,-0.22508658829728523,3,True
2022-04-26,0.9055877074415395,0.9035470966197539,-0.22533552576047278,2,True
2022-04-27,0.9035470966197539,0.9033943367482404,-0.01690668611352697,0,True
2022-04-28,0.9033943367482404,0.9033943367482404,0.0,0,False
2022-04-29,0.9033943367482404,0.9033943367482404,0.0,0,False
2022-04-30,0.9033943367482404,0.9023316906156066,-0.11762815964275752,1,True
2022-05-01,0.9023316906156066,0.9052534591707911,0.3238020547844389,6,True
2022-05-02,0.9052534591707911,0.9052534591707911,0.0,0,False
2022-05-03,0.9052534591707911,0.9058704669446614,0.06815856571655843,3,True
2022-05-04,0.9058704669446614,0.9020538007880513,-0.42132581819154247,1,True
2022-05-05,0.9020538007880513,0.9020538007880513,0.0,0,False
2022-05-06,0.9020538007880513,0.8957491537607511,-0.6989213971264618,6,True
2022-05-07,0.8957491537607511,0.8943542022824329,-0.15573014749292735,1,True
2022-05-08,0.8943542022824329,0.8943542022824329,0.0,0,False
2022-05-09,0.8943542022824329,0.8943542022824329,0.0,0,False
2022-05-10,0.8943542022824329,0.8943542022824329,0.0,0,False
2022-05-11,0.8943542022824329,0.8943542022824329,0.0,0,False
2022-05-12,0.8943542022824329,0.8943542022824329,0.0,0,False
2022-05-13,0.8943542022824329,0.8943542022824329,0.0,0,False
2022-05-14,0.8943542022824329,0.8943542022824329,0.0,0,False
2022-05-15,0.8943542022824329,0.8943542022824329,0.0,0,False
2022-05-16,0.8943542022824329,0.8943542022824329,0.0,0,False
2022-05-17,0.8943542022824329,0.8943542022824329,0.0,0,False
2022-05-18,0.8943542022824329,0.8943542022824329,0.0,0,False
2022-05-19,0.8943542022824329,0.8943542022824329,0.0,0,False
2022-05-20,0.8943542022824329,0.8943542022824329,0.0,0,False
2022-05-21,0.8943542022824329,0.8943542022824329,0.0,0,False
2022-05-22,0.8943542022824329,0.8943542022824329,0.0,0,False
2022-05-23,0.8943542022824329,0.8943542022824329,0.0,0,False
2022-05-24,0.8943542022824329,0.8943542022824329,0.0,0,False
2022-05-25,0.8943542022824329,0.8943542022824329,0.0,0,False
2022-05-26,0.8943542022824329,0.8943542022824329,0.0,0,False
2022-05-27,0.8943542022824329,0.8943542022824329,0.0,0,False
2022-05-28,0.8943542022824329,0.8943542022824329,0.0,0,False
2022-05-29,0.8943542022824329,0.8943542022824329,0.0,0,False
2022-05-30,0.8943542022824329,0.8943542022824329,0.0,0,False
2022-05-31,0.8943542022824329,0.8943542022824329,0.0,0,False
2022-06-01,0.8943542022824329,0.8943542022824329,0.0,0,False
2022-06-02,0.8943542022824329,0.8943542022824329,0.0,0,False
2022-06-03,0.8943542022824329,0.8943542022824329,0.0,0,False
2022-06-04,0.8943542022824329,0.8943542022824329,0.0,0,False
2022-06-05,0.8943542022824329,0.8943542022824329,0.0,0,False
2022-06-06,0.8943542022824329,0.8943542022824329,0.0,0,False
2022-06-07,0.8943542022824329,0.8943542022824329,0.0,0,False
2022-06-08,0.8943542022824329,0.8943542022824329,0.0,0,False
2022-06-09,0.8943542022824329,0.8943542022824329,0.0,0,False
2022-06-10,0.8943542022824329,0.8943542022824329,0.0,0,False
2022-06-11,0.8943542022824329,0.8943542022824329,0.0,0,False
2022-06-12,0.8943542022824329,0.8943542022824329,0.0,0,False
2022-06-13,0.8943542022824329,0.8943542022824329,0.0,0,False
2022-06-14,0.8943542022824329,0.8943542022824329,0.0,0,False
2022-06-15,0.8943542022824329,0.8943542022824329,0.0,0,False
2022-06-16,0.8943542022824329,0.8943542022824329,0.0,0,False
2022-06-17,0.8943542022824329,0.8943542022824329,0.0,0,False
2022-06-18,0.8943542022824329,0.8943542022824329,0.0,0,False
2022-06-19,0.8943542022824329,0.8943542022824329,0.0,0,False
2022-06-20,0.8943542022824329,0.8943542022824329,0.0,0,False
2022-06-21,0.8943542022824329,0.8943542022824329,0.0,0,False
2022-06-22,0.8943542022824329,0.8943542022824329,0.0,0,False
2022-06-23,0.8943542022824329,0.8943542022824329,0.0,0,False
2022-06-24,0.8943542022824329,0.8943542022824329,0.0,0,False
2022-06-25,0.8943542022824329,0.8943542022824329,0.0,0,False
2022-06-26,0.8943542022824329,0.8943542022824329,0.0,0,False
2022-06-27,0.8943542022824329,0.8943542022824329,0.0,0,False
2022-06-28,0.8943542022824329,0.8943542022824329,0.0,0,False
2022-06-29,0.8943542022824329,0.8943542022824329,0.0,0,False
2022-06-30,0.8943542022824329,0.8943542022824329,0.0,0,False
2022-07-01,0.8943542022824329,0.8943542022824329,0.0,0,False
2022-07-02,0.8943542022824329,0.8943542022824329,0.0,0,False
2022-07-03,0.8943542022824329,0.8943542022824329,0.0,0,False
2022-07-04,0.8943542022824329,0.8943542022824329,0.0,0,False
2022-07-05,0.8943542022824329,0.8943542022824329,0.0,0,False
2022-07-06,0.8943542022824329,0.8943542022824329,0.0,0,False
2022-07-07,0.8943542022824329,0.8943542022824329,0.0,0,False
2022-07-08,0.8943542022824329,0.8943542022824329,0.0,0,False
2022-07-09,0.8943542022824329,0.8943542022824329,0.0,0,False
2022-07-10,0.8943542022824329,0.8943542022824329,0.0,0,False
2022-07-11,0.8943542022824329,0.8943542022824329,0.0,0,False
2022-07-12,0.8943542022824329,0.8943542022824329,0.0,0,False
2022-07-13,0.8943542022824329,0.8943542022824329,0.0,0,False
2022-07-14,0.8943542022824329,0.8943542022824329,0.0,0,False
2022-07-15,0.8943542022824329,0.8943542022824329,0.0,0,False
2022-07-16,0.8943542022824329,0.8943542022824329,0.0,0,False
2022-07-17,0.8943542022824329,0.8943542022824329,0.0,0,False
2022-07-18,0.8943542022824329,0.8943542022824329,0.0,0,False
2022-07-19,0.8943542022824329,0.8943542022824329,0.0,0,False
2022-07-20,0.8943542022824329,0.8943542022824329,0.0,0,False
2022-07-21,0.8943542022824329,0.8943542022824329,0.0,0,False
2022-07-22,0.8943542022824329,0.8943542022824329,0.0,0,False
2022-07-23,0.8943542022824329,0.8943542022824329,0.0,0,False
2022-07-24,0.8943542022824329,0.8943542022824329,0.0,0,False
2022-07-25,0.8943542022824329,0.8943542022824329,0.0,0,False
2022-07-26,0.8943542022824329,0.8943542022824329,0.0,0,False
2022-07-27,0.8943542022824329,0.8943542022824329,0.0,0,False
2022-07-28,0.8943542022824329,0.8943542022824329,0.0,0,False
2022-07-29,0.8943542022824329,0.8943542022824329,0.0,0,False
2022-07-30,0.8943542022824329,0.8943542022824329,0.0,0,False
2022-07-31,0.8943542022824329,0.8943542022824329,0.0,0,False
2022-08-01,0.8943542022824329,0.8943542022824329,0.0,0,False
2022-08-02,0.8943542022824329,0.8943542022824329,0.0,0,False
2022-08-03,0.8943542022824329,0.8943542022824329,0.0,0,False
2022-08-04,0.8943542022824329,0.8943542022824329,0.0,0,False
2022-08-05,0.8943542022824329,0.8943542022824329,0.0,0,False
2022-08-06,0.8943542022824329,0.8943542022824329,0.0,0,False
2022-08-07,0.8943542022824329,0.8943542022824329,0.0,0,False
2022-08-08,0.8943542022824329,0.8943542022824329,0.0,0,False
2022-08-09,0.8943542022824329,0.8943542022824329,0.0,0,False
2022-08-10,0.8943542022824329,0.8943542022824329,0.0,0,False
2022-08-11,0.8943542022824329,0.8943542022824329,0.0,0,False
2022-08-12,0.8943542022824329,0.8943542022824329,0.0,0,False
2022-08-13,0.8943542022824329,0.8943542022824329,0.0,0,False
2022-08-14,0.8943542022824329,0.8943542022824329,0.0,0,False
2022-08-15,0.8943542022824329,0.8943542022824329,0.0,0,False
2022-08-16,0.8943542022824329,0.8943542022824329,0.0,0,False
2022-08-17,0.8943542022824329,0.8943542022824329,0.0,0,False
2022-08-18,0.8943542022824329,0.8943542022824329,0.0,0,False
2022-08-19,0.8943542022824329,0.8943542022824329,0.0,0,False
2022-08-20,0.8943542022824329,0.8943542022824329,0.0,0,False
2022-08-21,0.8943542022824329,0.8943542022824329,0.0,0,False
2022-08-22,0.8943542022824329,0.8943542022824329,0.0,0,False
2022-08-23,0.8943542022824329,0.8943542022824329,0.0,0,False
2022-08-24,0.8943542022824329,0.8943542022824329,0.0,0,False
2022-08-25,0.8943542022824329,0.8943542022824329,0.0,0,False
2022-08-26,0.8943542022824329,0.8943542022824329,0.0,0,False
2022-08-27,0.8943542022824329,0.8943542022824329,0.0,0,False
2022-08-28,0.8943542022824329,0.8943542022824329,0.0,0,False
2022-08-29,0.8943542022824329,0.8943542022824329,0.0,0,False
2022-08-30,0.8943542022824329,0.8943542022824329,0.0,0,False
2022-08-31,0.8943542022824329,0.8943542022824329,0.0,0,False
2022-09-01,0.8943542022824329,0.8943542022824329,0.0,0,False
2022-09-02,0.8943542022824329,0.8943542022824329,0.0,0,False
2022-09-03,0.8943542022824329,0.8943542022824329,0.0,0,False
2022-09-04,0.8943542022824329,0.8943542022824329,0.0,0,False
2022-09-05,0.8943542022824329,0.8943542022824329,0.0,0,False
2022-09-06,0.8943542022824329,0.8943542022824329,0.0,0,False
2022-09-07,0.8943542022824329,0.8943542022824329,0.0,0,False
2022-09-08,0.8943542022824329,0.8943542022824329,0.0,0,False
2022-09-09,0.8943542022824329,0.8943542022824329,0.0,0,False
2022-09-10,0.8943542022824329,0.8943542022824329,0.0,0,False
2022-09-11,0.8943542022824329,0.8943542022824329,0.0,0,False
2022-09-12,0.8943542022824329,0.8943542022824329,0.0,0,False
2022-09-13,0.8943542022824329,0.8943542022824329,0.0,0,False
2022-09-14,0.8943542022824329,0.8943542022824329,0.0,0,False
2022-09-15,0.8943542022824329,0.8943542022824329,0.0,0,False
2022-09-16,0.8943542022824329,0.8943542022824329,0.0,0,False
2022-09-17,0.8943542022824329,0.8943542022824329,0.0,0,False
2022-09-18,0.8943542022824329,0.8943542022824329,0.0,0,False
2022-09-19,0.8943542022824329,0.8943542022824329,0.0,0,False
2022-09-20,0.8943542022824329,0.8943542022824329,0.0,0,False
2022-09-21,0.8943542022824329,0.8943542022824329,0.0,0,False
2022-09-22,0.8943542022824329,0.8943542022824329,0.0,0,False
2022-09-23,0.8943542022824329,0.8943542022824329,0.0,0,False
2022-09-24,0.8943542022824329,0.8943542022824329,0.0,0,False
2022-09-25,0.8943542022824329,0.8943542022824329,0.0,0,False
2022-09-26,0.8943542022824329,0.8943542022824329,0.0,0,False
2022-09-27,0.8943542022824329,0.8943542022824329,0.0,0,False
2022-09-28,0.8943542022824329,0.8943542022824329,0.0,0,False
2022-09-29,0.8943542022824329,0.8943542022824329,0.0,0,False
2022-09-30,0.8943542022824329,0.8943542022824329,0.0,0,False
2022-10-01,0.8943542022824329,0.8943542022824329,0.0,0,False
2022-10-02,0.8943542022824329,0.8943542022824329,0.0,0,False
2022-10-03,0.8943542022824329,0.8943542022824329,0.0,0,False
2022-10-04,0.8943542022824329,0.8943542022824329,0.0,0,False
2022-10-05,0.8943542022824329,0.8943542022824329,0.0,0,False
2022-10-06,0.8943542022824329,0.8943542022824329,0.0,0,False
2022-10-07,0.8943542022824329,0.8943542022824329,0.0,0,False
2022-10-08,0.8943542022824329,0.8943542022824329,0.0,0,False
2022-10-09,0.8943542022824329,0.8943542022824329,0.0,0,False
2022-10-10,0.8943542022824329,0.8943542022824329,0.0,0,False
2022-10-11,0.8943542022824329,0.8943542022824329,0.0,0,False
2022-10-12,0.8943542022824329,0.8943542022824329,0.0,0,False
2022-10-13,0.8943542022824329,0.8943542022824329,0.0,0,False
2022-10-14,0.8943542022824329,0.8943542022824329,0.0,0,False
2022-10-15,0.8943542022824329,0.8943542022824329,0.0,0,False
2022-10-16,0.8943542022824329,0.8943542022824329,0.0,0,False
2022-10-17,0.8943542022824329,0.8943542022824329,0.0,0,False
2022-10-18,0.8943542022824329,0.8943542022824329,0.0,0,False
2022-10-19,0.8943542022824329,0.8943542022824329,0.0,0,False
2022-10-20,0.8943542022824329,0.8943542022824329,0.0,0,False
2022-10-21,0.8943542022824329,0.8943542022824329,0.0,0,False
2022-10-22,0.8943542022824329,0.8943542022824329,0.0,0,False
2022-10-23,0.8943542022824329,0.8943542022824329,0.0,0,False
2022-10-24,0.8943542022824329,0.8943542022824329,0.0,0,False
2022-10-25,0.8943542022824329,0.8943542022824329,0.0,0,False
2022-10-26,0.8943542022824329,0.8943542022824329,0.0,0,False
2022-10-27,0.8943542022824329,0.8943542022824329,0.0,0,False
2022-10-28,0.8943542022824329,0.8943542022824329,0.0,0,False
2022-10-29,0.8943542022824329,0.8943542022824329,0.0,0,False
2022-10-30,0.8943542022824329,0.8943542022824329,0.0,0,False
2022-10-31,0.8943542022824329,0.8943542022824329,0.0,0,False
2022-11-01,0.8943542022824329,0.8943542022824329,0.0,0,False
2022-11-02,0.8943542022824329,0.8943542022824329,0.0,0,False
2022-11-03,0.8943542022824329,0.8943542022824329,0.0,0,False
2022-11-04,0.8943542022824329,0.8943542022824329,0.0,0,False
2022-11-05,0.8943542022824329,0.8943542022824329,0.0,0,False
2022-11-06,0.8943542022824329,0.8943542022824329,0.0,0,False
2022-11-07,0.8943542022824329,0.8943542022824329,0.0,0,False
2022-11-08,0.8943542022824329,0.8943542022824329,0.0,0,False
2022-11-09,0.8943542022824329,0.8943542022824329,0.0,0,False
2022-11-10,0.8943542022824329,0.8943542022824329,0.0,0,False
2022-11-11,0.8943542022824329,0.8943542022824329,0.0,0,False
2022-11-12,0.8943542022824329,0.8943542022824329,0.0,0,False
2022-11-13,0.8943542022824329,0.8943542022824329,0.0,0,False
2022-11-14,0.8943542022824329,0.8943542022824329,0.0,0,False
2022-11-15,0.8943542022824329,0.8943542022824329,0.0,0,False
2022-11-16,0.8943542022824329,0.8943542022824329,0.0,0,False
2022-11-17,0.8943542022824329,0.8943542022824329,0.0,0,False
2022-11-18,0.8943542022824329,0.8943542022824329,0.0,0,False
2022-11-19,0.8943542022824329,0.8943542022824329,0.0,0,False
2022-11-20,0.8943542022824329,0.8943542022824329,0.0,0,False
2022-11-21,0.8943542022824329,0.8943542022824329,0.0,0,False
2022-11-22,0.8943542022824329,0.8943542022824329,0.0,0,False
2022-11-23,0.8943542022824329,0.8943542022824329,0.0,0,False
2022-11-24,0.8943542022824329,0.8943542022824329,0.0,0,False
2022-11-25,0.8943542022824329,0.8943542022824329,0.0,0,False
2022-11-26,0.8943542022824329,0.8943542022824329,0.0,0,False
2022-11-27,0.8943542022824329,0.8943542022824329,0.0,0,False
2022-11-28,0.8943542022824329,0.8943542022824329,0.0,0,False
2022-11-29,0.8943542022824329,0.8943542022824329,0.0,0,False
2022-11-30,0.8943542022824329,0.8943542022824329,0.0,0,False
2022-12-01,0.8943542022824329,0.8943542022824329,0.0,0,False
2022-12-02,0.8943542022824329,0.8943542022824329,0.0,0,False
2022-12-03,0.8943542022824329,0.8943542022824329,0.0,0,False
2022-12-04,0.8943542022824329,0.8943542022824329,0.0,0,False
2022-12-05,0.8943542022824329,0.8943542022824329,0.0,0,False
2022-12-06,0.8943542022824329,0.8943542022824329,0.0,0,False
2022-12-07,0.8943542022824329,0.8943542022824329,0.0,0,False
2022-12-08,0.8943542022824329,0.8943542022824329,0.0,0,False
2022-12-09,0.8943542022824329,0.8943542022824329,0.0,0,False
2022-12-10,0.8943542022824329,0.8943542022824329,0.0,0,False
2022-12-11,0.8943542022824329,0.8943542022824329,0.0,0,False
2022-12-12,0.8943542022824329,0.8943542022824329,0.0,0,False
2022-12-13,0.8943542022824329,0.8943542022824329,0.0,0,False
2022-12-14,0.8943542022824329,0.8943542022824329,0.0,0,False
2022-12-15,0.8943542022824329,0.8943542022824329,0.0,0,False
2022-12-16,0.8943542022824329,0.8943542022824329,0.0,0,False
2022-12-17,0.8943542022824329,0.8943542022824329,0.0,0,False
2022-12-18,0.8943542022824329,0.8943542022824329,0.0,0,False
2022-12-19,0.8943542022824329,0.8943542022824329,0.0,0,False
2022-12-20,0.8943542022824329,0.8943542022824329,0.0,0,False
2022-12-21,0.8943542022824329,0.8943542022824329,0.0,0,False
2022-12-22,0.8943542022824329,0.8943542022824329,0.0,0,False
2022-12-23,0.8943542022824329,0.8943542022824329,0.0,0,False
2022-12-24,0.8943542022824329,0.8943542022824329,0.0,0,False
2022-12-25,0.8943542022824329,0.8943542022824329,0.0,0,False
2022-12-26,0.8943542022824329,0.8943542022824329,0.0,0,False
2022-12-27,0.8943542022824329,0.8943542022824329,0.0,0,False
2022-12-28,0.8943542022824329,0.8943542022824329,0.0,0,False
2022-12-29,0.8943542022824329,0.8943542022824329,0.0,0,False
2022-12-30,0.8943542022824329,0.8943542022824329,0.0,0,False
2022-12-31,0.8943542022824329,0.8943542022824329,0.0,0,False
2023-01-01,0.8943542022824329,0.8943542022824329,0.0,0,False
2023-01-02,0.8943542022824329,0.8943542022824329,0.0,0,False
2023-01-03,0.8943542022824329,0.8943542022824329,0.0,0,False
2023-01-04,0.8943542022824329,0.8943542022824329,0.0,0,False
2023-01-05,0.8943542022824329,0.8943542022824329,0.0,0,False
2023-01-06,0.8943542022824329,0.8943542022824329,0.0,0,False
2023-01-07,0.8943542022824329,0.8943542022824329,0.0,0,False
2023-01-08,0.8943542022824329,0.8943542022824329,0.0,0,False
2023-01-09,0.8943542022824329,0.8943542022824329,0.0,0,False
2023-01-10,0.8943542022824329,0.8943542022824329,0.0,0,False
2023-01-11,0.8943542022824329,0.8943542022824329,0.0,0,False
2023-01-12,0.8943542022824329,0.8943542022824329,0.0,0,False
2023-01-13,0.8943542022824329,0.8943542022824329,0.0,0,False
2023-01-14,0.8943542022824329,0.8943542022824329,0.0,0,False
2023-01-15,0.8943542022824329,0.8943542022824329,0.0,0,False
2023-01-16,0.8943542022824329,0.8943542022824329,0.0,0,False
2023-01-17,0.8943542022824329,0.8943542022824329,0.0,0,False
2023-01-18,0.8943542022824329,0.8943542022824329,0.0,0,False
2023-01-19,0.8943542022824329,0.8943542022824329,0.0,0,False
2023-01-20,0.8943542022824329,0.8943542022824329,0.0,0,False
2023-01-21,0.8943542022824329,0.8943542022824329,0.0,0,False
2023-01-22,0.8943542022824329,0.8943542022824329,0.0,0,False
2023-01-23,0.8943542022824329,0.8943542022824329,0.0,0,False
2023-01-24,0.8943542022824329,0.8943542022824329,0.0,0,False
2023-01-25,0.8943542022824329,0.8943542022824329,0.0,0,False
2023-01-26,0.8943542022824329,0.8943542022824329,0.0,0,False
2023-01-27,0.8943542022824329,0.8943542022824329,0.0,0,False
2023-01-28,0.8943542022824329,0.8943542022824329,0.0,0,False
2023-01-29,0.8943542022824329,0.8943542022824329,0.0,0,False
2023-01-30,0.8943542022824329,0.8943542022824329,0.0,0,False
2023-01-31,0.8943542022824329,0.8943542022824329,0.0,0,False
2023-02-01,0.8943542022824329,0.8943542022824329,0.0,0,False
2023-02-02,0.8943542022824329,0.8943542022824329,0.0,0,False
2023-02-03,0.8943542022824329,0.8943542022824329,0.0,0,False
2023-02-04,0.8943542022824329,0.8943542022824329,0.0,0,False
2023-02-05,0.8943542022824329,0.8943542022824329,0.0,0,False
2023-02-06,0.8943542022824329,0.8943542022824329,0.0,0,False
2023-02-07,0.8943542022824329,0.8943542022824329,0.0,0,False
2023-02-08,0.8943542022824329,0.8943542022824329,0.0,0,False
2023-02-09,0.8943542022824329,0.8943542022824329,0.0,0,False
2023-02-10,0.8943542022824329,0.8943542022824329,0.0,0,False
2023-02-11,0.8943542022824329,0.8943542022824329,0.0,0,False
2023-02-12,0.8943542022824329,0.8943542022824329,0.0,0,False
2023-02-13,0.8943542022824329,0.8943542022824329,0.0,0,False
2023-02-14,0.8943542022824329,0.8943542022824329,0.0,0,False
2023-02-15,0.8943542022824329,0.8943542022824329,0.0,0,False
2023-02-16,0.8943542022824329,0.8943542022824329,0.0,0,False
2023-02-17,0.8943542022824329,0.8943542022824329,0.0,0,False
2023-02-18,0.8943542022824329,0.8943542022824329,0.0,0,False
2023-02-19,0.8943542022824329,0.8943542022824329,0.0,0,False
2023-02-20,0.8943542022824329,0.8943542022824329,0.0,0,False
2023-02-21,0.8943542022824329,0.8943542022824329,0.0,0,False
2023-02-22,0.8943542022824329,0.8943542022824329,0.0,0,False
2023-02-23,0.8943542022824329,0.8943542022824329,0.0,0,False
2023-02-24,0.8943542022824329,0.8943542022824329,0.0,0,False
2023-02-25,0.8943542022824329,0.8943542022824329,0.0,0,False
2023-02-26,0.8943542022824329,0.8943542022824329,0.0,0,False
2023-02-27,0.8943542022824329,0.8943542022824329,0.0,0,False
2023-02-28,0.8943542022824329,0.8943542022824329,0.0,0,False
2023-03-01,0.8943542022824329,0.8943542022824329,0.0,0,False
2023-03-02,0.8943542022824329,0.8943542022824329,0.0,0,False
2023-03-03,0.8943542022824329,0.8943542022824329,0.0,0,False
2023-03-04,0.8943542022824329,0.8943542022824329,0.0,0,False
2023-03-05,0.8943542022824329,0.8943542022824329,0.0,0,False
2023-03-06,0.8943542022824329,0.8943542022824329,0.0,0,False
2023-03-07,0.8943542022824329,0.8943542022824329,0.0,0,False
2023-03-08,0.8943542022824329,0.8943542022824329,0.0,0,False
2023-03-09,0.8943542022824329,0.8943542022824329,0.0,0,False
2023-03-10,0.8943542022824329,0.8943542022824329,0.0,0,False
2023-03-11,0.8943542022824329,0.8943542022824329,0.0,0,False
2023-03-12,0.8943542022824329,0.8943542022824329,0.0,0,False
2023-03-13,0.8943542022824329,0.8943542022824329,0.0,0,False
2023-03-14,0.8943542022824329,0.8943542022824329,0.0,0,False
2023-03-15,0.8943542022824329,0.8943542022824329,0.0,0,False
2023-03-16,0.8943542022824329,0.8943542022824329,0.0,0,False
2023-03-17,0.8943542022824329,0.8943542022824329,0.0,0,False
2023-03-18,0.8943542022824329,0.8943542022824329,0.0,0,False
2023-03-19,0.8943542022824329,0.8943542022824329,0.0,0,False
2023-03-20,0.8943542022824329,0.8943542022824329,0.0,0,False
2023-03-21,0.8943542022824329,0.8943542022824329,0.0,0,False
2023-03-22,0.8943542022824329,0.8943542022824329,0.0,0,False
2023-03-23,0.8943542022824329,0.8943542022824329,0.0,0,False
2023-03-24,0.8943542022824329,0.8943542022824329,0.0,0,False
2023-03-25,0.8943542022824329,0.8943542022824329,0.0,0,False
2023-03-26,0.8943542022824329,0.8943542022824329,0.0,0,False
2023-03-27,0.8943542022824329,0.8943542022824329,0.0,0,False
2023-03-28,0.8943542022824329,0.8943542022824329,0.0,0,False
2023-03-29,0.8943542022824329,0.8943542022824329,0.0,0,False
2023-03-30,0.8943542022824329,0.8943542022824329,0.0,0,False
2023-03-31,0.8943542022824329,0.8943542022824329,0.0,0,False
2023-04-01,0.8943542022824329,0.8943542022824329,0.0,0,False
2023-04-02,0.8943542022824329,0.8943542022824329,0.0,0,False
2023-04-03,0.8943542022824329,0.8943542022824329,0.0,0,False
2023-04-04,0.8943542022824329,0.8943542022824329,0.0,0,False
2023-04-05,0.8943542022824329,0.8943542022824329,0.0,0,False
2023-04-06,0.8943542022824329,0.8943542022824329,0.0,0,False
2023-04-07,0.8943542022824329,0.8943542022824329,0.0,0,False
2023-04-08,0.8943542022824329,0.8943542022824329,0.0,0,False
2023-04-09,0.8943542022824329,0.8943542022824329,0.0,0,False
2023-04-10,0.8943542022824329,0.8943542022824329,0.0,0,False
2023-04-11,0.8943542022824329,0.8943542022824329,0.0,0,False
2023-04-12,0.8943542022824329,0.8943542022824329,0.0,0,False
2023-04-13,0.8943542022824329,0.8943542022824329,0.0,0,False
2023-04-14,0.8943542022824329,0.8943542022824329,0.0,0,False
2023-04-15,0.8943542022824329,0.8943542022824329,0.0,0,False
2023-04-16,0.8943542022824329,0.8943542022824329,0.0,0,False
2023-04-17,0.8943542022824329,0.8943542022824329,0.0,0,False
2023-04-18,0.8943542022824329,0.8943542022824329,0.0,0,False
2023-04-19,0.8943542022824329,0.8943542022824329,0.0,0,False
2023-04-20,0.8943542022824329,0.8943542022824329,0.0,0,False
2023-04-21,0.8943542022824329,0.8943542022824329,0.0,0,False
2023-04-22,0.8943542022824329,0.8943542022824329,0.0,0,False
2023-04-23,0.8943542022824329,0.8943542022824329,0.0,0,False
2023-04-24,0.8943542022824329,0.8943542022824329,0.0,0,False
2023-04-25,0.8943542022824329,0.8943542022824329,0.0,0,False
2023-04-26,0.8943542022824329,0.8943542022824329,0.0,0,False
2023-04-27,0.8943542022824329,0.8943542022824329,0.0,0,False
2023-04-28,0.8943542022824329,0.8943542022824329,0.0,0,False
2023-04-29,0.8943542022824329,0.8943542022824329,0.0,0,False
2023-04-30,0.8943542022824329,0.8943542022824329,0.0,0,False
2023-05-01,0.8943542022824329,0.8943542022824329,0.0,0,False
2023-05-02,0.8943542022824329,0.8943542022824329,0.0,0,False
2023-05-03,0.8943542022824329,0.8943542022824329,0.0,0,False
2023-05-04,0.8943542022824329,0.8943542022824329,0.0,0,False
2023-05-05,0.8943542022824329,0.8943542022824329,0.0,0,False
2023-05-06,0.8943542022824329,0.8943542022824329,0.0,0,False
2023-05-07,0.8943542022824329,0.8943542022824329,0.0,0,False
2023-05-08,0.8943542022824329,0.8943542022824329,0.0,0,False
2023-05-09,0.8943542022824329,0.8943542022824329,0.0,0,False
2023-05-10,0.8943542022824329,0.8943542022824329,0.0,0,False
2023-05-11,0.8943542022824329,0.8943542022824329,0.0,0,False
2023-05-12,0.8943542022824329,0.8943542022824329,0.0,0,False
2023-05-13,0.8943542022824329,0.8943542022824329,0.0,0,False
2023-05-14,0.8943542022824329,0.8943542022824329,0.0,0,False
2023-05-15,0.8943542022824329,0.8943542022824329,0.0,0,False
2023-05-16,0.8943542022824329,0.8943542022824329,0.0,0,False
2023-05-17,0.8943542022824329,0.8943542022824329,0.0,0,False
2023-05-18,0.8943542022824329,0.8943542022824329,0.0,0,False
2023-05-19,0.8943542022824329,0.8943542022824329,0.0,0,False
2023-05-20,0.8943542022824329,0.8943542022824329,0.0,0,False
2023-05-21,0.8943542022824329,0.8943542022824329,0.0,0,False
2023-05-22,0.8943542022824329,0.8943542022824329,0.0,0,False
2023-05-23,0.8943542022824329,0.8943542022824329,0.0,0,False
2023-05-24,0.8943542022824329,0.8943542022824329,0.0,0,False
2023-05-25,0.8943542022824329,0.8943542022824329,0.0,0,False
2023-05-26,0.8943542022824329,0.8943542022824329,0.0,0,False
2023-05-27,0.8943542022824329,0.8943542022824329,0.0,0,False
2023-05-28,0.8943542022824329,0.8943542022824329,0.0,0,False
2023-05-29,0.8943542022824329,0.8943542022824329,0.0,0,False
2023-05-30,0.8943542022824329,0.8943542022824329,0.0,0,False
2023-05-31,0.8943542022824329,0.8943542022824329,0.0,0,False
2023-06-01,0.8943542022824329,0.8943542022824329,0.0,0,False
2023-06-02,0.8943542022824329,0.8943542022824329,0.0,0,False
2023-06-03,0.8943542022824329,0.8943542022824329,0.0,0,False
2023-06-04,0.8943542022824329,0.8943542022824329,0.0,0,False
2023-06-05,0.8943542022824329,0.8943542022824329,0.0,0,False
2023-06-06,0.8943542022824329,0.8943542022824329,0.0,0,False
2023-06-07,0.8943542022824329,0.8943542022824329,0.0,0,False
2023-06-08,0.8943542022824329,0.8943542022824329,0.0,0,False
2023-06-09,0.8943542022824329,0.8943542022824329,0.0,0,False
2023-06-10,0.8943542022824329,0.8943542022824329,0.0,0,False
2023-06-11,0.8943542022824329,0.8943542022824329,0.0,0,False
2023-06-12,0.8943542022824329,0.8943542022824329,0.0,0,False
2023-06-13,0.8943542022824329,0.8943542022824329,0.0,0,False
2023-06-14,0.8943542022824329,0.8943542022824329,0.0,0,False
2023-06-15,0.8943542022824329,0.8943542022824329,0.0,0,False
2023-06-16,0.8943542022824329,0.8943542022824329,0.0,0,False
2023-06-17,0.8943542022824329,0.8943542022824329,0.0,0,False
2023-06-18,0.8943542022824329,0.8943542022824329,0.0,0,False
2023-06-19,0.8943542022824329,0.8943542022824329,0.0,0,False
2023-06-20,0.8943542022824329,0.8943542022824329,0.0,0,False
2023-06-21,0.8943542022824329,0.8943542022824329,0.0,0,False
2023-06-22,0.8943542022824329,0.8943542022824329,0.0,0,False
2023-06-23,0.8943542022824329,0.8943542022824329,0.0,0,False
2023-06-24,0.8943542022824329,0.8943542022824329,0.0,0,False
2023-06-25,0.8943542022824329,0.8943542022824329,0.0,0,False
2023-06-26,0.8943542022824329,0.8943542022824329,0.0,0,False
2023-06-27,0.8943542022824329,0.8943542022824329,0.0,0,False
2023-06-28,0.8943542022824329,0.8943542022824329,0.0,0,False
2023-06-29,0.8943542022824329,0.8943542022824329,0.0,0,False
2023-06-30,0.8943542022824329,0.8943542022824329,0.0,0,False
2023-07-01,0.8943542022824329,0.8943542022824329,0.0,0,False
2023-07-02,0.8943542022824329,0.8943542022824329,0.0,0,False
2023-07-03,0.8943542022824329,0.8943542022824329,0.0,0,False
2023-07-04,0.8943542022824329,0.8943542022824329,0.0,0,False
2023-07-05,0.8943542022824329,0.8943542022824329,0.0,0,False
2023-07-06,0.8943542022824329,0.8943542022824329,0.0,0,False
2023-07-07,0.8943542022824329,0.8943542022824329,0.0,0,False
2023-07-08,0.8943542022824329,0.8943542022824329,0.0,0,False
2023-07-09,0.8943542022824329,0.8943542022824329,0.0,0,False
2023-07-10,0.8943542022824329,0.8943542022824329,0.0,0,False
2023-07-11,0.8943542022824329,0.8943542022824329,0.0,0,False
2023-07-12,0.8943542022824329,0.8943542022824329,0.0,0,False
2023-07-13,0.8943542022824329,0.8943542022824329,0.0,0,False
2023-07-14,0.8943542022824329,0.8943542022824329,0.0,0,False
2023-07-15,0.8943542022824329,0.8943542022824329,0.0,0,False
2023-07-16,0.8943542022824329,0.8943542022824329,0.0,0,False
2023-07-17,0.8943542022824329,0.8943542022824329,0.0,0,False
2023-07-18,0.8943542022824329,0.8943542022824329,0.0,0,False
2023-07-19,0.8943542022824329,0.8943542022824329,0.0,0,False
2023-07-20,0.8943542022824329,0.8943542022824329,0.0,0,False
2023-07-21,0.8943542022824329,0.8943542022824329,0.0,0,False
2023-07-22,0.8943542022824329,0.8943542022824329,0.0,0,False
2023-07-23,0.8943542022824329,0.8943542022824329,0.0,0,False
2023-07-24,0.8943542022824329,0.8943542022824329,0.0,0,False
2023-07-25,0.8943542022824329,0.8943542022824329,0.0,0,False
2023-07-26,0.8943542022824329,0.8943542022824329,0.0,0,False
2023-07-27,0.8943542022824329,0.8943542022824329,0.0,0,False
2023-07-28,0.8943542022824329,0.8943542022824329,0.0,0,False
2023-07-29,0.8943542022824329,0.8943542022824329,0.0,0,False
2023-07-30,0.8943542022824329,0.8943542022824329,0.0,0,False
2023-07-31,0.8943542022824329,0.8943542022824329,0.0,0,False
2023-08-01,0.8943542022824329,0.8943542022824329,0.0,0,False
2023-08-02,0.8943542022824329,0.8943542022824329,0.0,0,False
2023-08-03,0.8943542022824329,0.8943542022824329,0.0,0,False
2023-08-04,0.8943542022824329,0.8943542022824329,0.0,0,False
2023-08-05,0.8943542022824329,0.8943542022824329,0.0,0,False
2023-08-06,0.8943542022824329,0.8943542022824329,0.0,0,False
2023-08-07,0.8943542022824329,0.8943542022824329,0.0,0,False
2023-08-08,0.8943542022824329,0.8943542022824329,0.0,0,False
2023-08-09,0.8943542022824329,0.8943542022824329,0.0,0,False
2023-08-10,0.8943542022824329,0.8943542022824329,0.0,0,False
2023-08-11,0.8943542022824329,0.8943542022824329,0.0,0,False
2023-08-12,0.8943542022824329,0.8943542022824329,0.0,0,False
2023-08-13,0.8943542022824329,0.8943542022824329,0.0,0,False
2023-08-14,0.8943542022824329,0.8943542022824329,0.0,0,False
2023-08-15,0.8943542022824329,0.8943542022824329,0.0,0,False
2023-08-16,0.8943542022824329,0.8943542022824329,0.0,0,False
2023-08-17,0.8943542022824329,0.8943542022824329,0.0,0,False
2023-08-18,0.8943542022824329,0.8943542022824329,0.0,0,False
2023-08-19,0.8943542022824329,0.8943542022824329,0.0,0,False
2023-08-20,0.8943542022824329,0.8943542022824329,0.0,0,False
2023-08-21,0.8943542022824329,0.8943542022824329,0.0,0,False
2023-08-22,0.8943542022824329,0.8943542022824329,0.0,0,False
2023-08-23,0.8943542022824329,0.8943542022824329,0.0,0,False
2023-08-24,0.8943542022824329,0.8943542022824329,0.0,0,False
2023-08-25,0.8943542022824329,0.8943542022824329,0.0,0,False
2023-08-26,0.8943542022824329,0.8943542022824329,0.0,0,False
2023-08-27,0.8943542022824329,0.8943542022824329,0.0,0,False
2023-08-28,0.8943542022824329,0.8943542022824329,0.0,0,False
2023-08-29,0.8943542022824329,0.8943542022824329,0.0,0,False
2023-08-30,0.8943542022824329,0.8943542022824329,0.0,0,False
2023-08-31,0.8943542022824329,0.8943542022824329,0.0,0,False
2023-09-01,0.8943542022824329,0.8943542022824329,0.0,0,False
2023-09-02,0.8943542022824329,0.8943542022824329,0.0,0,False
2023-09-03,0.8943542022824329,0.8943542022824329,0.0,0,False
2023-09-04,0.8943542022824329,0.8943542022824329,0.0,0,False
2023-09-05,0.8943542022824329,0.8943542022824329,0.0,0,False
2023-09-06,0.8943542022824329,0.8943542022824329,0.0,0,False
2023-09-07,0.8943542022824329,0.8943542022824329,0.0,0,False
2023-09-08,0.8943542022824329,0.8943542022824329,0.0,0,False
2023-09-09,0.8943542022824329,0.8943542022824329,0.0,0,False
2023-09-10,0.8943542022824329,0.8943542022824329,0.0,0,False
2023-09-11,0.8943542022824329,0.8943542022824329,0.0,0,False
2023-09-12,0.8943542022824329,0.8943542022824329,0.0,0,False
2023-09-13,0.8943542022824329,0.8943542022824329,0.0,0,False
2023-09-14,0.8943542022824329,0.8943542022824329,0.0,0,False
2023-09-15,0.8943542022824329,0.8943542022824329,0.0,0,False
2023-09-16,0.8943542022824329,0.8943542022824329,0.0,0,False
2023-09-17,0.8943542022824329,0.8943542022824329,0.0,0,False
2023-09-18,0.8943542022824329,0.8943542022824329,0.0,0,False
2023-09-19,0.8943542022824329,0.8943542022824329,0.0,0,False
2023-09-20,0.8943542022824329,0.8943542022824329,0.0,0,False
2023-09-21,0.8943542022824329,0.8943542022824329,0.0,0,False
2023-09-22,0.8943542022824329,0.8943542022824329,0.0,0,False
2023-09-23,0.8943542022824329,0.8943542022824329,0.0,0,False
2023-09-24,0.8943542022824329,0.8943542022824329,0.0,0,False
2023-09-25,0.8943542022824329,0.8943542022824329,0.0,0,False
2023-09-26,0.8943542022824329,0.8943542022824329,0.0,0,False
2023-09-27,0.8943542022824329,0.8943542022824329,0.0,0,False
2023-09-28,0.8943542022824329,0.8943542022824329,0.0,0,False
2023-09-29,0.8943542022824329,0.8943542022824329,0.0,0,False
2023-09-30,0.8943542022824329,0.8943542022824329,0.0,0,False
2023-10-01,0.8943542022824329,0.8943542022824329,0.0,0,False
2023-10-02,0.8943542022824329,0.8943542022824329,0.0,0,False
2023-10-03,0.8943542022824329,0.8943542022824329,0.0,0,False
2023-10-04,0.8943542022824329,0.8943542022824329,0.0,0,False
2023-10-05,0.8943542022824329,0.8943542022824329,0.0,0,False
2023-10-06,0.8943542022824329,0.8943542022824329,0.0,0,False
2023-10-07,0.8943542022824329,0.8943542022824329,0.0,0,False
2023-10-08,0.8943542022824329,0.8943542022824329,0.0,0,False
2023-10-09,0.8943542022824329,0.8943542022824329,0.0,0,False
2023-10-10,0.8943542022824329,0.8943542022824329,0.0,0,False
2023-10-11,0.8943542022824329,0.8943542022824329,0.0,0,False
2023-10-12,0.8943542022824329,0.8943542022824329,0.0,0,False
2023-10-13,0.8943542022824329,0.8943542022824329,0.0,0,False
2023-10-14,0.8943542022824329,0.8943542022824329,0.0,0,False
2023-10-15,0.8943542022824329,0.8943542022824329,0.0,0,False
2023-10-16,0.8943542022824329,0.8943542022824329,0.0,0,False
2023-10-17,0.8943542022824329,0.8943542022824329,0.0,0,False
2023-10-18,0.8943542022824329,0.8943542022824329,0.0,0,False
2023-10-19,0.8943542022824329,0.8943542022824329,0.0,0,False
2023-10-20,0.8943542022824329,0.8943542022824329,0.0,0,False
2023-10-21,0.8943542022824329,0.8943542022824329,0.0,0,False
2023-10-22,0.8943542022824329,0.8943542022824329,0.0,0,False
2023-10-23,0.8943542022824329,0.8943542022824329,0.0,0,False
2023-10-24,0.8943542022824329,0.8943542022824329,0.0,0,False
2023-10-25,0.8943542022824329,0.8943542022824329,0.0,0,False
2023-10-26,0.8943542022824329,0.8943542022824329,0.0,0,False
2023-10-27,0.8943542022824329,0.8943542022824329,0.0,0,False
2023-10-28,0.8943542022824329,0.8943542022824329,0.0,0,False
2023-10-29,0.8943542022824329,0.8943542022824329,0.0,0,False
2023-10-30,0.8943542022824329,0.8943542022824329,0.0,0,False
2023-10-31,0.8943542022824329,0.8943542022824329,0.0,0,False
2023-11-01,0.8943542022824329,0.8943542022824329,0.0,0,False
2023-11-02,0.8943542022824329,0.8943542022824329,0.0,0,False
2023-11-03,0.8943542022824329,0.8943542022824329,0.0,0,False
2023-11-04,0.8943542022824329,0.8943542022824329,0.0,0,False
2023-11-05,0.8943542022824329,0.8943542022824329,0.0,0,False
2023-11-06,0.8943542022824329,0.8943542022824329,0.0,0,False
2023-11-07,0.8943542022824329,0.8943542022824329,0.0,0,False
2023-11-08,0.8943542022824329,0.8943542022824329,0.0,0,False
2023-11-09,0.8943542022824329,0.8943542022824329,0.0,0,False
2023-11-10,0.8943542022824329,0.8943542022824329,0.0,0,False
2023-11-11,0.8943542022824329,0.8943542022824329,0.0,0,False
2023-11-12,0.8943542022824329,0.8943542022824329,0.0,0,False
2023-11-13,0.8943542022824329,0.8943542022824329,0.0,0,False
2023-11-14,0.8943542022824329,0.8943542022824329,0.0,0,False
2023-11-15,0.8943542022824329,0.8943542022824329,0.0,0,False
2023-11-16,0.8943542022824329,0.8943542022824329,0.0,0,False
2023-11-17,0.8943542022824329,0.8943542022824329,0.0,0,False
2023-11-18,0.8943542022824329,0.8943542022824329,0.0,0,False
2023-11-19,0.8943542022824329,0.8943542022824329,0.0,0,False
2023-11-20,0.8943542022824329,0.8943542022824329,0.0,0,False
2023-11-21,0.8943542022824329,0.8943542022824329,0.0,0,False
2023-11-22,0.8943542022824329,0.8943542022824329,0.0,0,False
2023-11-23,0.8943542022824329,0.8943542022824329,0.0,0,False
2023-11-24,0.8943542022824329,0.8943542022824329,0.0,0,False
2023-11-25,0.8943542022824329,0.8943542022824329,0.0,0,False
2023-11-26,0.8943542022824329,0.8943542022824329,0.0,0,False
2023-11-27,0.8943542022824329,0.8943542022824329,0.0,0,False
2023-11-28,0.8943542022824329,0.8943542022824329,0.0,0,False
2023-11-29,0.8943542022824329,0.8943542022824329,0.0,0,False
2023-11-30,0.8943542022824329,0.8943542022824329,0.0,0,False
2023-12-01,0.8943542022824329,0.8943542022824329,0.0,0,False
2023-12-02,0.8943542022824329,0.8943542022824329,0.0,0,False
2023-12-03,0.8943542022824329,0.8943542022824329,0.0,0,False
2023-12-04,0.8943542022824329,0.8943542022824329,0.0,0,False
2023-12-05,0.8943542022824329,0.8943542022824329,0.0,0,False
2023-12-06,0.8943542022824329,0.8943542022824329,0.0,0,False
2023-12-07,0.8943542022824329,0.8943542022824329,0.0,0,False
2023-12-08,0.8943542022824329,0.8943542022824329,0.0,0,False
2023-12-09,0.8943542022824329,0.8943542022824329,0.0,0,False
2023-12-10,0.8943542022824329,0.8943542022824329,0.0,0,False
2023-12-11,0.8943542022824329,0.8943542022824329,0.0,0,False
2023-12-12,0.8943542022824329,0.8943542022824329,0.0,0,False
2023-12-13,0.8943542022824329,0.8943542022824329,0.0,0,False
2023-12-14,0.8943542022824329,0.8943542022824329,0.0,0,False
2023-12-15,0.8943542022824329,0.8943542022824329,0.0,0,False
2023-12-16,0.8943542022824329,0.8943542022824329,0.0,0,False
2023-12-17,0.8943542022824329,0.8943542022824329,0.0,0,False
2023-12-18,0.8943542022824329,0.8943542022824329,0.0,0,False
2023-12-19,0.8943542022824329,0.8943542022824329,0.0,0,False
2023-12-20,0.8943542022824329,0.8943542022824329,0.0,0,False
2023-12-21,0.8943542022824329,0.8943542022824329,0.0,0,False
2023-12-22,0.8943542022824329,0.8943542022824329,0.0,0,False
2023-12-23,0.8943542022824329,0.8943542022824329,0.0,0,False
2023-12-24,0.8943542022824329,0.8943542022824329,0.0,0,False
2023-12-25,0.8943542022824329,0.8943542022824329,0.0,0,False
2023-12-26,0.8943542022824329,0.8943542022824329,0.0,0,False
2023-12-27,0.8943542022824329,0.8943542022824329,0.0,0,False
2023-12-28,0.8943542022824329,0.8943542022824329,0.0,0,False
2023-12-29,0.8943542022824329,0.8943542022824329,0.0,0,False
2023-12-30,0.8943542022824329,0.8943542022824329,0.0,0,False
2023-12-31,0.8943542022824329,0.8943542022824329,0.0,0,False
