day,start_equity,end_equity,return_pct,entries,active
2024-01-02,1.0103467882541273,1.0162250244680167,0.581803820453275,1,True
2024-01-03,1.0162250244680167,1.0082881326417523,-0.7810171600939664,11,True
2024-01-04,1.0082881326417523,1.0346848246143419,2.617971105484429,12,True
2024-01-05,1.0346848246143419,1.02208412540302,-1.2178297111894443,8,True
2024-01-06,1.02208412540302,1.0190270294784316,-0.2991041391414706,8,True
2024-01-07,1.0190270294784316,1.0235098321850453,0.43991008844075363,9,True
2024-01-08,1.0235098321850453,0.9900196022620414,-3.2720965514817846,13,True
2024-01-09,0.9900196022620414,0.9891197073638198,-0.09089667478962005,6,True
2024-01-10,0.9891197073638198,0.9632807640096039,-2.612317110037299,8,True
2024-01-11,0.9632807640096039,0.9606258387197275,-0.2756128212116904,6,True
2024-01-12,0.9606258387197275,0.964110815991615,0.362781962697567,8,True
2024-01-13,0.964110815991615,0.9782555356050099,1.467125913201861,12,True
2024-01-14,0.9782555356050099,0.9758141263961168,-0.24956763545255223,1,True
2024-01-15,0.9758141263961168,0.9820095058081316,0.6348933925455436,5,True
2024-01-16,0.9820095058081316,0.9717393852876216,-1.0458269965582856,2,True
2024-01-17,0.9717393852876216,0.9717393852876216,0.0,0,False
2024-01-18,0.9717393852876216,0.9684166669555818,-0.3419351301744644,2,True
2024-01-19,0.9684166669555818,0.964770289269503,-0.3765298358135327,1,True
2024-01-20,0.964770289269503,0.9910449466680866,2.723410711422103,12,True
2024-01-21,0.9910449466680866,0.9802093021053419,-1.0933555132059736,3,True
2024-01-22,0.9802093021053419,0.963407388833591,-1.7141148564559505,4,True
2024-01-23,0.963407388833591,0.9382140223030285,-2.6150273313830796,11,True
2024-01-24,0.9382140223030285,0.9351356931977967,-0.32810521182314867,1,True
2024-01-25,0.9351356931977967,0.928009614045014,-0.7620369112865566,4,True
2024-01-26,0.928009614045014,0.9305428898560699,0.27297947916873344,1,True
2024-01-27,0.9305428898560699,0.9305428898560699,0.0,0,False
2024-01-28,0.9305428898560699,0.9274850473960655,-0.3286084385081267,2,True
2024-01-29,0.9274850473960655,0.9274850473960655,0.0,0,False
2024-01-30,0.9274850473960655,0.9274850473960655,0.0,0,False
2024-01-31,0.9274850473960655,0.9232222688291117,-0.45960617682426763,1,True
2024-02-01,0.9232222688291117,0.9232222688291117,0.0,0,False
2024-02-02,0.9232222688291117,0.9227882816430941,-0.04700787672377027,3,True
2024-02-03,0.9227882816430941,0.9287796516875773,0.6492681109707021,1,True
2024-02-04,0.9287796516875773,0.9287090493415693,-0.007601624979580723,1,True
2024-02-05,0.9287090493415693,0.9287090493415693,0.0,0,False
2024-02-06,0.9287090493415693,0.9204509709904635,-0.8891997291251341,2,True
2024-02-07,0.9204509709904635,0.9196744333113509,-0.0843649149804171,5,True
2024-02-08,0.9196744333113509,0.9348696586084319,1.6522396129214467,1,True
2024-02-09,0.9348696586084319,0.9348696586084319,0.0,0,False
2024-02-10,0.9348696586084319,0.9271459715888528,-0.8261779541627101,3,True
2024-02-11,0.9271459715888528,0.9271459715888528,0.0,0,False
2024-02-12,0.9271459715888528,0.9298107805544021,0.287420648658232,3,True
2024-02-13,0.9298107805544021,0.9298107805544021,0.0,0,False
2024-02-14,0.9298107805544021,0.9317591295126976,0.20954252188103428,2,True
2024-02-15,0.9317591295126976,0.9563055070407036,2.6344123444053125,7,True
2024-02-16,0.9563055070407036,0.931796584219367,-2.562875842593415,6,True
2024-02-17,0.931796584219367,0.9168966881769475,-1.5990502964659647,6,True
2024-02-18,0.9168966881769475,0.9164561611863911,-0.048045433715360186,4,True
2024-02-19,0.9164561611863911,0.9091343595342006,-0.7989254655358602,6,True
2024-02-20,0.9091343595342006,0.9016846631275606,-0.8194274397963497,13,True
2024-02-21,0.9016846631275606,0.8878592511150734,-1.5332868105500164,10,True
2024-02-22,0.8878592511150734,0.9087451762182412,2.3523914490880093,5,True
2024-02-23,0.9087451762182412,0.8932735742617761,-1.7025236954599787,7,True
2024-02-24,0.8932735742617761,0.8787121849489731,-1.6301153120797274,10,True
2024-02-25,0.8787121849489731,0.8631350665736479,-1.7727213349419624,9,True
2024-02-26,0.8631350665736479,0.8590723576228975,-0.4706921440323364,11,True
2024-02-27,0.8590723576228975,0.8514951494567905,-0.8820221136056072,9,True
2024-02-28,0.8514951494567905,0.8907848685708692,4.614203514740334,11,True
2024-02-29,0.8907848685708692,0.8602822836977894,-3.4242369790156713,20,True
2024-03-01,0.8602822836977894,0.8419552433462519,-2.130351943638953,11,True
2024-03-02,0.8419552433462519,0.8238850339527706,-2.1462197113546577,16,True
2024-03-03,0.8238850339527706,0.8576038835062129,4.092664408730506,17,True
2024-03-04,0.8576038835062129,0.8789536180043223,2.4894633651638243,4,True
2024-03-05,0.8789536180043223,0.8954064664094102,1.8718676467188722,22,True
2024-03-06,0.8954064664094102,0.8698590283029601,-2.853166585773681,31,True
2024-03-07,0.8698590283029601,0.8617030803394846,-0.9376172113068959,11,True
2024-03-08,0.8617030803394846,0.8605700155691679,-0.13149132179849365,9,True
2024-03-09,0.8605700155691679,0.8628467469260559,0.26456085102875004,13,True
2024-03-10,0.8628467469260559,0.8794217141609941,1.9209630556048962,13,True
2024-03-11,0.8794217141609941,0.8902739664351785,1.2340214142355865,13,True
2024-03-12,0.8902739664351785,0.8964130781644143,0.68957556445437,11,True
2024-03-13,0.8964130781644143,0.8909133080706154,-0.6135307736764295,8,True
2024-03-14,0.8909133080706154,0.9024306174717981,1.2927530991904135,6,True
2024-03-15,0.9024306174717981,0.8757168452961956,-2.960202331171158,22,True
2024-03-16,0.8757168452961956,0.8746745596586654,-0.11902085053276945,4,True
2024-03-17,0.8746745596586654,0.8588626550187748,-1.8077471746818619,9,True
2024-03-18,0.8588626550187748,0.8588129280753192,-0.005789859783167373,5,True
2024-03-19,0.8588129280753192,0.8116901071253205,-5.486971540543218,21,True
2024-03-20,0.8116901071253205,0.795791757137278,-1.958672385985838,8,True
2024-03-21,0.795791757137278,0.7895421576028027,-0.7853310213914777,6,True
2024-03-22,0.7895421576028027,0.7862653316673487,-0.415028621828506,12,True
2024-03-23,0.7862653316673487,0.7917480103078421,0.6973064205777701,8,True
2024-03-24,0.7917480103078421,0.7817450959583291,-1.263396209309553,7,True
2024-03-25,0.7817450959583291,0.7924831656225598,1.3736024338044661,4,True
2024-03-26,0.7924831656225598,0.8157054783444628,2.9303225266192223,10,True
2024-03-27,0.8157054783444628,0.8090544532118,-0.8153709039887214,11,True
2024-03-28,0.8090544532118,0.7838742001256345,-3.1123063455376188,7,True
2024-03-29,0.7838742001256345,0.7777880885053933,-0.7764143301649318,9,True
2024-03-30,0.7777880885053933,0.7711769922955519,-0.8499868161449098,4,True
2024-03-31,0.7711769922955519,0.7676779404517572,-0.4537287650892119,1,True
2024-04-01,0.7676779404517572,0.7663439267233092,-0.1737725754712871,7,True
2024-04-02,0.7663439267233092,0.7621040168587755,-0.5532646265838492,9,True
2024-04-03,0.7621040168587755,0.7790023860607672,2.217331076621676,5,True
2024-04-04,0.7790023860607672,0.7773270883433554,-0.21505681463742654,3,True
2024-04-05,0.7773270883433554,0.7614785615302543,-2.0388491602521652,5,True
2024-04-06,0.7614785615302543,0.7494387059164626,-1.5811155063376492,3,True
2024-04-07,0.7494387059164626,0.7594114666525575,1.3306973148524026,4,True
2024-04-08,0.7594114666525575,0.7518604229565252,-0.9943283750134646,2,True
2024-04-09,0.7518604229565252,0.7406993256925579,-1.4844639940055249,3,True
2024-04-10,0.7406993256925579,0.7239088740295138,-2.2668377141217166,7,True
2024-04-11,0.7239088740295138,0.7203140874844273,-0.4965799804437676,1,True
2024-04-12,0.7203140874844273,0.7155440234086595,-0.6622200174407733,11,True
2024-04-13,0.7155440234086595,0.7118265385511959,-0.5195326542949075,18,True
2024-04-14,0.7118265385511959,0.680329501623532,-4.424819140878178,26,True
2024-04-15,0.680329501623532,0.6825912896603868,0.33245479307562054,6,True
2024-04-16,0.6825912896603868,0.6788613756798975,-0.546434453089073,1,True
2024-04-17,0.6788613756798975,0.6742139061343002,-0.6845977267365799,2,True
2024-04-18,0.6742139061343002,0.6736392203781044,-0.08523789719657726,1,True
2024-04-19,0.6736392203781044,0.6954140714126794,3.232420318750595,10,True
2024-04-20,0.6954140714126794,0.6954140714126794,0.0,0,False
2024-04-21,0.6954140714126794,0.6954140714126794,0.0,0,False
2024-04-22,0.6954140714126794,0.6954140714126794,0.0,0,False
2024-04-23,0.6954140714126794,0.6876747410195312,-1.1129096622141121,4,True
2024-04-24,0.6876747410195312,0.6805214722986435,-1.0402110611598792,6,True
2024-04-25,0.6805214722986435,0.6806855403469722,0.024109165545427302,5,True
2024-04-26,0.6806855403469722,0.6828496499878614,0.31793089651737105,2,True
2024-04-27,0.6828496499878614,0.685428476757386,0.3776565997464454,6,True
2024-04-28,0.685428476757386,0.6872480953871902,0.2654717000397211,3,True
2024-04-29,0.6872480953871902,0.6847806999272275,-0.3590254344135624,3,True
2024-04-30,0.6847806999272275,0.6779857246927031,-0.9922848636426895,2,True
2024-05-01,0.6779857246927031,0.6732347418785157,-0.7007496826486714,6,True
2024-05-02,0.6732347418785157,0.6680650730694282,-0.7678850314026708,5,True
2024-05-03,0.6680650730694282,0.663262979850912,-0.7188062079720781,3,True
2024-05-04,0.663262979850912,0.663262979850912,0.0,0,False
2024-05-05,0.663262979850912,0.6599609072005819,-0.49785269955400224,1,True
2024-05-06,0.6599609072005819,0.6566699595227653,-0.49865797229962094,1,True
2024-05-07,0.6566699595227653,0.6573969380844771,0.11070684004490516,4,True
2024-05-08,0.6573969380844771,0.6566188957691562,-0.11835198344365416,3,True
2024-05-09,0.6566188957691562,0.6431546383902201,-2.050543696760998,12,True
2024-05-10,0.6431546383902201,0.6385335900492524,-0.7184972423636693,5,True
2024-05-11,0.6385335900492524,0.6340974630362983,-0.6947366719755266,4,True
2024-05-12,0.6340974630362983,0.6299294746938687,-0.6573103640048816,1,True
2024-05-13,0.6299294746938687,0.634351794430324,0.70203410288181,5,True
2024-05-14,0.634351794430324,0.6324512664079358,-0.2996015837071764,4,True
2024-05-15,0.6324512664079358,0.6281749835804122,-0.6761442429882525,3,True
2024-05-16,0.6281749835804122,0.620271294319351,-1.2581986656030941,4,True
2024-05-17,0.620271294319351,0.6192997891485842,-0.15662584737745622,1,True
2024-05-18,0.6192997891485842,0.6173366775705822,-0.3169888981717439,2,True
2024-05-19,0.6173366775705822,0.6173366775705822,0.0,0,False
2024-05-20,0.6173366775705822,0.6177794762350313,0.07172725686599435,2,True
2024-05-21,0.6177794762350313,0.6146957456296005,-0.49916365370764604,4,True
2024-05-22,0.6146957456296005,0.6169460261064861,0.366080372751032,1,True
2024-05-23,0.6169460261064861,0.6086267551680727,-1.3484600899232313,8,True
2024-05-24,0.6086267551680727,0.6094067115024197,0.12815018855547589,6,True
2024-05-25,0.6094067115024197,0.6063053771749605,-0.5089104318876325,3,True
2024-05-26,0.6063053771749605,0.6105279957427042,0.6964507864698044,3,True
2024-05-27,0.6105279957427042,0.6077709271109922,-0.45158758499813656,5,True
2024-05-28,0.6077709271109922,0.6045897909671044,-0.523410384074996,2,True
2024-05-29,0.6045897909671044,0.6002193750430653,-0.7228729279480817,4,True
2024-05-30,0.6002193750430653,0.5883283824273492,-1.9811077599524274,6,True
2024-05-31,0.5883283824273492,0.5792669093388844,-1.5402066871359588,4,True
2024-06-01,0.5792669093388844,0.5729187576548217,-1.0958940657093241,3,True
2024-06-02,0.5729187576548217,0.5676545833589974,-0.9188343417786737,5,True
2024-06-03,0.5676545833589974,0.5535896963485748,-2.4777192720256247,13,True
2024-06-04,0.5535896963485748,0.5503024386217602,-0.5938076066980713,10,True
2024-06-05,0.5503024386217602,0.5503130891952223,0.001935403646169398,0,True
2024-06-06,0.5503130891952223,0.5459073779495978,-0.8005826741405375,3,True
2024-06-07,0.5459073779495978,0.5446232468940356,-0.2352287416200971,0,True
2024-06-08,0.5446232468940356,0.5591731885790979,2.671560894258551,10,True
2024-06-09,0.5591731885790979,0.5595528109270749,0.06788994102910895,3,True
2024-06-10,0.5595528109270749,0.5570603012407912,-0.44544672774569083,0,True
2024-06-11,0.5570603012407912,0.5464258380023846,-1.9090326872547636,4,True
2024-06-12,0.5464258380023846,0.5397734308342654,-1.2174400816108877,4,True
2024-06-13,0.5397734308342654,0.5349537627882913,-0.8929057583521471,4,True
2024-06-14,0.5349537627882913,0.5289761451076379,-1.1174082876801994,6,True
2024-06-15,0.5289761451076379,0.5396886912640002,2.0251473068189974,5,True
2024-06-16,0.5396886912640002,0.5396886912640002,0.0,0,False
2024-06-17,0.5396886912640002,0.5345358876035695,-0.9547733246665469,4,True
2024-06-18,0.5345358876035695,0.5416424603500969,1.3294846821955364,6,True
2024-06-19,0.5416424603500969,0.5367573183866424,-0.9019126676843015,3,True
2024-06-20,0.5367573183866424,0.5377325931926551,0.18169753305723457,1,True
2024-06-21,0.5377325931926551,0.5355553064215269,-0.4049013949853908,1,True
2024-06-22,0.5355553064215269,0.530059633712562,-1.0261634313150303,3,True
2024-06-23,0.530059633712562,0.5311702904982982,0.20953430804702133,2,True
2024-06-24,0.5311702904982982,0.5359339119526879,0.8968162451105544,2,True
2024-06-25,0.5359339119526879,0.5430845016251316,1.334229746050264,1,True
2024-06-26,0.5430845016251316,0.5441398095648284,0.19431744720002087,0,True
2024-06-27,0.5441398095648284,0.5416278820616912,-0.46163273831152374,2,True
2024-06-28,0.5416278820616912,0.5390938979947135,-0.4678459420021319,2,True
2024-06-29,0.5390938979947135,0.5263923295185509,-2.3560957605732735,7,True
2024-06-30,0.5263923295185509,0.5250733694680959,-0.25056597075822085,1,True
2024-07-01,0.5250733694680959,0.5207573833781414,-0.8219777160526465,2,True
2024-07-02,0.5207573833781414,0.5207573833781414,0.0,0,False
2024-07-03,0.5207573833781414,0.5181686518710775,-0.4971089397275197,1,True
2024-07-04,0.5181686518710775,0.5169974257124431,-0.226031843957597,5,True
2024-07-05,0.5169974257124431,0.4846519434149828,-6.25641070705274,22,True
2024-07-06,0.4846519434149828,0.48456139488397565,-0.018683208070746637,5,True
2024-07-07,0.48456139488397565,0.4850865934561801,0.10838638359340624,3,True
2024-07-08,0.4850865934561801,0.48763242522475836,0.5248200636590594,2,True
2024-07-09,0.48763242522475836,0.4889937361955951,0.27916744260994,2,True
2024-07-10,0.4889937361955951,0.4908919498206485,0.3881877178676385,1,True
2024-07-11,0.4908919498206485,0.48423363424327187,-1.3563709039859595,3,True
2024-07-12,0.48423363424327187,0.4842683838676827,0.007176210397918936,0,True
2024-07-13,0.4842683838676827,0.4811852406548,-0.6366600248107646,2,True
2024-07-14,0.4811852406548,0.477978223905035,-0.6664827760304637,3,True
2024-07-15,0.477978223905035,0.477978223905035,0.0,0,False
2024-07-16,0.477978223905035,0.478626740211593,0.1356790485683046,3,True
2024-07-17,0.478626740211593,0.4774040873513445,-0.25545017808825676,2,True
2024-07-18,0.4774040873513445,0.4774040873513445,0.0,0,False
2024-07-19,0.4774040873513445,0.474420589574565,-0.6249418167598941,2,True
2024-07-20,0.474420589574565,0.4741210265865288,-0.06314291466666955,3,True
2024-07-21,0.4741210265865288,0.4726906607480641,-0.3016879147425211,1,True
2024-07-22,0.4726906607480641,0.4737499584270451,0.22409955747899613,1,True
2024-07-23,0.4737499584270451,0.4736859504508435,-0.013510919645065567,3,True
2024-07-24,0.4736859504508435,0.4751781381393317,0.3150162437935755,1,True
2024-07-25,0.4751781381393317,0.4729089521488356,-0.4775442741077218,3,True
2024-07-26,0.4729089521488356,0.46909065678783823,-0.8074060225858548,1,True
2024-07-27,0.46909065678783823,0.4739402090794671,1.0338198430207113,3,True
2024-07-28,0.4739402090794671,0.4678782568723619,-1.2790542121081772,3,True
2024-07-29,0.4678782568723619,0.4678782568723619,0.0,0,False
2024-07-30,0.4678782568723619,0.4657561332309784,-0.4535632101327569,2,True
2024-07-31,0.4657561332309784,0.4547833851879375,-2.355899849760934,8,True
2024-08-01,0.4547833851879375,0.451892310884308,-0.6357035893988949,1,True
2024-08-02,0.451892310884308,0.4439116141770325,-1.7660616290766318,4,True
2024-08-03,0.4439116141770325,0.44117126840158744,-0.6173178821927028,9,True
2024-08-04,0.44117126840158744,0.4264287879119393,-3.341668314680102,7,True
2024-08-05,0.4264287879119393,0.42293182392884077,-0.8200581391846984,27,True
2024-08-06,0.42293182392884077,0.4237203842893531,0.18645093981979333,0,True
2024-08-07,0.4237203842893531,0.42342915568185113,-0.06873131864788551,1,True
2024-08-08,0.42342915568185113,0.42160956266141847,-0.4297278531759541,0,True
2024-08-09,0.42160956266141847,0.42160956266141847,0.0,0,False
2024-08-10,0.42160956266141847,0.42160956266141847,0.0,0,False
2024-08-11,0.42160956266141847,0.42168437221574484,0.017743799228409074,1,True
2024-08-12,0.42168437221574484,0.426632117934862,1.1733291639714372,3,True
2024-08-13,0.426632117934862,0.42386039964580124,-0.6496740804413426,0,True
2024-08-14,0.42386039964580124,0.42386039964580124,0.0,0,False
2024-08-15,0.42386039964580124,0.42386039964580124,0.0,0,False
2024-08-16,0.42386039964580124,0.42386039964580124,0.0,0,False
2024-08-17,0.42386039964580124,0.42914574919001075,1.2469552590018251,1,True
2024-08-18,0.42914574919001075,0.441527960798372,2.885316149986794,4,True
2024-08-19,0.441527960798372,0.4362162208451251,-1.203035917281925,8,True
2024-08-20,0.4362162208451251,0.43343770197443493,-0.6369590899914512,4,True
2024-08-21,0.43343770197443493,0.43127735420891106,-0.4984217468122498,1,True
2024-08-22,0.43127735420891106,0.43230122224432915,0.23740361635637974,2,True
2024-08-23,0.43230122224432915,0.43230122224432915,0.0,0,False
2024-08-24,0.43230122224432915,0.4316572175069778,-0.1489712969137469,3,True
2024-08-25,0.4316572175069778,0.4304970010733595,-0.26878189140890907,2,True
2024-08-26,0.4304970010733595,0.4264234234974738,-0.94624993106317,2,True
2024-08-27,0.4264234234974738,0.42627590198770643,-0.03459507654561822,1,True
2024-08-28,0.42627590198770643,0.42736008850907853,0.25433915365999926,4,True
2024-08-29,0.42736008850907853,0.4248291691932779,-0.5922217314747846,3,True
2024-08-30,0.4248291691932779,0.4248291691932779,0.0,0,False
2024-08-31,0.4248291691932779,0.4248291691932779,0.0,0,False
2024-09-01,0.4248291691932779,0.42271467125013606,-0.4977289923752459,1,True
2024-09-02,0.42271467125013606,0.423534716980179,0.19399509546658145,1,True
2024-09-03,0.423534716980179,0.42511071968804975,0.372107089380469,1,True
2024-09-04,0.42511071968804975,0.42439433122787956,-0.16851808881598318,0,True
2024-09-05,0.42439433122787956,0.42129085346345563,-0.7312722004190753,3,True
2024-09-06,0.42129085346345563,0.42075032986886124,-0.1283017635324235,1,True
2024-09-07,0.42075032986886124,0.4209097793121339,0.037896451161989475,0,True
2024-09-08,0.4209097793121339,0.4209097793121339,0.0,0,False
2024-09-09,0.4209097793121339,0.4209097793121339,0.0,0,False
2024-09-10,0.4209097793121339,0.4209097793121339,0.0,0,False
2024-09-11,0.4209097793121339,0.4167279863026152,-0.9935129129935549,2,True
2024-09-12,0.4167279863026152,0.4167279863026152,0.0,0,False
2024-09-13,0.4167279863026152,0.4196450782366366,0.699999047316946,2,True
2024-09-14,0.4196450782366366,0.4196450782366366,0.0,0,False
2024-09-15,0.4196450782366366,0.4214915344939601,0.44000426862680353,3,True
2024-09-16,0.4214915344939601,0.4211181270622776,-0.08859191730405946,3,True
2024-09-17,0.4211181270622776,0.41902030881400665,-0.49815434517277435,1,True
2024-09-18,0.41902030881400665,0.4174514316956632,-0.3744155319783893,3,True
2024-09-19,0.4174514316956632,0.41820684462723695,0.18095828022564042,2,True
2024-09-20,0.41820684462723695,0.4201825663537305,0.47242692267617237,4,True
2024-09-21,0.4201825663537305,0.41390604744931714,-1.4937599526986367,7,True
2024-09-22,0.41390604744931714,0.42027043355716226,1.5376402802194988,3,True
2024-09-23,0.42027043355716226,0.421854154979869,0.37683388986042843,1,True
2024-09-24,0.421854154979869,0.421854154979869,0.0,0,False
2024-09-25,0.421854154979869,0.421854154979869,0.0,0,False
2024-09-26,0.421854154979869,0.421854154979869,0.0,0,False
2024-09-27,0.421854154979869,0.4198256515113362,-0.4808542110079639,1,True
2024-09-28,0.4198256515113362,0.4198256515113362,0.0,0,False
2024-09-29,0.4198256515113362,0.4198256515113362,0.0,0,False
2024-09-30,0.4198256515113362,0.4166873431159008,-0.7475265944655307,2,True
2024-10-01,0.4166873431159008,0.4180018005923229,0.31545414040965447,0,True
2024-10-02,0.4180018005923229,0.4034437078145681,-3.482782312689914,14,True
2024-10-03,0.4034437078145681,0.40367655773487676,0.057715590997808874,3,True
2024-10-04,0.40367655773487676,0.40184617060147165,-0.453429137345962,3,True
2024-10-05,0.40184617060147165,0.4008286043453875,-0.2532228326479036,0,True
2024-10-06,0.4008286043453875,0.4008286043453875,0.0,0,False
2024-10-07,0.4008286043453875,0.4008286043453875,0.0,0,False
2024-10-08,0.4008286043453875,0.39739586630881507,-0.8564104456014521,2,True
2024-10-09,0.39739586630881507,0.39739586630881507,0.0,0,False
2024-10-10,0.39739586630881507,0.39739586630881507,0.0,0,False
2024-10-11,0.39739586630881507,0.3964294960622381,-0.24317571683697414,1,True
2024-10-12,0.3964294960622381,0.3970554433978901,0.15789625693083398,1,True
2024-10-13,0.3970554433978901,0.3970554433978901,0.0,0,False
2024-10-14,0.3970554433978901,0.3970554433978901,0.0,0,False
2024-10-15,0.3970554433978901,0.39120292455951355,-1.473980255324625,4,True
2024-10-16,0.39120292455951355,0.3887294265550658,-0.6322800391210914,5,True
2024-10-17,0.3887294265550658,0.38853664724239495,-0.04959215832444075,2,True
2024-10-18,0.38853664724239495,0.39582365514965073,1.87550079483485,4,True
2024-10-19,0.39582365514965073,0.3905560752819189,-1.330789557218437,3,True
2024-10-20,0.3905560752819189,0.3936517841888649,0.7926413395852094,3,True
2024-10-21,0.3936517841888649,0.39352582820838033,-0.03199680162611074,7,True
2024-10-22,0.39352582820838033,0.40350804680226565,2.5366107834221996,4,True
2024-10-23,0.40350804680226565,0.39833582953468316,-1.2818126698021182,5,True
2024-10-24,0.39833582953468316,0.39544661467808534,-0.7253213601128627,3,True
2024-10-25,0.39544661467808534,0.39232184218623845,-0.7901882013557349,3,True
2024-10-26,0.39232184218623845,0.38901045658894245,-0.8440482382635395,10,True
2024-10-27,0.38901045658894245,0.3856345060135148,-0.8678302904836732,2,True
2024-10-28,0.3856345060135148,0.3837124179568802,-0.49842221758216176,1,True
2024-10-29,0.3837124179568802,0.38872458688866196,1.3062305771779803,2,True
2024-10-30,0.38872458688866196,0.38872458688866196,0.0,0,False
2024-10-31,0.38872458688866196,0.3884148240141516,-0.07968697760789567,1,True
2024-11-01,0.3884148240141516,0.3852737520238387,-0.8086900386166773,3,True
2024-11-02,0.3852737520238387,0.38591265928224716,0.16583202334763403,1,True
2024-11-03,0.38591265928224716,0.3841633577907306,-0.45328948129612634,3,True
2024-11-04,0.3841633577907306,0.3868156361805432,0.6904037920392847,4,True
2024-11-05,0.3868156361805432,0.3848921969190752,-0.4972496149484029,1,True
2024-11-06,0.3848921969190752,0.38583320182349723,0.24448531613641133,3,True
2024-11-07,0.38583320182349723,0.3858919170278031,0.015217768721931257,4,True
2024-11-08,0.3858919170278031,0.3839745289111545,-0.49687180063697767,2,True
2024-11-09,0.3839745289111545,0.38438953029697676,0.10808044663770389,2,True
2024-11-10,0.38438953029697676,0.38277053031490604,-0.4211873254768128,9,True
2024-11-11,0.38277053031490604,0.38089864117267347,-0.4890369017417795,14,True
2024-11-12,0.38089864117267347,0.3650208067860846,-4.168519566703033,10,True
2024-11-13,0.3650208067860846,0.3733111813591625,2.2712060296158354,8,True
2024-11-14,0.3733111813591625,0.3749423774111445,0.43695344083802823,8,True
2024-11-15,0.3749423774111445,0.37850995371553225,0.9514998888684456,9,True
2024-11-16,0.37850995371553225,0.3791837835022071,0.1780216821408276,8,True
2024-11-17,0.3791837835022071,0.3792158708465339,0.008462214293669668,14,True
2024-11-18,0.3792158708465339,0.38165536039336456,0.643298378146695,7,True
2024-11-19,0.38165536039336456,0.37176620074614974,-2.5911229537094016,10,True
2024-11-20,0.37176620074614974,0.36795471304337896,-1.0252378228900239,4,True
2024-11-21,0.36795471304337896,0.373379812952557,1.474393374202676,6,True
2024-11-22,0.373379812952557,0.37382500805496094,0.11923384365197798,8,True
2024-11-23,0.37382500805496094,0.37120040835154006,-0.7020931309750678,2,True
2024-11-24,0.37120040835154006,0.36533991060961923,-1.5787961462506606,26,True
2024-11-25,0.36533991060961923,0.37177199619808615,1.7605756725932675,8,True
2024-11-26,0.37177199619808615,0.3643545804743973,-1.9951518133541013,12,True
2024-11-27,0.3643545804743973,0.36515890177666305,0.22075235097045454,7,True
2024-11-28,0.36515890177666305,0.3655750092406076,0.11395243602716487,5,True
2024-11-29,0.3655750092406076,0.36750097946945387,0.5268331204715038,6,True
2024-11-30,0.36750097946945387,0.3677634946220794,0.07143250420842406,4,True
2024-12-01,0.3677634946220794,0.36425545862811626,-0.9538836902689529,6,True
2024-12-02,0.36425545862811626,0.3719066904645989,2.1005126087332293,11,True
2024-12-03,0.3719066904645989,0.37473270582532625,0.7598721488976112,19,True
2024-12-04,0.37473270582532625,0.37854112787382005,1.016303618363379,9,True
2024-12-05,0.37854112787382005,0.38134252961057075,0.7400521450563469,11,True
2024-12-06,0.38134252961057075,0.37860832906531233,-0.716993341406369,10,True
2024-12-07,0.37860832906531233,0.37904955163975373,0.11653799997761727,5,True
2024-12-08,0.37904955163975373,0.37840865562257053,-0.16907974548728832,0,True
2024-12-09,0.37840865562257053,0.37770422077614063,-0.1861571705517484,3,True
2024-12-10,0.37770422077614063,0.35694254115340507,-5.4968090057539225,28,True
2024-12-11,0.35694254115340507,0.36511404618643717,2.289305445808476,11,True
2024-12-12,0.36511404618643717,0.36397551122789346,-0.31182995297922567,2,True
2024-12-13,0.36397551122789346,0.36395482699290843,-0.005682864463940618,1,True
2024-12-14,0.36395482699290843,0.36395482699290843,0.0,0,False
2024-12-15,0.36395482699290843,0.35653290181111846,-2.039243508078159,5,True
2024-12-16,0.35653290181111846,0.3556055738644778,-0.2600960365593319,0,True
2024-12-17,0.3556055738644778,0.3556055738644778,0.0,0,False
2024-12-18,0.3556055738644778,0.3504366575431115,-1.4535532346116042,4,True
2024-12-19,0.3504366575431115,0.34796729718035174,-0.7046524128132781,13,True
2024-12-20,0.34796729718035174,0.3322982171848062,-4.503032360372727,25,True
2024-12-21,0.3322982171848062,0.33909160243984926,2.0443640392042717,3,True
2024-12-22,0.33909160243984926,0.3405033592005301,0.4163349226353308,2,True
2024-12-23,0.3405033592005301,0.33912842327575626,-0.4037951132118245,5,True
2024-12-24,0.33912842327575626,0.33912842327575626,0.0,0,False
2024-12-25,0.33912842327575626,0.34153387885023373,0.709305209879596,4,True
2024-12-26,0.34153387885023373,0.33904732015191524,-0.7280562346228869,3,True
2024-12-27,0.33904732015191524,0.33968588275376427,0.1883402592779415,0,True
2024-12-28,0.33968588275376427,0.3350447416546519,-1.3663037926355814,4,True
2024-12-29,0.3350447416546519,0.3358968005816144,0.25431198315619685,6,True
2024-12-30,0.3358968005816144,0.3324753891039053,-1.0185900764118183,6,True
2024-12-31,0.3324753891039053,0.3313397135417816,-0.3415818431507289,3,True
