day,start_equity,end_equity,return_pct,entries,active
2021-09-02,1.0,1.0,0.0,0,False
2021-09-03,1.0,1.0,0.0,0,False
2021-09-04,1.0,1.0,0.0,0,False
2021-09-05,1.0,1.0,0.0,0,False
2021-09-06,1.0,1.0,0.0,0,False
2021-09-07,1.0,1.0,0.0,0,False
2021-09-08,1.0,1.0,0.0,0,False
2021-09-09,1.0,1.0,0.0,0,False
2021-09-10,1.0,1.0,0.0,0,False
2021-09-11,1.0,1.0,0.0,0,False
2021-09-12,1.0,1.0,0.0,0,False
2021-09-13,1.0,1.0,0.0,0,False
2021-09-14,1.0,1.0,0.0,0,False
2021-09-15,1.0,1.0,0.0,0,False
2021-09-16,1.0,1.0,0.0,0,False
2021-09-17,1.0,1.0,0.0,0,False
2021-09-18,1.0,1.0,0.0,0,False
2021-09-19,1.0,1.0,0.0,0,False
2021-09-20,1.0,1.0,0.0,0,False
2021-09-21,1.0,1.0,0.0,0,False
2021-09-22,1.0,1.0,0.0,0,False
2021-09-23,1.0,1.0,0.0,0,False
2021-09-24,1.0,1.0,0.0,0,False
2021-09-25,1.0,1.0,0.0,0,False
2021-09-26,1.0,1.0,0.0,0,False
2021-09-27,1.0,1.0,0.0,0,False
2021-09-28,1.0,1.0,0.0,0,False
2021-09-29,1.0,1.0,0.0,0,False
2021-09-30,1.0,1.0,0.0,0,False
2021-10-01,1.0,1.0,0.0,0,False
2021-10-02,1.0,1.0,0.0,0,False
2021-10-03,1.0,1.0,0.0,0,False
2021-10-04,1.0,1.0,0.0,0,False
2021-10-05,1.0,0.9993073753491394,-0.06926246508606182,1,True
2021-10-06,0.9993073753491394,1.0084847626134863,0.9183748154706128,5,True
2021-10-07,1.0084847626134863,0.9943180326815797,-1.4047539890631122,2,True
2021-10-08,0.9943180326815797,0.9936436126525754,-0.0678273959474951,1,True
2021-10-09,0.9936436126525754,1.0007213358781006,0.7122999771146166,4,True
2021-10-10,1.0007213358781006,0.9881055392764869,-1.2606702934482517,1,True
2021-10-11,0.9881055392764869,0.9855301473742536,-0.2606393547919028,0,True
2021-10-12,0.9855301473742536,0.9855301473742536,0.0,0,False
2021-10-13,0.9855301473742536,1.0123284128047592,2.7191725693936464,4,True
2021-10-14,1.0123284128047592,1.0294838132645332,1.6946477292130169,1,True
2021-10-15,1.0294838132645332,1.051248518421415,2.114137675255434,7,True
2021-10-16,1.051248518421415,1.0649423421961999,1.302624787081541,3,True
2021-10-17,1.0649423421961999,1.0647292774798167,-0.020007159818979936,0,True
2021-10-18,1.0647292774798167,1.0686052263002366,0.3640313929935468,2,True
2021-10-19,1.0686052263002366,1.0686052263002366,0.0,0,False
2021-10-20,1.0686052263002366,1.0686052263002366,0.0,0,False
2021-10-21,1.0686052263002366,1.0686052263002366,0.0,0,False
2021-10-22,1.0686052263002366,1.0686052263002366,0.0,0,False
2021-10-23,1.0686052263002366,1.0686052263002366,0.0,0,False
2021-10-24,1.0686052263002366,1.0731668253578404,0.4268741107880558,1,True
2021-10-25,1.0731668253578404,1.0673835681747144,-0.5388963809235925,2,True
2021-10-26,1.0673835681747144,1.0673835681747144,0.0,0,False
2021-10-27,1.0673835681747144,1.077398398721266,0.9382597638895263,7,True
2021-10-28,1.077398398721266,1.0809986230667097,0.33415905849838445,4,True
2021-10-29,1.0809986230667097,1.0713193811524446,-0.8953981723682336,3,True
2021-10-30,1.0713193811524446,1.0839708453117092,1.1809236705542459,2,True
2021-10-31,1.0839708453117092,1.0635696585274002,-1.8820789205305943,10,True
2021-11-01,1.0635696585274002,1.0573144285010072,-0.58813543393611,10,True
2021-11-02,1.0573144285010072,1.0922813868069081,3.307148504109114,3,True
2021-11-03,1.0922813868069081,1.08618200032431,-0.5584079849999757,2,True
2021-11-04,1.08618200032431,1.1093612956058099,2.134015779545151,7,True
2021-11-05,1.1093612956058099,1.0967402990000332,-1.13768135374549,6,True
2021-11-06,1.0967402990000332,1.0952372465026026,-0.13704725711283228,2,True
2021-11-07,1.0952372465026026,1.0952372465026026,0.0,0,False
2021-11-08,1.0952372465026026,1.0952372465026026,0.0,0,False
2021-11-09,1.0952372465026026,1.1037713728756218,0.7792034465839315,2,True
2021-11-10,1.1037713728756218,1.1265206774408574,2.0610522363854633,1,True
2021-11-11,1.1265206774408574,1.103222682938619,-2.068137315966989,8,True
2021-11-12,1.103222682938619,1.076866824024969,-2.388988127351277,7,True
2021-11-13,1.076866824024969,1.0747119183579183,-0.20010883602081808,1,True
2021-11-14,1.0747119183579183,1.0801261890411626,0.5037880934191996,2,True
2021-11-15,1.0801261890411626,1.0801261890411626,0.0,0,False
2021-11-16,1.0801261890411626,1.0927203446457188,1.1659892827648344,9,True
2021-11-17,1.0927203446457188,1.0914695504355132,-0.11446608606990871,1,True
2021-11-18,1.0914695504355132,1.0784398802712623,-1.1937731253292339,4,True
2021-11-19,1.0784398802712623,1.0864606784065491,0.7437408688252045,7,True
2021-11-20,1.0864606784065491,1.097272139091628,0.9951083274302608,0,True
2021-11-21,1.097272139091628,1.0864638209502848,-0.9850170943272896,3,True
2021-11-22,1.0864638209502848,1.0644672960148753,-2.024598013412915,9,True
2021-11-23,1.0644672960148753,1.0644672960148753,0.0,0,False
2021-11-24,1.0644672960148753,1.0492207319387061,-1.4323186943599797,4,True
2021-11-25,1.0492207319387061,1.055324800439545,0.5817716248858407,11,True
2021-11-26,1.055324800439545,1.0332631572650257,-2.0905074120622036,9,True
2021-11-27,1.0332631572650257,1.0418480027857653,0.8308479268207991,7,True
2021-11-28,1.0418480027857653,1.0202930338085903,-2.0689168592289753,4,True
2021-11-29,1.0202930338085903,1.0165390351975951,-0.3679333766478887,2,True
2021-11-30,1.0165390351975951,1.010841191232903,-0.5605140351137239,3,True
2021-12-01,1.010841191232903,1.0065610811508288,-0.4234206242479943,1,True
2021-12-02,1.0065610811508288,1.0024907523965558,-0.4043797073516098,7,True
2021-12-03,1.0024907523965558,0.9905340759959322,-1.1926969273322374,3,True
2021-12-04,0.9905340759959322,0.9681222368663992,-2.2626015270599376,10,True
2021-12-05,0.9681222368663992,0.9664814142852274,-0.16948506280393127,4,True
2021-12-06,0.9664814142852274,0.9616722764587505,-0.4975923753312461,8,True
2021-12-07,0.9616722764587505,0.9616722764587505,0.0,0,False
2021-12-08,0.9616722764587505,0.9616722764587505,0.0,0,False
2021-12-09,0.9616722764587505,0.9616722764587505,0.0,0,False
2021-12-10,0.9616722764587505,0.9616722764587505,0.0,0,False
2021-12-11,0.9616722764587505,0.9616722764587505,0.0,0,False
2021-12-12,0.9616722764587505,0.9616722764587505,0.0,0,False
2021-12-13,0.9616722764587505,0.9616722764587505,0.0,0,False
2021-12-14,0.9616722764587505,0.9616722764587505,0.0,0,False
2021-12-15,0.9616722764587505,0.9616722764587505,0.0,0,False
2021-12-16,0.9616722764587505,0.9616722764587505,0.0,0,False
2021-12-17,0.9616722764587505,0.9616722764587505,0.0,0,False
2021-12-18,0.9616722764587505,0.9616722764587505,0.0,0,False
2021-12-19,0.9616722764587505,0.9616722764587505,0.0,0,False
2021-12-20,0.9616722764587505,0.9616722764587505,0.0,0,False
2021-12-21,0.9616722764587505,0.9616722764587505,0.0,0,False
2021-12-22,0.9616722764587505,0.9616722764587505,0.0,0,False
2021-12-23,0.9616722764587505,0.9616722764587505,0.0,0,False
2021-12-24,0.9616722764587505,0.9616722764587505,0.0,0,False
2021-12-25,0.9616722764587505,0.9616722764587505,0.0,0,False
2021-12-26,0.9616722764587505,0.9616722764587505,0.0,0,False
2021-12-27,0.9616722764587505,0.9616722764587505,0.0,0,False
2021-12-28,0.9616722764587505,0.9616722764587505,0.0,0,False
2021-12-29,0.9616722764587505,0.9616722764587505,0.0,0,False
2021-12-30,0.9616722764587505,0.9616722764587505,0.0,0,False
2021-12-31,0.9616722764587505,0.9616722764587505,0.0,0,False
2022-01-01,0.9616722764587505,0.9616722764587505,0.0,0,False
2022-01-02,0.9616722764587505,0.9616722764587505,0.0,0,False
2022-01-03,0.9616722764587505,0.9616722764587505,0.0,0,False
2022-01-04,0.9616722764587505,0.9616722764587505,0.0,0,False
2022-01-05,0.9616722764587505,0.9616722764587505,0.0,0,False
2022-01-06,0.9616722764587505,0.9616722764587505,0.0,0,False
2022-01-07,0.9616722764587505,0.9616722764587505,0.0,0,False
2022-01-08,0.9616722764587505,0.9616722764587505,0.0,0,False
2022-01-09,0.9616722764587505,0.9616722764587505,0.0,0,False
2022-01-10,0.9616722764587505,0.9616722764587505,0.0,0,False
2022-01-11,0.9616722764587505,0.9616722764587505,0.0,0,False
2022-01-12,0.9616722764587505,0.9616722764587505,0.0,0,False
2022-01-13,0.9616722764587505,0.9616722764587505,0.0,0,False
2022-01-14,0.9616722764587505,0.9616722764587505,0.0,0,False
2022-01-15,0.9616722764587505,0.9616722764587505,0.0,0,False
2022-01-16,0.9616722764587505,0.9616722764587505,0.0,0,False
2022-01-17,0.9616722764587505,0.9616722764587505,0.0,0,False
2022-01-18,0.9616722764587505,0.9616722764587505,0.0,0,False
2022-01-19,0.9616722764587505,0.9616722764587505,0.0,0,False
2022-01-20,0.9616722764587505,0.9616722764587505,0.0,0,False
2022-01-21,0.9616722764587505,0.9616722764587505,0.0,0,False
2022-01-22,0.9616722764587505,0.9616722764587505,0.0,0,False
2022-01-23,0.9616722764587505,0.9616722764587505,0.0,0,False
2022-01-24,0.9616722764587505,0.9616722764587505,0.0,0,False
2022-01-25,0.9616722764587505,0.9616722764587505,0.0,0,False
2022-01-26,0.9616722764587505,0.9616722764587505,0.0,0,False
2022-01-27,0.9616722764587505,0.9616722764587505,0.0,0,False
2022-01-28,0.9616722764587505,0.9616722764587505,0.0,0,False
2022-01-29,0.9616722764587505,0.9616722764587505,0.0,0,False
2022-01-30,0.9616722764587505,0.9616722764587505,0.0,0,False
2022-01-31,0.9616722764587505,0.9616722764587505,0.0,0,False
2022-02-01,0.9616722764587505,0.9616722764587505,0.0,0,False
2022-02-02,0.9616722764587505,0.9616722764587505,0.0,0,False
2022-02-03,0.9616722764587505,0.9616722764587505,0.0,0,False
2022-02-04,0.9616722764587505,0.9616722764587505,0.0,0,False
2022-02-05,0.9616722764587505,0.9616722764587505,0.0,0,False
2022-02-06,0.9616722764587505,0.9616722764587505,0.0,0,False
2022-02-07,0.9616722764587505,0.9616722764587505,0.0,0,False
2022-02-08,0.9616722764587505,0.9616722764587505,0.0,0,False
2022-02-09,0.9616722764587505,0.9616722764587505,0.0,0,False
2022-02-10,0.9616722764587505,0.9616722764587505,0.0,0,False
2022-02-11,0.9616722764587505,0.9616722764587505,0.0,0,False
2022-02-12,0.9616722764587505,0.9616722764587505,0.0,0,False
2022-02-13,0.9616722764587505,0.9616722764587505,0.0,0,False
2022-02-14,0.9616722764587505,0.9616722764587505,0.0,0,False
2022-02-15,0.9616722764587505,0.9616722764587505,0.0,0,False
2022-02-16,0.9616722764587505,0.9616722764587505,0.0,0,False
2022-02-17,0.9616722764587505,0.9616722764587505,0.0,0,False
2022-02-18,0.9616722764587505,0.9616722764587505,0.0,0,False
2022-02-19,0.9616722764587505,0.9616722764587505,0.0,0,False
2022-02-20,0.9616722764587505,0.9616722764587505,0.0,0,False
2022-02-21,0.9616722764587505,0.9616722764587505,0.0,0,False
2022-02-22,0.9616722764587505,0.9616722764587505,0.0,0,False
2022-02-23,0.9616722764587505,0.9616722764587505,0.0,0,False
2022-02-24,0.9616722764587505,0.9616722764587505,0.0,0,False
2022-02-25,0.9616722764587505,0.9616722764587505,0.0,0,False
2022-02-26,0.9616722764587505,0.9616722764587505,0.0,0,False
2022-02-27,0.9616722764587505,0.9616722764587505,0.0,0,False
2022-02-28,0.9616722764587505,0.9616722764587505,0.0,0,False
2022-03-01,0.9616722764587505,0.9616722764587505,0.0,0,False
2022-03-02,0.9616722764587505,0.9616722764587505,0.0,0,False
2022-03-03,0.9616722764587505,0.9616722764587505,0.0,0,False
2022-03-04,0.9616722764587505,0.9616722764587505,0.0,0,False
2022-03-05,0.9616722764587505,0.9616722764587505,0.0,0,False
2022-03-06,0.9616722764587505,0.9616722764587505,0.0,0,False
2022-03-07,0.9616722764587505,0.9616722764587505,0.0,0,False
2022-03-08,0.9616722764587505,0.9616722764587505,0.0,0,False
2022-03-09,0.9616722764587505,0.9616722764587505,0.0,0,False
2022-03-10,0.9616722764587505,0.9616722764587505,0.0,0,False
2022-03-11,0.9616722764587505,0.9616722764587505,0.0,0,False
2022-03-12,0.9616722764587505,0.9616722764587505,0.0,0,False
2022-03-13,0.9616722764587505,0.9616722764587505,0.0,0,False
2022-03-14,0.9616722764587505,0.9616722764587505,0.0,0,False
2022-03-15,0.9616722764587505,0.9616722764587505,0.0,0,False
2022-03-16,0.9616722764587505,0.9616722764587505,0.0,0,False
2022-03-17,0.9616722764587505,0.9616722764587505,0.0,0,False
2022-03-18,0.9616722764587505,0.9616722764587505,0.0,0,False
2022-03-19,0.9616722764587505,0.9616722764587505,0.0,0,False
2022-03-20,0.9616722764587505,0.9616722764587505,0.0,0,False
2022-03-21,0.9616722764587505,0.9616722764587505,0.0,0,False
2022-03-22,0.9616722764587505,0.9616722764587505,0.0,0,False
2022-03-23,0.9616722764587505,0.9616722764587505,0.0,0,False
2022-03-24,0.9616722764587505,0.9616722764587505,0.0,0,False
2022-03-25,0.9616722764587505,0.9616722764587505,0.0,0,False
2022-03-26,0.9616722764587505,0.9616722764587505,0.0,0,False
2022-03-27,0.9616722764587505,0.9616722764587505,0.0,0,False
2022-03-28,0.9616722764587505,0.9616722764587505,0.0,0,False
2022-03-29,0.9616722764587505,0.9616722764587505,0.0,0,False
2022-03-30,0.9616722764587505,0.9616722764587505,0.0,0,False
2022-03-31,0.9616722764587505,0.9616722764587505,0.0,0,False
2022-04-01,0.9616722764587505,0.9616722764587505,0.0,0,False
2022-04-02,0.9616722764587505,0.9616722764587505,0.0,0,False
2022-04-03,0.9616722764587505,0.9616722764587505,0.0,0,False
2022-04-04,0.9616722764587505,0.9616722764587505,0.0,0,False
2022-04-05,0.9616722764587505,0.9616722764587505,0.0,0,False
2022-04-06,0.9616722764587505,0.9616722764587505,0.0,0,False
2022-04-07,0.9616722764587505,0.9616722764587505,0.0,0,False
2022-04-08,0.9616722764587505,0.9616722764587505,0.0,0,False
2022-04-09,0.9616722764587505,0.9616722764587505,0.0,0,False
2022-04-10,0.9616722764587505,0.9616722764587505,0.0,0,False
2022-04-11,0.9616722764587505,0.9616722764587505,0.0,0,False
2022-04-12,0.9616722764587505,0.9616722764587505,0.0,0,False
2022-04-13,0.9616722764587505,0.9616722764587505,0.0,0,False
2022-04-14,0.9616722764587505,0.9616722764587505,0.0,0,False
2022-04-15,0.9616722764587505,0.9616722764587505,0.0,0,False
2022-04-16,0.9616722764587505,0.9616722764587505,0.0,0,False
2022-04-17,0.9616722764587505,0.9616722764587505,0.0,0,False
2022-04-18,0.9616722764587505,0.9616722764587505,0.0,0,False
2022-04-19,0.9616722764587505,0.9616722764587505,0.0,0,False
2022-04-20,0.9616722764587505,0.9616722764587505,0.0,0,False
2022-04-21,0.9616722764587505,0.9616722764587505,0.0,0,False
2022-04-22,0.9616722764587505,0.9616722764587505,0.0,0,False
2022-04-23,0.9616722764587505,0.9616722764587505,0.0,0,False
2022-04-24,0.9616722764587505,0.9616722764587505,0.0,0,False
2022-04-25,0.9616722764587505,0.9616722764587505,0.0,0,False
2022-04-26,0.9616722764587505,0.9616722764587505,0.0,0,False
2022-04-27,0.9616722764587505,0.9616722764587505,0.0,0,False
2022-04-28,0.9616722764587505,0.9616722764587505,0.0,0,False
2022-04-29,0.9616722764587505,0.9616722764587505,0.0,0,False
2022-04-30,0.9616722764587505,0.9616722764587505,0.0,0,False
2022-05-01,0.9616722764587505,0.9616722764587505,0.0,0,False
2022-05-02,0.9616722764587505,0.9616722764587505,0.0,0,False
2022-05-03,0.9616722764587505,0.9616722764587505,0.0,0,False
2022-05-04,0.9616722764587505,0.9616722764587505,0.0,0,False
2022-05-05,0.9616722764587505,0.9616722764587505,0.0,0,False
2022-05-06,0.9616722764587505,0.9616722764587505,0.0,0,False
2022-05-07,0.9616722764587505,0.9616722764587505,0.0,0,False
2022-05-08,0.9616722764587505,0.9616722764587505,0.0,0,False
2022-05-09,0.9616722764587505,0.9616722764587505,0.0,0,False
2022-05-10,0.9616722764587505,0.9616722764587505,0.0,0,False
2022-05-11,0.9616722764587505,0.9616722764587505,0.0,0,False
2022-05-12,0.9616722764587505,0.9616722764587505,0.0,0,False
2022-05-13,0.9616722764587505,0.9616722764587505,0.0,0,False
2022-05-14,0.9616722764587505,0.9616722764587505,0.0,0,False
2022-05-15,0.9616722764587505,0.9616722764587505,0.0,0,False
2022-05-16,0.9616722764587505,0.9616722764587505,0.0,0,False
2022-05-17,0.9616722764587505,0.9616722764587505,0.0,0,False
2022-05-18,0.9616722764587505,0.9616722764587505,0.0,0,False
2022-05-19,0.9616722764587505,0.9616722764587505,0.0,0,False
2022-05-20,0.9616722764587505,0.9616722764587505,0.0,0,False
2022-05-21,0.9616722764587505,0.9616722764587505,0.0,0,False
2022-05-22,0.9616722764587505,0.9616722764587505,0.0,0,False
2022-05-23,0.9616722764587505,0.9616722764587505,0.0,0,False
2022-05-24,0.9616722764587505,0.9616722764587505,0.0,0,False
2022-05-25,0.9616722764587505,0.9616722764587505,0.0,0,False
2022-05-26,0.9616722764587505,0.9616722764587505,0.0,0,False
2022-05-27,0.9616722764587505,0.9616722764587505,0.0,0,False
2022-05-28,0.9616722764587505,0.9616722764587505,0.0,0,False
2022-05-29,0.9616722764587505,0.9616722764587505,0.0,0,False
2022-05-30,0.9616722764587505,0.9616722764587505,0.0,0,False
2022-05-31,0.9616722764587505,0.9616722764587505,0.0,0,False
2022-06-01,0.9616722764587505,0.9616722764587505,0.0,0,False
2022-06-02,0.9616722764587505,0.9616722764587505,0.0,0,False
2022-06-03,0.9616722764587505,0.9616722764587505,0.0,0,False
2022-06-04,0.9616722764587505,0.9616722764587505,0.0,0,False
2022-06-05,0.9616722764587505,0.9616722764587505,0.0,0,False
2022-06-06,0.9616722764587505,0.9616722764587505,0.0,0,False
2022-06-07,0.9616722764587505,0.9616722764587505,0.0,0,False
2022-06-08,0.9616722764587505,0.9616722764587505,0.0,0,False
2022-06-09,0.9616722764587505,0.9616722764587505,0.0,0,False
2022-06-10,0.9616722764587505,0.9616722764587505,0.0,0,False
2022-06-11,0.9616722764587505,0.9616722764587505,0.0,0,False
2022-06-12,0.9616722764587505,0.9616722764587505,0.0,0,False
2022-06-13,0.9616722764587505,0.9616722764587505,0.0,0,False
2022-06-14,0.9616722764587505,0.9616722764587505,0.0,0,False
2022-06-15,0.9616722764587505,0.9616722764587505,0.0,0,False
2022-06-16,0.9616722764587505,0.9616722764587505,0.0,0,False
2022-06-17,0.9616722764587505,0.9616722764587505,0.0,0,False
2022-06-18,0.9616722764587505,0.9616722764587505,0.0,0,False
2022-06-19,0.9616722764587505,0.9616722764587505,0.0,0,False
2022-06-20,0.9616722764587505,0.9616722764587505,0.0,0,False
2022-06-21,0.9616722764587505,0.9616722764587505,0.0,0,False
2022-06-22,0.9616722764587505,0.9616722764587505,0.0,0,False
2022-06-23,0.9616722764587505,0.9616722764587505,0.0,0,False
2022-06-24,0.9616722764587505,0.9616722764587505,0.0,0,False
2022-06-25,0.9616722764587505,0.9616722764587505,0.0,0,False
2022-06-26,0.9616722764587505,0.9616722764587505,0.0,0,False
2022-06-27,0.9616722764587505,0.9616722764587505,0.0,0,False
2022-06-28,0.9616722764587505,0.9616722764587505,0.0,0,False
2022-06-29,0.9616722764587505,0.9616722764587505,0.0,0,False
2022-06-30,0.9616722764587505,0.9616722764587505,0.0,0,False
2022-07-01,0.9616722764587505,0.9616722764587505,0.0,0,False
2022-07-02,0.9616722764587505,0.9616722764587505,0.0,0,False
2022-07-03,0.9616722764587505,0.9616722764587505,0.0,0,False
2022-07-04,0.9616722764587505,0.9616722764587505,0.0,0,False
2022-07-05,0.9616722764587505,0.9616722764587505,0.0,0,False
2022-07-06,0.9616722764587505,0.9616722764587505,0.0,0,False
2022-07-07,0.9616722764587505,0.9616722764587505,0.0,0,False
2022-07-08,0.9616722764587505,0.9616722764587505,0.0,0,False
2022-07-09,0.9616722764587505,0.9616722764587505,0.0,0,False
2022-07-10,0.9616722764587505,0.9616722764587505,0.0,0,False
2022-07-11,0.9616722764587505,0.9616722764587505,0.0,0,False
2022-07-12,0.9616722764587505,0.9616722764587505,0.0,0,False
2022-07-13,0.9616722764587505,0.9616722764587505,0.0,0,False
2022-07-14,0.9616722764587505,0.9616722764587505,0.0,0,False
2022-07-15,0.9616722764587505,0.9616722764587505,0.0,0,False
2022-07-16,0.9616722764587505,0.9616722764587505,0.0,0,False
2022-07-17,0.9616722764587505,0.9616722764587505,0.0,0,False
2022-07-18,0.9616722764587505,0.9616722764587505,0.0,0,False
2022-07-19,0.9616722764587505,0.9616722764587505,0.0,0,False
2022-07-20,0.9616722764587505,0.9616722764587505,0.0,0,False
2022-07-21,0.9616722764587505,0.9616722764587505,0.0,0,False
2022-07-22,0.9616722764587505,0.9616722764587505,0.0,0,False
2022-07-23,0.9616722764587505,0.9616722764587505,0.0,0,False
2022-07-24,0.9616722764587505,0.9616722764587505,0.0,0,False
2022-07-25,0.9616722764587505,0.9616722764587505,0.0,0,False
2022-07-26,0.9616722764587505,0.9616722764587505,0.0,0,False
2022-07-27,0.9616722764587505,0.9616722764587505,0.0,0,False
2022-07-28,0.9616722764587505,0.9616722764587505,0.0,0,False
2022-07-29,0.9616722764587505,0.9616722764587505,0.0,0,False
2022-07-30,0.9616722764587505,0.9616722764587505,0.0,0,False
2022-07-31,0.9616722764587505,0.9616722764587505,0.0,0,False
2022-08-01,0.9616722764587505,0.9616722764587505,0.0,0,False
2022-08-02,0.9616722764587505,0.9616722764587505,0.0,0,False
2022-08-03,0.9616722764587505,0.9616722764587505,0.0,0,False
2022-08-04,0.9616722764587505,0.9616722764587505,0.0,0,False
2022-08-05,0.9616722764587505,0.9616722764587505,0.0,0,False
2022-08-06,0.9616722764587505,0.9616722764587505,0.0,0,False
2022-08-07,0.9616722764587505,0.9616722764587505,0.0,0,False
2022-08-08,0.9616722764587505,0.9616722764587505,0.0,0,False
2022-08-09,0.9616722764587505,0.9616722764587505,0.0,0,False
2022-08-10,0.9616722764587505,0.9616722764587505,0.0,0,False
2022-08-11,0.9616722764587505,0.9616722764587505,0.0,0,False
2022-08-12,0.9616722764587505,0.9616722764587505,0.0,0,False
2022-08-13,0.9616722764587505,0.9616722764587505,0.0,0,False
2022-08-14,0.9616722764587505,0.9616722764587505,0.0,0,False
2022-08-15,0.9616722764587505,0.9616722764587505,0.0,0,False
2022-08-16,0.9616722764587505,0.9616722764587505,0.0,0,False
2022-08-17,0.9616722764587505,0.9616722764587505,0.0,0,False
2022-08-18,0.9616722764587505,0.9616722764587505,0.0,0,False
2022-08-19,0.9616722764587505,0.9616722764587505,0.0,0,False
2022-08-20,0.9616722764587505,0.9616722764587505,0.0,0,False
2022-08-21,0.9616722764587505,0.9616722764587505,0.0,0,False
2022-08-22,0.9616722764587505,0.9616722764587505,0.0,0,False
2022-08-23,0.9616722764587505,0.9616722764587505,0.0,0,False
2022-08-24,0.9616722764587505,0.9616722764587505,0.0,0,False
2022-08-25,0.9616722764587505,0.9616722764587505,0.0,0,False
2022-08-26,0.9616722764587505,0.9616722764587505,0.0,0,False
2022-08-27,0.9616722764587505,0.9616722764587505,0.0,0,False
2022-08-28,0.9616722764587505,0.9616722764587505,0.0,0,False
2022-08-29,0.9616722764587505,0.9616722764587505,0.0,0,False
2022-08-30,0.9616722764587505,0.9616722764587505,0.0,0,False
2022-08-31,0.9616722764587505,0.9616722764587505,0.0,0,False
2022-09-01,0.9616722764587505,0.9616722764587505,0.0,0,False
2022-09-02,0.9616722764587505,0.9616722764587505,0.0,0,False
2022-09-03,0.9616722764587505,0.9616722764587505,0.0,0,False
2022-09-04,0.9616722764587505,0.9616722764587505,0.0,0,False
2022-09-05,0.9616722764587505,0.9616722764587505,0.0,0,False
2022-09-06,0.9616722764587505,0.9616722764587505,0.0,0,False
2022-09-07,0.9616722764587505,0.9616722764587505,0.0,0,False
2022-09-08,0.9616722764587505,0.9616722764587505,0.0,0,False
2022-09-09,0.9616722764587505,0.9616722764587505,0.0,0,False
2022-09-10,0.9616722764587505,0.9616722764587505,0.0,0,False
2022-09-11,0.9616722764587505,0.9616722764587505,0.0,0,False
2022-09-12,0.9616722764587505,0.9616722764587505,0.0,0,False
2022-09-13,0.9616722764587505,0.9616722764587505,0.0,0,False
2022-09-14,0.9616722764587505,0.9616722764587505,0.0,0,False
2022-09-15,0.9616722764587505,0.9616722764587505,0.0,0,False
2022-09-16,0.9616722764587505,0.9616722764587505,0.0,0,False
2022-09-17,0.9616722764587505,0.9616722764587505,0.0,0,False
2022-09-18,0.9616722764587505,0.9616722764587505,0.0,0,False
2022-09-19,0.9616722764587505,0.9616722764587505,0.0,0,False
2022-09-20,0.9616722764587505,0.9616722764587505,0.0,0,False
2022-09-21,0.9616722764587505,0.9616722764587505,0.0,0,False
2022-09-22,0.9616722764587505,0.9616722764587505,0.0,0,False
2022-09-23,0.9616722764587505,0.9616722764587505,0.0,0,False
2022-09-24,0.9616722764587505,0.9616722764587505,0.0,0,False
2022-09-25,0.9616722764587505,0.9616722764587505,0.0,0,False
2022-09-26,0.9616722764587505,0.9616722764587505,0.0,0,False
2022-09-27,0.9616722764587505,0.9616722764587505,0.0,0,False
2022-09-28,0.9616722764587505,0.9616722764587505,0.0,0,False
2022-09-29,0.9616722764587505,0.9616722764587505,0.0,0,False
2022-09-30,0.9616722764587505,0.9616722764587505,0.0,0,False
2022-10-01,0.9616722764587505,0.9616722764587505,0.0,0,False
2022-10-02,0.9616722764587505,0.9616722764587505,0.0,0,False
2022-10-03,0.9616722764587505,0.9616722764587505,0.0,0,False
2022-10-04,0.9616722764587505,0.9616722764587505,0.0,0,False
2022-10-05,0.9616722764587505,0.9616722764587505,0.0,0,False
2022-10-06,0.9616722764587505,0.9616722764587505,0.0,0,False
2022-10-07,0.9616722764587505,0.9616722764587505,0.0,0,False
2022-10-08,0.9616722764587505,0.9616722764587505,0.0,0,False
2022-10-09,0.9616722764587505,0.9616722764587505,0.0,0,False
2022-10-10,0.9616722764587505,0.9616722764587505,0.0,0,False
2022-10-11,0.9616722764587505,0.9616722764587505,0.0,0,False
2022-10-12,0.9616722764587505,0.9616722764587505,0.0,0,False
2022-10-13,0.9616722764587505,0.9616722764587505,0.0,0,False
2022-10-14,0.9616722764587505,0.9616722764587505,0.0,0,False
2022-10-15,0.9616722764587505,0.9616722764587505,0.0,0,False
2022-10-16,0.9616722764587505,0.9616722764587505,0.0,0,False
2022-10-17,0.9616722764587505,0.9616722764587505,0.0,0,False
2022-10-18,0.9616722764587505,0.9616722764587505,0.0,0,False
2022-10-19,0.9616722764587505,0.9616722764587505,0.0,0,False
2022-10-20,0.9616722764587505,0.9616722764587505,0.0,0,False
2022-10-21,0.9616722764587505,0.9616722764587505,0.0,0,False
2022-10-22,0.9616722764587505,0.9616722764587505,0.0,0,False
2022-10-23,0.9616722764587505,0.9616722764587505,0.0,0,False
2022-10-24,0.9616722764587505,0.9616722764587505,0.0,0,False
2022-10-25,0.9616722764587505,0.9616722764587505,0.0,0,False
2022-10-26,0.9616722764587505,0.9616722764587505,0.0,0,False
2022-10-27,0.9616722764587505,0.9616722764587505,0.0,0,False
2022-10-28,0.9616722764587505,0.9616722764587505,0.0,0,False
2022-10-29,0.9616722764587505,0.9616722764587505,0.0,0,False
2022-10-30,0.9616722764587505,0.9616722764587505,0.0,0,False
2022-10-31,0.9616722764587505,0.9616722764587505,0.0,0,False
2022-11-01,0.9616722764587505,0.9616722764587505,0.0,0,False
2022-11-02,0.9616722764587505,0.9616722764587505,0.0,0,False
2022-11-03,0.9616722764587505,0.9616722764587505,0.0,0,False
2022-11-04,0.9616722764587505,0.9616722764587505,0.0,0,False
2022-11-05,0.9616722764587505,0.9616722764587505,0.0,0,False
2022-11-06,0.9616722764587505,0.9616722764587505,0.0,0,False
2022-11-07,0.9616722764587505,0.9616722764587505,0.0,0,False
2022-11-08,0.9616722764587505,0.9616722764587505,0.0,0,False
2022-11-09,0.9616722764587505,0.9616722764587505,0.0,0,False
2022-11-10,0.9616722764587505,0.9616722764587505,0.0,0,False
2022-11-11,0.9616722764587505,0.9616722764587505,0.0,0,False
2022-11-12,0.9616722764587505,0.9616722764587505,0.0,0,False
2022-11-13,0.9616722764587505,0.9616722764587505,0.0,0,False
2022-11-14,0.9616722764587505,0.9616722764587505,0.0,0,False
2022-11-15,0.9616722764587505,0.9616722764587505,0.0,0,False
2022-11-16,0.9616722764587505,0.9616722764587505,0.0,0,False
2022-11-17,0.9616722764587505,0.9616722764587505,0.0,0,False
2022-11-18,0.9616722764587505,0.9616722764587505,0.0,0,False
2022-11-19,0.9616722764587505,0.9616722764587505,0.0,0,False
2022-11-20,0.9616722764587505,0.9616722764587505,0.0,0,False
2022-11-21,0.9616722764587505,0.9616722764587505,0.0,0,False
2022-11-22,0.9616722764587505,0.9616722764587505,0.0,0,False
2022-11-23,0.9616722764587505,0.9616722764587505,0.0,0,False
2022-11-24,0.9616722764587505,0.9616722764587505,0.0,0,False
2022-11-25,0.9616722764587505,0.9616722764587505,0.0,0,False
2022-11-26,0.9616722764587505,0.9616722764587505,0.0,0,False
2022-11-27,0.9616722764587505,0.9616722764587505,0.0,0,False
2022-11-28,0.9616722764587505,0.9616722764587505,0.0,0,False
2022-11-29,0.9616722764587505,0.9616722764587505,0.0,0,False
2022-11-30,0.9616722764587505,0.9616722764587505,0.0,0,False
2022-12-01,0.9616722764587505,0.9616722764587505,0.0,0,False
2022-12-02,0.9616722764587505,0.9616722764587505,0.0,0,False
2022-12-03,0.9616722764587505,0.9616722764587505,0.0,0,False
2022-12-04,0.9616722764587505,0.9616722764587505,0.0,0,False
2022-12-05,0.9616722764587505,0.9616722764587505,0.0,0,False
2022-12-06,0.9616722764587505,0.9616722764587505,0.0,0,False
2022-12-07,0.9616722764587505,0.9616722764587505,0.0,0,False
2022-12-08,0.9616722764587505,0.9616722764587505,0.0,0,False
2022-12-09,0.9616722764587505,0.9616722764587505,0.0,0,False
2022-12-10,0.9616722764587505,0.9616722764587505,0.0,0,False
2022-12-11,0.9616722764587505,0.9616722764587505,0.0,0,False
2022-12-12,0.9616722764587505,0.9616722764587505,0.0,0,False
2022-12-13,0.9616722764587505,0.9616722764587505,0.0,0,False
2022-12-14,0.9616722764587505,0.9616722764587505,0.0,0,False
2022-12-15,0.9616722764587505,0.9616722764587505,0.0,0,False
2022-12-16,0.9616722764587505,0.9616722764587505,0.0,0,False
2022-12-17,0.9616722764587505,0.9616722764587505,0.0,0,False
2022-12-18,0.9616722764587505,0.9616722764587505,0.0,0,False
2022-12-19,0.9616722764587505,0.9616722764587505,0.0,0,False
2022-12-20,0.9616722764587505,0.9616722764587505,0.0,0,False
2022-12-21,0.9616722764587505,0.9616722764587505,0.0,0,False
2022-12-22,0.9616722764587505,0.9616722764587505,0.0,0,False
2022-12-23,0.9616722764587505,0.9616722764587505,0.0,0,False
2022-12-24,0.9616722764587505,0.9616722764587505,0.0,0,False
2022-12-25,0.9616722764587505,0.9616722764587505,0.0,0,False
2022-12-26,0.9616722764587505,0.9616722764587505,0.0,0,False
2022-12-27,0.9616722764587505,0.9616722764587505,0.0,0,False
2022-12-28,0.9616722764587505,0.9616722764587505,0.0,0,False
2022-12-29,0.9616722764587505,0.9616722764587505,0.0,0,False
2022-12-30,0.9616722764587505,0.9616722764587505,0.0,0,False
2022-12-31,0.9616722764587505,0.9616722764587505,0.0,0,False
2023-01-01,0.9616722764587505,0.9616722764587505,0.0,0,False
2023-01-02,0.9616722764587505,0.9616722764587505,0.0,0,False
2023-01-03,0.9616722764587505,0.9616722764587505,0.0,0,False
2023-01-04,0.9616722764587505,0.9616722764587505,0.0,0,False
2023-01-05,0.9616722764587505,0.9616722764587505,0.0,0,False
2023-01-06,0.9616722764587505,0.9616722764587505,0.0,0,False
2023-01-07,0.9616722764587505,0.9616722764587505,0.0,0,False
2023-01-08,0.9616722764587505,0.9616722764587505,0.0,0,False
2023-01-09,0.9616722764587505,0.9616722764587505,0.0,0,False
2023-01-10,0.9616722764587505,0.9616722764587505,0.0,0,False
2023-01-11,0.9616722764587505,0.9616722764587505,0.0,0,False
2023-01-12,0.9616722764587505,0.9616722764587505,0.0,0,False
2023-01-13,0.9616722764587505,0.9616722764587505,0.0,0,False
2023-01-14,0.9616722764587505,0.9616722764587505,0.0,0,False
2023-01-15,0.9616722764587505,0.9616722764587505,0.0,0,False
2023-01-16,0.9616722764587505,0.9616722764587505,0.0,0,False
2023-01-17,0.9616722764587505,0.9616722764587505,0.0,0,False
2023-01-18,0.9616722764587505,0.9616722764587505,0.0,0,False
2023-01-19,0.9616722764587505,0.9616722764587505,0.0,0,False
2023-01-20,0.9616722764587505,0.9616722764587505,0.0,0,False
2023-01-21,0.9616722764587505,0.9616722764587505,0.0,0,False
2023-01-22,0.9616722764587505,0.9616722764587505,0.0,0,False
2023-01-23,0.9616722764587505,0.9616722764587505,0.0,0,False
2023-01-24,0.9616722764587505,0.9616722764587505,0.0,0,False
2023-01-25,0.9616722764587505,0.9616722764587505,0.0,0,False
2023-01-26,0.9616722764587505,0.9616722764587505,0.0,0,False
2023-01-27,0.9616722764587505,0.9616722764587505,0.0,0,False
2023-01-28,0.9616722764587505,0.9616722764587505,0.0,0,False
2023-01-29,0.9616722764587505,0.9616722764587505,0.0,0,False
2023-01-30,0.9616722764587505,0.9616722764587505,0.0,0,False
2023-01-31,0.9616722764587505,0.9616722764587505,0.0,0,False
2023-02-01,0.9616722764587505,0.9616722764587505,0.0,0,False
2023-02-02,0.9616722764587505,0.9616722764587505,0.0,0,False
2023-02-03,0.9616722764587505,0.9616722764587505,0.0,0,False
2023-02-04,0.9616722764587505,0.9616722764587505,0.0,0,False
2023-02-05,0.9616722764587505,0.9616722764587505,0.0,0,False
2023-02-06,0.9616722764587505,0.9616722764587505,0.0,0,False
2023-02-07,0.9616722764587505,0.9616722764587505,0.0,0,False
2023-02-08,0.9616722764587505,0.9616722764587505,0.0,0,False
2023-02-09,0.9616722764587505,0.9616722764587505,0.0,0,False
2023-02-10,0.9616722764587505,0.9616722764587505,0.0,0,False
2023-02-11,0.9616722764587505,0.9616722764587505,0.0,0,False
2023-02-12,0.9616722764587505,0.9616722764587505,0.0,0,False
2023-02-13,0.9616722764587505,0.9616722764587505,0.0,0,False
2023-02-14,0.9616722764587505,0.9616722764587505,0.0,0,False
2023-02-15,0.9616722764587505,0.9616722764587505,0.0,0,False
2023-02-16,0.9616722764587505,0.9616722764587505,0.0,0,False
2023-02-17,0.9616722764587505,0.9616722764587505,0.0,0,False
2023-02-18,0.9616722764587505,0.9616722764587505,0.0,0,False
2023-02-19,0.9616722764587505,0.9616722764587505,0.0,0,False
2023-02-20,0.9616722764587505,0.9616722764587505,0.0,0,False
2023-02-21,0.9616722764587505,0.9616722764587505,0.0,0,False
2023-02-22,0.9616722764587505,0.9616722764587505,0.0,0,False
2023-02-23,0.9616722764587505,0.9616722764587505,0.0,0,False
2023-02-24,0.9616722764587505,0.9616722764587505,0.0,0,False
2023-02-25,0.9616722764587505,0.9616722764587505,0.0,0,False
2023-02-26,0.9616722764587505,0.9616722764587505,0.0,0,False
2023-02-27,0.9616722764587505,0.9616722764587505,0.0,0,False
2023-02-28,0.9616722764587505,0.9616722764587505,0.0,0,False
2023-03-01,0.9616722764587505,0.9616722764587505,0.0,0,False
2023-03-02,0.9616722764587505,0.9616722764587505,0.0,0,False
2023-03-03,0.9616722764587505,0.9616722764587505,0.0,0,False
2023-03-04,0.9616722764587505,0.9616722764587505,0.0,0,False
2023-03-05,0.9616722764587505,0.9616722764587505,0.0,0,False
2023-03-06,0.9616722764587505,0.9616722764587505,0.0,0,False
2023-03-07,0.9616722764587505,0.9616722764587505,0.0,0,False
2023-03-08,0.9616722764587505,0.9616722764587505,0.0,0,False
2023-03-09,0.9616722764587505,0.9616722764587505,0.0,0,False
2023-03-10,0.9616722764587505,0.9616722764587505,0.0,0,False
2023-03-11,0.9616722764587505,0.9616722764587505,0.0,0,False
2023-03-12,0.9616722764587505,0.9616722764587505,0.0,0,False
2023-03-13,0.9616722764587505,0.9616722764587505,0.0,0,False
2023-03-14,0.9616722764587505,0.9616722764587505,0.0,0,False
2023-03-15,0.9616722764587505,0.9616722764587505,0.0,0,False
2023-03-16,0.9616722764587505,0.9616722764587505,0.0,0,False
2023-03-17,0.9616722764587505,0.9616722764587505,0.0,0,False
2023-03-18,0.9616722764587505,0.9616722764587505,0.0,0,False
2023-03-19,0.9616722764587505,0.9616722764587505,0.0,0,False
2023-03-20,0.9616722764587505,0.9616722764587505,0.0,0,False
2023-03-21,0.9616722764587505,0.9616722764587505,0.0,0,False
2023-03-22,0.9616722764587505,0.9616722764587505,0.0,0,False
2023-03-23,0.9616722764587505,0.9616722764587505,0.0,0,False
2023-03-24,0.9616722764587505,0.9616722764587505,0.0,0,False
2023-03-25,0.9616722764587505,0.9616722764587505,0.0,0,False
2023-03-26,0.9616722764587505,0.9616722764587505,0.0,0,False
2023-03-27,0.9616722764587505,0.9616722764587505,0.0,0,False
2023-03-28,0.9616722764587505,0.9616722764587505,0.0,0,False
2023-03-29,0.9616722764587505,0.9616722764587505,0.0,0,False
2023-03-30,0.9616722764587505,0.9616722764587505,0.0,0,False
2023-03-31,0.9616722764587505,0.9616722764587505,0.0,0,False
2023-04-01,0.9616722764587505,0.9616722764587505,0.0,0,False
2023-04-02,0.9616722764587505,0.9616722764587505,0.0,0,False
2023-04-03,0.9616722764587505,0.9616722764587505,0.0,0,False
2023-04-04,0.9616722764587505,0.9616722764587505,0.0,0,False
2023-04-05,0.9616722764587505,0.9616722764587505,0.0,0,False
2023-04-06,0.9616722764587505,0.9616722764587505,0.0,0,False
2023-04-07,0.9616722764587505,0.9616722764587505,0.0,0,False
2023-04-08,0.9616722764587505,0.9616722764587505,0.0,0,False
2023-04-09,0.9616722764587505,0.9616722764587505,0.0,0,False
2023-04-10,0.9616722764587505,0.9616722764587505,0.0,0,False
2023-04-11,0.9616722764587505,0.9616722764587505,0.0,0,False
2023-04-12,0.9616722764587505,0.9616722764587505,0.0,0,False
2023-04-13,0.9616722764587505,0.9616722764587505,0.0,0,False
2023-04-14,0.9616722764587505,0.9616722764587505,0.0,0,False
2023-04-15,0.9616722764587505,0.9616722764587505,0.0,0,False
2023-04-16,0.9616722764587505,0.9616722764587505,0.0,0,False
2023-04-17,0.9616722764587505,0.9616722764587505,0.0,0,False
2023-04-18,0.9616722764587505,0.9616722764587505,0.0,0,False
2023-04-19,0.9616722764587505,0.9616722764587505,0.0,0,False
2023-04-20,0.9616722764587505,0.9616722764587505,0.0,0,False
2023-04-21,0.9616722764587505,0.9616722764587505,0.0,0,False
2023-04-22,0.9616722764587505,0.9616722764587505,0.0,0,False
2023-04-23,0.9616722764587505,0.9616722764587505,0.0,0,False
2023-04-24,0.9616722764587505,0.9616722764587505,0.0,0,False
2023-04-25,0.9616722764587505,0.9616722764587505,0.0,0,False
2023-04-26,0.9616722764587505,0.9616722764587505,0.0,0,False
2023-04-27,0.9616722764587505,0.9616722764587505,0.0,0,False
2023-04-28,0.9616722764587505,0.9616722764587505,0.0,0,False
2023-04-29,0.9616722764587505,0.9616722764587505,0.0,0,False
2023-04-30,0.9616722764587505,0.9616722764587505,0.0,0,False
2023-05-01,0.9616722764587505,0.9616722764587505,0.0,0,False
2023-05-02,0.9616722764587505,0.9616722764587505,0.0,0,False
2023-05-03,0.9616722764587505,0.9616722764587505,0.0,0,False
2023-05-04,0.9616722764587505,0.9616722764587505,0.0,0,False
2023-05-05,0.9616722764587505,0.9616722764587505,0.0,0,False
2023-05-06,0.9616722764587505,0.9616722764587505,0.0,0,False
2023-05-07,0.9616722764587505,0.9616722764587505,0.0,0,False
2023-05-08,0.9616722764587505,0.9616722764587505,0.0,0,False
2023-05-09,0.9616722764587505,0.9616722764587505,0.0,0,False
2023-05-10,0.9616722764587505,0.9616722764587505,0.0,0,False
2023-05-11,0.9616722764587505,0.9616722764587505,0.0,0,False
2023-05-12,0.9616722764587505,0.9616722764587505,0.0,0,False
2023-05-13,0.9616722764587505,0.9616722764587505,0.0,0,False
2023-05-14,0.9616722764587505,0.9616722764587505,0.0,0,False
2023-05-15,0.9616722764587505,0.9616722764587505,0.0,0,False
2023-05-16,0.9616722764587505,0.9616722764587505,0.0,0,False
2023-05-17,0.9616722764587505,0.9616722764587505,0.0,0,False
2023-05-18,0.9616722764587505,0.9616722764587505,0.0,0,False
2023-05-19,0.9616722764587505,0.9616722764587505,0.0,0,False
2023-05-20,0.9616722764587505,0.9616722764587505,0.0,0,False
2023-05-21,0.9616722764587505,0.9616722764587505,0.0,0,False
2023-05-22,0.9616722764587505,0.9616722764587505,0.0,0,False
2023-05-23,0.9616722764587505,0.9616722764587505,0.0,0,False
2023-05-24,0.9616722764587505,0.9616722764587505,0.0,0,False
2023-05-25,0.9616722764587505,0.9616722764587505,0.0,0,False
2023-05-26,0.9616722764587505,0.9616722764587505,0.0,0,False
2023-05-27,0.9616722764587505,0.9616722764587505,0.0,0,False
2023-05-28,0.9616722764587505,0.9616722764587505,0.0,0,False
2023-05-29,0.9616722764587505,0.9616722764587505,0.0,0,False
2023-05-30,0.9616722764587505,0.9616722764587505,0.0,0,False
2023-05-31,0.9616722764587505,0.9616722764587505,0.0,0,False
2023-06-01,0.9616722764587505,0.9616722764587505,0.0,0,False
2023-06-02,0.9616722764587505,0.9616722764587505,0.0,0,False
2023-06-03,0.9616722764587505,0.9616722764587505,0.0,0,False
2023-06-04,0.9616722764587505,0.9616722764587505,0.0,0,False
2023-06-05,0.9616722764587505,0.9616722764587505,0.0,0,False
2023-06-06,0.9616722764587505,0.9616722764587505,0.0,0,False
2023-06-07,0.9616722764587505,0.9616722764587505,0.0,0,False
2023-06-08,0.9616722764587505,0.9616722764587505,0.0,0,False
2023-06-09,0.9616722764587505,0.9616722764587505,0.0,0,False
2023-06-10,0.9616722764587505,0.9616722764587505,0.0,0,False
2023-06-11,0.9616722764587505,0.9616722764587505,0.0,0,False
2023-06-12,0.9616722764587505,0.9616722764587505,0.0,0,False
2023-06-13,0.9616722764587505,0.9616722764587505,0.0,0,False
2023-06-14,0.9616722764587505,0.9616722764587505,0.0,0,False
2023-06-15,0.9616722764587505,0.9616722764587505,0.0,0,False
2023-06-16,0.9616722764587505,0.9616722764587505,0.0,0,False
2023-06-17,0.9616722764587505,0.9616722764587505,0.0,0,False
2023-06-18,0.9616722764587505,0.9616722764587505,0.0,0,False
2023-06-19,0.9616722764587505,0.9616722764587505,0.0,0,False
2023-06-20,0.9616722764587505,0.9616722764587505,0.0,0,False
2023-06-21,0.9616722764587505,0.9616722764587505,0.0,0,False
2023-06-22,0.9616722764587505,0.9616722764587505,0.0,0,False
2023-06-23,0.9616722764587505,0.9616722764587505,0.0,0,False
2023-06-24,0.9616722764587505,0.9616722764587505,0.0,0,False
2023-06-25,0.9616722764587505,0.9616722764587505,0.0,0,False
2023-06-26,0.9616722764587505,0.9616722764587505,0.0,0,False
2023-06-27,0.9616722764587505,0.9616722764587505,0.0,0,False
2023-06-28,0.9616722764587505,0.9616722764587505,0.0,0,False
2023-06-29,0.9616722764587505,0.9616722764587505,0.0,0,False
2023-06-30,0.9616722764587505,0.9616722764587505,0.0,0,False
2023-07-01,0.9616722764587505,0.9616722764587505,0.0,0,False
2023-07-02,0.9616722764587505,0.9616722764587505,0.0,0,False
2023-07-03,0.9616722764587505,0.9616722764587505,0.0,0,False
2023-07-04,0.9616722764587505,0.9616722764587505,0.0,0,False
2023-07-05,0.9616722764587505,0.9616722764587505,0.0,0,False
2023-07-06,0.9616722764587505,0.9616722764587505,0.0,0,False
2023-07-07,0.9616722764587505,0.9616722764587505,0.0,0,False
2023-07-08,0.9616722764587505,0.9616722764587505,0.0,0,False
2023-07-09,0.9616722764587505,0.9616722764587505,0.0,0,False
2023-07-10,0.9616722764587505,0.9616722764587505,0.0,0,False
2023-07-11,0.9616722764587505,0.9616722764587505,0.0,0,False
2023-07-12,0.9616722764587505,0.9616722764587505,0.0,0,False
2023-07-13,0.9616722764587505,0.9616722764587505,0.0,0,False
2023-07-14,0.9616722764587505,0.9616722764587505,0.0,0,False
2023-07-15,0.9616722764587505,0.9616722764587505,0.0,0,False
2023-07-16,0.9616722764587505,0.9616722764587505,0.0,0,False
2023-07-17,0.9616722764587505,0.9616722764587505,0.0,0,False
2023-07-18,0.9616722764587505,0.9616722764587505,0.0,0,False
2023-07-19,0.9616722764587505,0.9616722764587505,0.0,0,False
2023-07-20,0.9616722764587505,0.9616722764587505,0.0,0,False
2023-07-21,0.9616722764587505,0.9616722764587505,0.0,0,False
2023-07-22,0.9616722764587505,0.9616722764587505,0.0,0,False
2023-07-23,0.9616722764587505,0.9616722764587505,0.0,0,False
2023-07-24,0.9616722764587505,0.9616722764587505,0.0,0,False
2023-07-25,0.9616722764587505,0.9616722764587505,0.0,0,False
2023-07-26,0.9616722764587505,0.9616722764587505,0.0,0,False
2023-07-27,0.9616722764587505,0.9616722764587505,0.0,0,False
2023-07-28,0.9616722764587505,0.9616722764587505,0.0,0,False
2023-07-29,0.9616722764587505,0.9616722764587505,0.0,0,False
2023-07-30,0.9616722764587505,0.9616722764587505,0.0,0,False
2023-07-31,0.9616722764587505,0.9616722764587505,0.0,0,False
2023-08-01,0.9616722764587505,0.9616722764587505,0.0,0,False
2023-08-02,0.9616722764587505,0.9616722764587505,0.0,0,False
2023-08-03,0.9616722764587505,0.9616722764587505,0.0,0,False
2023-08-04,0.9616722764587505,0.9616722764587505,0.0,0,False
2023-08-05,0.9616722764587505,0.9616722764587505,0.0,0,False
2023-08-06,0.9616722764587505,0.9616722764587505,0.0,0,False
2023-08-07,0.9616722764587505,0.9616722764587505,0.0,0,False
2023-08-08,0.9616722764587505,0.9616722764587505,0.0,0,False
2023-08-09,0.9616722764587505,0.9616722764587505,0.0,0,False
2023-08-10,0.9616722764587505,0.9616722764587505,0.0,0,False
2023-08-11,0.9616722764587505,0.9616722764587505,0.0,0,False
2023-08-12,0.9616722764587505,0.9616722764587505,0.0,0,False
2023-08-13,0.9616722764587505,0.9616722764587505,0.0,0,False
2023-08-14,0.9616722764587505,0.9616722764587505,0.0,0,False
2023-08-15,0.9616722764587505,0.9616722764587505,0.0,0,False
2023-08-16,0.9616722764587505,0.9616722764587505,0.0,0,False
2023-08-17,0.9616722764587505,0.9616722764587505,0.0,0,False
2023-08-18,0.9616722764587505,0.9616722764587505,0.0,0,False
2023-08-19,0.9616722764587505,0.9616722764587505,0.0,0,False
2023-08-20,0.9616722764587505,0.9616722764587505,0.0,0,False
2023-08-21,0.9616722764587505,0.9616722764587505,0.0,0,False
2023-08-22,0.9616722764587505,0.9616722764587505,0.0,0,False
2023-08-23,0.9616722764587505,0.9616722764587505,0.0,0,False
2023-08-24,0.9616722764587505,0.9616722764587505,0.0,0,False
2023-08-25,0.9616722764587505,0.9616722764587505,0.0,0,False
2023-08-26,0.9616722764587505,0.9616722764587505,0.0,0,False
2023-08-27,0.9616722764587505,0.9616722764587505,0.0,0,False
2023-08-28,0.9616722764587505,0.9616722764587505,0.0,0,False
2023-08-29,0.9616722764587505,0.9616722764587505,0.0,0,False
2023-08-30,0.9616722764587505,0.9616722764587505,0.0,0,False
2023-08-31,0.9616722764587505,0.9616722764587505,0.0,0,False
2023-09-01,0.9616722764587505,0.9616722764587505,0.0,0,False
2023-09-02,0.9616722764587505,0.9616722764587505,0.0,0,False
2023-09-03,0.9616722764587505,0.9616722764587505,0.0,0,False
2023-09-04,0.9616722764587505,0.9616722764587505,0.0,0,False
2023-09-05,0.9616722764587505,0.9616722764587505,0.0,0,False
2023-09-06,0.9616722764587505,0.9616722764587505,0.0,0,False
2023-09-07,0.9616722764587505,0.9616722764587505,0.0,0,False
2023-09-08,0.9616722764587505,0.9616722764587505,0.0,0,False
2023-09-09,0.9616722764587505,0.9616722764587505,0.0,0,False
2023-09-10,0.9616722764587505,0.9616722764587505,0.0,0,False
2023-09-11,0.9616722764587505,0.9616722764587505,0.0,0,False
2023-09-12,0.9616722764587505,0.9616722764587505,0.0,0,False
2023-09-13,0.9616722764587505,0.9616722764587505,0.0,0,False
2023-09-14,0.9616722764587505,0.9616722764587505,0.0,0,False
2023-09-15,0.9616722764587505,0.9616722764587505,0.0,0,False
2023-09-16,0.9616722764587505,0.9616722764587505,0.0,0,False
2023-09-17,0.9616722764587505,0.9616722764587505,0.0,0,False
2023-09-18,0.9616722764587505,0.9616722764587505,0.0,0,False
2023-09-19,0.9616722764587505,0.9616722764587505,0.0,0,False
2023-09-20,0.9616722764587505,0.9616722764587505,0.0,0,False
2023-09-21,0.9616722764587505,0.9616722764587505,0.0,0,False
2023-09-22,0.9616722764587505,0.9616722764587505,0.0,0,False
2023-09-23,0.9616722764587505,0.9616722764587505,0.0,0,False
2023-09-24,0.9616722764587505,0.9616722764587505,0.0,0,False
2023-09-25,0.9616722764587505,0.9616722764587505,0.0,0,False
2023-09-26,0.9616722764587505,0.9616722764587505,0.0,0,False
2023-09-27,0.9616722764587505,0.9616722764587505,0.0,0,False
2023-09-28,0.9616722764587505,0.9616722764587505,0.0,0,False
2023-09-29,0.9616722764587505,0.9616722764587505,0.0,0,False
2023-09-30,0.9616722764587505,0.9616722764587505,0.0,0,False
2023-10-01,0.9616722764587505,0.9616722764587505,0.0,0,False
2023-10-02,0.9616722764587505,0.9616722764587505,0.0,0,False
2023-10-03,0.9616722764587505,0.9616722764587505,0.0,0,False
2023-10-04,0.9616722764587505,0.9616722764587505,0.0,0,False
2023-10-05,0.9616722764587505,0.9616722764587505,0.0,0,False
2023-10-06,0.9616722764587505,0.9616722764587505,0.0,0,False
2023-10-07,0.9616722764587505,0.9616722764587505,0.0,0,False
2023-10-08,0.9616722764587505,0.9616722764587505,0.0,0,False
2023-10-09,0.9616722764587505,0.9616722764587505,0.0,0,False
2023-10-10,0.9616722764587505,0.9616722764587505,0.0,0,False
2023-10-11,0.9616722764587505,0.9616722764587505,0.0,0,False
2023-10-12,0.9616722764587505,0.9616722764587505,0.0,0,False
2023-10-13,0.9616722764587505,0.9616722764587505,0.0,0,False
2023-10-14,0.9616722764587505,0.9616722764587505,0.0,0,False
2023-10-15,0.9616722764587505,0.9616722764587505,0.0,0,False
2023-10-16,0.9616722764587505,0.9616722764587505,0.0,0,False
2023-10-17,0.9616722764587505,0.9616722764587505,0.0,0,False
2023-10-18,0.9616722764587505,0.9616722764587505,0.0,0,False
2023-10-19,0.9616722764587505,0.9616722764587505,0.0,0,False
2023-10-20,0.9616722764587505,0.9616722764587505,0.0,0,False
2023-10-21,0.9616722764587505,0.9616722764587505,0.0,0,False
2023-10-22,0.9616722764587505,0.9616722764587505,0.0,0,False
2023-10-23,0.9616722764587505,0.9616722764587505,0.0,0,False
2023-10-24,0.9616722764587505,0.9616722764587505,0.0,0,False
2023-10-25,0.9616722764587505,0.9616722764587505,0.0,0,False
2023-10-26,0.9616722764587505,0.9616722764587505,0.0,0,False
2023-10-27,0.9616722764587505,0.9616722764587505,0.0,0,False
2023-10-28,0.9616722764587505,0.9616722764587505,0.0,0,False
2023-10-29,0.9616722764587505,0.9616722764587505,0.0,0,False
2023-10-30,0.9616722764587505,0.9616722764587505,0.0,0,False
2023-10-31,0.9616722764587505,0.9616722764587505,0.0,0,False
2023-11-01,0.9616722764587505,0.9616722764587505,0.0,0,False
2023-11-02,0.9616722764587505,0.9616722764587505,0.0,0,False
2023-11-03,0.9616722764587505,0.9616722764587505,0.0,0,False
2023-11-04,0.9616722764587505,0.9616722764587505,0.0,0,False
2023-11-05,0.9616722764587505,0.9616722764587505,0.0,0,False
2023-11-06,0.9616722764587505,0.9616722764587505,0.0,0,False
2023-11-07,0.9616722764587505,0.9616722764587505,0.0,0,False
2023-11-08,0.9616722764587505,0.9616722764587505,0.0,0,False
2023-11-09,0.9616722764587505,0.9616722764587505,0.0,0,False
2023-11-10,0.9616722764587505,0.9616722764587505,0.0,0,False
2023-11-11,0.9616722764587505,0.9616722764587505,0.0,0,False
2023-11-12,0.9616722764587505,0.9616722764587505,0.0,0,False
2023-11-13,0.9616722764587505,0.9616722764587505,0.0,0,False
2023-11-14,0.9616722764587505,0.9616722764587505,0.0,0,False
2023-11-15,0.9616722764587505,0.9616722764587505,0.0,0,False
2023-11-16,0.9616722764587505,0.9616722764587505,0.0,0,False
2023-11-17,0.9616722764587505,0.9616722764587505,0.0,0,False
2023-11-18,0.9616722764587505,0.9616722764587505,0.0,0,False
2023-11-19,0.9616722764587505,0.9616722764587505,0.0,0,False
2023-11-20,0.9616722764587505,0.9616722764587505,0.0,0,False
2023-11-21,0.9616722764587505,0.9616722764587505,0.0,0,False
2023-11-22,0.9616722764587505,0.9616722764587505,0.0,0,False
2023-11-23,0.9616722764587505,0.9616722764587505,0.0,0,False
2023-11-24,0.9616722764587505,0.9616722764587505,0.0,0,False
2023-11-25,0.9616722764587505,0.9616722764587505,0.0,0,False
2023-11-26,0.9616722764587505,0.9616722764587505,0.0,0,False
2023-11-27,0.9616722764587505,0.9616722764587505,0.0,0,False
2023-11-28,0.9616722764587505,0.9616722764587505,0.0,0,False
2023-11-29,0.9616722764587505,0.9616722764587505,0.0,0,False
2023-11-30,0.9616722764587505,0.9616722764587505,0.0,0,False
2023-12-01,0.9616722764587505,0.9616722764587505,0.0,0,False
2023-12-02,0.9616722764587505,0.9616722764587505,0.0,0,False
2023-12-03,0.9616722764587505,0.9616722764587505,0.0,0,False
2023-12-04,0.9616722764587505,0.9616722764587505,0.0,0,False
2023-12-05,0.9616722764587505,0.9616722764587505,0.0,0,False
2023-12-06,0.9616722764587505,0.9616722764587505,0.0,0,False
2023-12-07,0.9616722764587505,0.9616722764587505,0.0,0,False
2023-12-08,0.9616722764587505,0.9616722764587505,0.0,0,False
2023-12-09,0.9616722764587505,0.9616722764587505,0.0,0,False
2023-12-10,0.9616722764587505,0.9616722764587505,0.0,0,False
2023-12-11,0.9616722764587505,0.9616722764587505,0.0,0,False
2023-12-12,0.9616722764587505,0.9616722764587505,0.0,0,False
2023-12-13,0.9616722764587505,0.9616722764587505,0.0,0,False
2023-12-14,0.9616722764587505,0.9616722764587505,0.0,0,False
2023-12-15,0.9616722764587505,0.9616722764587505,0.0,0,False
2023-12-16,0.9616722764587505,0.9616722764587505,0.0,0,False
2023-12-17,0.9616722764587505,0.9616722764587505,0.0,0,False
2023-12-18,0.9616722764587505,0.9616722764587505,0.0,0,False
2023-12-19,0.9616722764587505,0.9616722764587505,0.0,0,False
2023-12-20,0.9616722764587505,0.9616722764587505,0.0,0,False
2023-12-21,0.9616722764587505,0.9616722764587505,0.0,0,False
2023-12-22,0.9616722764587505,0.9616722764587505,0.0,0,False
2023-12-23,0.9616722764587505,0.9616722764587505,0.0,0,False
2023-12-24,0.9616722764587505,0.9616722764587505,0.0,0,False
2023-12-25,0.9616722764587505,0.9616722764587505,0.0,0,False
2023-12-26,0.9616722764587505,0.9616722764587505,0.0,0,False
2023-12-27,0.9616722764587505,0.9616722764587505,0.0,0,False
2023-12-28,0.9616722764587505,0.9616722764587505,0.0,0,False
2023-12-29,0.9616722764587505,0.9616722764587505,0.0,0,False
2023-12-30,0.9616722764587505,0.9616722764587505,0.0,0,False
2023-12-31,0.9616722764587505,0.9616722764587505,0.0,0,False
