day,start_equity,end_equity,return_pct,entries,active
2021-09-02,1.0,1.0,0.0,0,False
2021-09-03,1.0,1.0,0.0,0,False
2021-09-04,1.0,1.0,0.0,0,False
2021-09-05,1.0,1.0,0.0,0,False
2021-09-06,1.0,1.0,0.0,0,False
2021-09-07,1.0,1.0,0.0,0,False
2021-09-08,1.0,1.0,0.0,0,False
2021-09-09,1.0,1.0,0.0,0,False
2021-09-10,1.0,1.0,0.0,0,False
2021-09-11,1.0,1.0,0.0,0,False
2021-09-12,1.0,1.0,0.0,0,False
2021-09-13,1.0,1.0,0.0,0,False
2021-09-14,1.0,1.0,0.0,0,False
2021-09-15,1.0,1.0,0.0,0,False
2021-09-16,1.0,1.0,0.0,0,False
2021-09-17,1.0,1.0,0.0,0,False
2021-09-18,1.0,1.0,0.0,0,False
2021-09-19,1.0,1.0,0.0,0,False
2021-09-20,1.0,1.0,0.0,0,False
2021-09-21,1.0,1.0,0.0,0,False
2021-09-22,1.0,1.0,0.0,0,False
2021-09-23,1.0,1.0,0.0,0,False
2021-09-24,1.0,1.0,0.0,0,False
2021-09-25,1.0,1.0,0.0,0,False
2021-09-26,1.0,1.0,0.0,0,False
2021-09-27,1.0,1.0,0.0,0,False
2021-09-28,1.0,1.0,0.0,0,False
2021-09-29,1.0,1.0,0.0,0,False
2021-09-30,1.0,1.0,0.0,0,False
2021-10-01,1.0,1.0,0.0,0,False
2021-10-02,1.0,1.0,0.0,0,False
2021-10-03,1.0,1.0,0.0,0,False
2021-10-04,1.0,1.0,0.0,0,False
2021-10-05,1.0,1.0,0.0,0,False
2021-10-06,1.0,1.001489821323389,0.1489821323388929,1,True
2021-10-07,1.001489821323389,1.0006266840307554,-0.08618532852315841,0,True
2021-10-08,1.0006266840307554,1.0006266840307554,0.0,0,False
2021-10-09,1.0006266840307554,0.9986866545947173,-0.19388144120074946,3,True
2021-10-10,0.9986866545947173,1.0011029499451742,0.24194729541444637,1,True
2021-10-11,1.0011029499451742,0.9973633736513651,-0.3735456272518145,0,True
2021-10-12,0.9973633736513651,0.9973633736513651,0.0,0,False
2021-10-13,0.9973633736513651,1.0110876924455516,1.3760600355657404,4,True
2021-10-14,1.0110876924455516,1.0262936448939912,1.5039202397628237,0,True
2021-10-15,1.0262936448939912,1.0294611137627871,0.3086318311094294,1,True
2021-10-16,1.0294611137627871,1.045563883582114,1.564194082131909,0,True
2021-10-17,1.045563883582114,1.045563883582114,0.0,0,False
2021-10-18,1.045563883582114,1.04459984527644,-0.09220271671694924,1,True
2021-10-19,1.04459984527644,1.0467340420441218,0.2043075898711333,0,True
2021-10-20,1.0467340420441218,1.0467340420441218,0.0,0,False
2021-10-21,1.0467340420441218,1.0467340420441218,0.0,0,False
2021-10-22,1.0467340420441218,1.0467340420441218,0.0,0,False
2021-10-23,1.0467340420441218,1.0467340420441218,0.0,0,False
2021-10-24,1.0467340420441218,1.0467340420441218,0.0,0,False
2021-10-25,1.0467340420441218,1.0501342105188158,0.32483595050123437,1,True
2021-10-26,1.0501342105188158,1.0535514142283322,0.32540637904063807,0,True
2021-10-27,1.0535514142283322,1.0513533480793025,-0.2086339707151108,6,True
2021-10-28,1.0513533480793025,1.0546915598918936,0.31751568763151994,0,True
2021-10-29,1.0546915598918936,1.0546915598918936,0.0,0,False
2021-10-30,1.0546915598918936,1.0546915598918936,0.0,0,False
2021-10-31,1.0546915598918936,1.0546915598918936,0.0,0,False
2021-11-01,1.0546915598918936,1.0560783460891707,0.13148737033785718,1,True
2021-11-02,1.0560783460891707,1.055607989807068,-0.04453801025695592,0,True
2021-11-03,1.055607989807068,1.0557668720806652,0.015051257202602919,1,True
2021-11-04,1.0557668720806652,1.0755948759377094,1.878066491892083,1,True
2021-11-05,1.0755948759377094,1.0684224521487489,-0.6668332054582948,0,True
2021-11-06,1.0684224521487489,1.0653014880314937,-0.292109559376863,1,True
2021-11-07,1.0653014880314937,1.0654824843289086,0.016990147807760536,0,True
2021-11-08,1.0654824843289086,1.0654824843289086,0.0,0,False
2021-11-09,1.0654824843289086,1.0654824843289086,0.0,0,False
2021-11-10,1.0654824843289086,1.0654824843289086,0.0,0,False
2021-11-11,1.0654824843289086,1.0338240352545438,-2.971278227469387,6,True
2021-11-12,1.0338240352545438,1.0338240352545438,0.0,0,False
2021-11-13,1.0338240352545438,1.0327483032362252,-0.1040536862787933,1,True
2021-11-14,1.0327483032362252,1.0330852923715623,0.03263032573195268,0,True
2021-11-15,1.0330852923715623,1.0330852923715623,0.0,0,False
2021-11-16,1.0330852923715623,1.0536697965043837,1.9925270725292599,5,True
2021-11-17,1.0536697965043837,1.0421922930400611,-1.089288456630344,0,True
2021-11-18,1.0421922930400611,1.0394593729767108,-0.2622280054843329,2,True
2021-11-19,1.0394593729767108,1.0432759404053762,0.367168503924864,1,True
2021-11-20,1.0432759404053762,1.0438115425605383,0.051338493913122285,0,True
2021-11-21,1.0438115425605383,1.0438115425605383,0.0,0,False
2021-11-22,1.0438115425605383,1.0386009594856331,-0.4991881065161685,1,True
2021-11-23,1.0386009594856331,1.0386009594856331,0.0,0,False
2021-11-24,1.0386009594856331,1.0386009594856331,0.0,0,False
2021-11-25,1.0386009594856331,1.0412159742130307,0.2517824293839066,2,True
2021-11-26,1.0412159742130307,1.0178163945793415,-2.247331986178469,3,True
2021-11-27,1.0178163945793415,1.0178163945793415,0.0,0,False
2021-11-28,1.0178163945793415,1.0127361074945551,-0.49913590622462367,1,True
2021-11-29,1.0127361074945551,1.0127361074945551,0.0,0,False
2021-11-30,1.0127361074945551,1.0127361074945551,0.0,0,False
2021-12-01,1.0127361074945551,1.0127361074945551,0.0,0,False
2021-12-02,1.0127361074945551,1.0107533040530285,-0.19578678264290383,2,True
2021-12-03,1.0107533040530285,1.0050004329102804,-0.569166691781231,1,True
2021-12-04,1.0050004329102804,0.9832432948746008,-2.1648884242442823,8,True
2021-12-05,0.9832432948746008,0.9803774205482626,-0.29147153520164837,1,True
2021-12-06,0.9803774205482626,0.9679171807850196,-1.2709635597558666,7,True
2021-12-07,0.9679171807850196,0.9858936189773004,1.8572289601989755,0,True
2021-12-08,0.9858936189773004,0.987670345688026,0.18021485041850305,1,True
2021-12-09,0.987670345688026,0.9864787768661974,-0.12064438575388747,0,True
2021-12-10,0.9864787768661974,0.984014655303801,-0.24978961739292593,1,True
2021-12-11,0.984014655303801,0.9838787564389038,-0.013810654563395364,1,True
2021-12-12,0.9838787564389038,0.9846662257974099,0.08003723562000076,0,True
2021-12-13,0.9846662257974099,0.9829567936510376,-0.17360523815955764,1,True
2021-12-14,0.9829567936510376,0.9822073914600318,-0.07623958609841441,0,True
2021-12-15,0.9822073914600318,0.9822073914600318,0.0,0,False
2021-12-16,0.9822073914600318,0.9822073914600318,0.0,0,False
2021-12-17,0.9822073914600318,0.9824716923593578,0.026908868903263716,2,True
2021-12-18,0.9824716923593578,0.9853769515104707,0.29570919688648445,0,True
2021-12-19,0.9853769515104707,0.9838776502110809,-0.15215510136415977,1,True
2021-12-20,0.9838776502110809,0.9829153055869269,-0.09781141221650858,0,True
2021-12-21,0.9829153055869269,0.98162160287626,-0.1316189404431345,1,True
2021-12-22,0.98162160287626,0.9818487141988942,0.023136341128671134,0,True
2021-12-23,0.9818487141988942,0.9818487141988942,0.0,0,False
2021-12-24,0.9818487141988942,0.9818487141988942,0.0,0,False
2021-12-25,0.9818487141988942,0.9827263904034615,0.08939016692439683,1,True
2021-12-26,0.9827263904034615,0.9825581448220453,-0.017120287300642634,0,True
2021-12-27,0.9825581448220453,0.9825581448220453,0.0,0,False
2021-12-28,0.9825581448220453,0.9825581448220453,0.0,0,False
2021-12-29,0.9825581448220453,0.9825581448220453,0.0,0,False
2021-12-30,0.9825581448220453,0.9825581448220453,0.0,0,False
2021-12-31,0.9825581448220453,0.9825581448220453,0.0,0,False
2022-01-01,0.9825581448220453,0.9825581448220453,0.0,0,False
2022-01-02,0.9825581448220453,0.9825581448220453,0.0,0,False
2022-01-03,0.9825581448220453,0.9825581448220453,0.0,0,False
2022-01-04,0.9825581448220453,0.9825581448220453,0.0,0,False
2022-01-05,0.9825581448220453,0.9832788282874227,0.07334766590407771,1,True
2022-01-06,0.9832788282874227,0.9751251683275096,-0.8292317220044643,9,True
2022-01-07,0.9751251683275096,0.9809399844539821,0.5963148440159438,4,True
2022-01-08,0.9809399844539821,0.9813841316568727,0.045277714226088506,0,True
2022-01-09,0.9813841316568727,0.9817218839088624,0.034415907196239104,1,True
2022-01-10,0.9817218839088624,0.9824703660981556,0.07624177494272022,0,True
2022-01-11,0.9824703660981556,0.9824703660981556,0.0,0,False
2022-01-12,0.9824703660981556,0.9824703660981556,0.0,0,False
2022-01-13,0.9824703660981556,0.9824703660981556,0.0,0,False
2022-01-14,0.9824703660981556,0.9824703660981556,0.0,0,False
2022-01-15,0.9824703660981556,0.9827073007479278,0.02411621336866343,1,True
2022-01-16,0.9827073007479278,0.9821962872465926,-0.05200058053361767,0,True
2022-01-17,0.9821962872465926,0.9832951788107158,0.11188105457045072,1,True
2022-01-18,0.9832951788107158,0.9863631252391579,0.3120066582806613,0,True
2022-01-19,0.9863631252391579,0.9863631252391579,0.0,0,False
2022-01-20,0.9863631252391579,0.9863631252391579,0.0,0,False
2022-01-21,0.9863631252391579,0.9703800171821848,-1.6204081081293231,7,True
2022-01-22,0.9703800171821848,0.9589504920280083,-1.1778401195199684,8,True
2022-01-23,0.9589504920280083,0.9637192079107224,0.4972848882562442,0,True
2022-01-24,0.9637192079107224,0.9608455101660955,-0.29818828150751653,2,True
2022-01-25,0.9608455101660955,0.9687743092528789,0.8251897940817488,0,True
2022-01-26,0.9687743092528789,0.9687743092528789,0.0,0,False
2022-01-27,0.9687743092528789,0.9757646141005204,0.7215617487867254,4,True
2022-01-28,0.9757646141005204,0.9692525509302307,-0.6673805420063017,0,True
2022-01-29,0.9692525509302307,0.9692525509302307,0.0,0,False
2022-01-30,0.9692525509302307,0.972732181431016,0.3590014282083498,1,True
2022-01-31,0.972732181431016,0.9720869628422069,-0.06633054823579343,0,True
2022-02-01,0.9720869628422069,0.9720869628422069,0.0,0,False
2022-02-02,0.9720869628422069,0.9720869628422069,0.0,0,False
2022-02-03,0.9720869628422069,0.9708446909785189,-0.12779431379840167,3,True
2022-02-04,0.9708446909785189,0.9739495336734731,0.3198083816913,0,True
2022-02-05,0.9739495336734731,0.9739495336734731,0.0,0,False
2022-02-06,0.9739495336734731,0.9739495336734731,0.0,0,False
2022-02-07,0.9739495336734731,0.9739495336734731,0.0,0,False
2022-02-08,0.9739495336734731,0.9739495336734731,0.0,0,False
2022-02-09,0.9739495336734731,0.9752530613919521,0.13383934931026076,2,True
2022-02-10,0.9752530613919521,0.9765217179297281,0.1300848557158396,5,True
2022-02-11,0.9765217179297281,0.9751580788021774,-0.13964247824836962,0,True
2022-02-12,0.9751580788021774,0.9654328545870866,-0.9972971999613334,4,True
2022-02-13,0.9654328545870866,0.9654328545870866,0.0,0,False
2022-02-14,0.9654328545870866,0.9654328545870866,0.0,0,False
2022-02-15,0.9654328545870866,0.9654328545870866,0.0,0,False
2022-02-16,0.9654328545870866,0.9654328545870866,0.0,0,False
2022-02-17,0.9654328545870866,0.9654328545870866,0.0,0,False
2022-02-18,0.9654328545870866,0.9654328545870866,0.0,0,False
2022-02-19,0.9654328545870866,0.9654328545870866,0.0,0,False
2022-02-20,0.9654328545870866,0.9654328545870866,0.0,0,False
2022-02-21,0.9654328545870866,0.9654328545870866,0.0,0,False
2022-02-22,0.9654328545870866,0.9647149734762278,-0.07435847117155392,2,True
2022-02-23,0.9647149734762278,0.9643041925995381,-0.04258054326755634,0,True
2022-02-24,0.9643041925995381,0.954692428779113,-0.9967564067635215,4,True
2022-02-25,0.954692428779113,0.954692428779113,0.0,0,False
2022-02-26,0.954692428779113,0.954692428779113,0.0,0,False
2022-02-27,0.954692428779113,0.954692428779113,0.0,0,False
2022-02-28,0.954692428779113,0.9559098409785991,0.12751878644758907,1,True
2022-03-01,0.9559098409785991,0.9573635358852709,0.15207447861229628,0,True
2022-03-02,0.9573635358852709,0.9573635358852709,0.0,0,False
2022-03-03,0.9573635358852709,0.9573635358852709,0.0,0,False
2022-03-04,0.9573635358852709,0.9564895387300212,-0.09129208733039684,1,True
2022-03-05,0.9564895387300212,0.9561616629692035,-0.03427907442177247,0,True
2022-03-06,0.9561616629692035,0.953089228962037,-0.321329972342288,3,True
2022-03-07,0.953089228962037,0.9504059314926893,-0.28153685802010386,0,True
2022-03-08,0.9504059314926893,0.9509796985985958,0.060370741268989114,1,True
2022-03-09,0.9509796985985958,0.9554272457619858,0.4676805582647159,1,True
2022-03-10,0.9554272457619858,0.9542492653832099,-0.12329357195968171,3,True
2022-03-11,0.9542492653832099,0.9520883074167851,-0.2264563405827702,0,True
2022-03-12,0.9520883074167851,0.9520883074167851,0.0,0,False
2022-03-13,0.9520883074167851,0.9520883074167851,0.0,0,False
2022-03-14,0.9520883074167851,0.9497125498720481,-0.24953121745427964,1,True
2022-03-15,0.9497125498720481,0.9502310398770601,0.05459441439221724,1,True
2022-03-16,0.9502310398770601,0.9519580457432406,0.18174589059982704,1,True
2022-03-17,0.9519580457432406,0.9526552233194615,0.07323616616703443,1,True
2022-03-18,0.9526552233194615,0.9521890368826769,-0.04893548320243912,0,True
2022-03-19,0.9521890368826769,0.9521890368826769,0.0,0,False
2022-03-20,0.9521890368826769,0.94981089596639,-0.24975512468328187,1,True
2022-03-21,0.94981089596639,0.9498457067860809,0.003665026358268264,3,True
2022-03-22,0.9498457067860809,0.9479109814553301,-0.2036883797998268,0,True
2022-03-23,0.9479109814553301,0.9479109814553301,0.0,0,False
2022-03-24,0.9479109814553301,0.9479109814553301,0.0,0,False
2022-03-25,0.9479109814553301,0.9479109814553301,0.0,0,False
2022-03-26,0.9479109814553301,0.9479109814553301,0.0,0,False
2022-03-27,0.9479109814553301,0.9479109814553301,0.0,0,False
2022-03-28,0.9479109814553301,0.9479109814553301,0.0,0,False
2022-03-29,0.9479109814553301,0.9479109814553301,0.0,0,False
2022-03-30,0.9479109814553301,0.9522130640436667,0.4538487972500782,4,True
2022-03-31,0.9522130640436667,0.9552100808132701,0.31474224443805987,5,True
2022-04-01,0.9552100808132701,0.9442399539399439,-1.1484517483301926,0,True
2022-04-02,0.9442399539399439,0.9442399539399439,0.0,0,False
2022-04-03,0.9442399539399439,0.9418833046860353,-0.24958160731021195,1,True
2022-04-04,0.9418833046860353,0.9418833046860353,0.0,0,False
2022-04-05,0.9418833046860353,0.9418952312936215,0.0012662510872507582,3,True
2022-04-06,0.9418952312936215,0.9284341524206341,-1.4291482137030909,7,True
2022-04-07,0.9284341524206341,0.925424160803733,-0.32420087187156055,0,True
2022-04-08,0.925424160803733,0.925424160803733,0.0,0,False
2022-04-09,0.925424160803733,0.925424160803733,0.0,0,False
2022-04-10,0.925424160803733,0.925424160803733,0.0,0,False
2022-04-11,0.925424160803733,0.9215372612399854,-0.42001276045914304,6,True
2022-04-12,0.9215372612399854,0.9241259563484597,0.2809105195584971,0,True
2022-04-13,0.9241259563484597,0.9241259563484597,0.0,0,False
2022-04-14,0.9241259563484597,0.9241259563484597,0.0,0,False
2022-04-15,0.9241259563484597,0.9241259563484597,0.0,0,False
2022-04-16,0.9241259563484597,0.9241259563484597,0.0,0,False
2022-04-17,0.9241259563484597,0.9262495512335691,0.2297949614466388,1,True
2022-04-18,0.9262495512335691,0.9274267446503056,0.1270924682412744,6,True
2022-04-19,0.9274267446503056,0.93648174190255,0.9763571413565986,0,True
2022-04-20,0.93648174190255,0.93648174190255,0.0,0,False
2022-04-21,0.93648174190255,0.9377870132012713,0.13938032535152356,2,True
2022-04-22,0.9377870132012713,0.935368457490048,-0.2579003203474928,0,True
2022-04-23,0.935368457490048,0.935368457490048,0.0,0,False
2022-04-24,0.935368457490048,0.935368457490048,0.0,0,False
2022-04-25,0.935368457490048,0.9326593766567565,-0.2896271315970034,3,True
2022-04-26,0.9326593766567565,0.9344913237238381,0.19642187844060022,2,True
2022-04-27,0.9344913237238381,0.9338248698963986,-0.07131728358737988,0,True
2022-04-28,0.9338248698963986,0.9338248698963986,0.0,0,False
2022-04-29,0.9338248698963986,0.9338248698963986,0.0,0,False
2022-04-30,0.9338248698963986,0.9324893881099099,-0.14301201751425463,1,True
2022-05-01,0.9324893881099099,0.9354501063373579,0.3175069084109472,6,True
2022-05-02,0.9354501063373579,0.9398791093965598,0.4734622433838931,0,True
2022-05-03,0.9398791093965598,0.940519717516994,0.06815856571655843,3,True
2022-05-04,0.940519717516994,0.9367861752297096,-0.3969658708635193,1,True
2022-05-05,0.9367861752297096,0.9367861752297096,0.0,0,False
2022-05-06,0.9367861752297096,0.9307655576990529,-0.6426885547473393,4,True
2022-05-07,0.9307655576990529,0.9286961350135917,-0.22233554608284134,2,True
2022-05-08,0.9286961350135917,0.9228031021938575,-0.6345490842004975,3,True
2022-05-09,0.9228031021938575,0.9178459108087382,-0.5371884179121378,3,True
2022-05-10,0.9178459108087382,0.9133249981422586,-0.492556823889545,1,True
2022-05-11,0.9133249981422586,0.9133249981422586,0.0,0,False
2022-05-12,0.9133249981422586,0.9133249981422586,0.0,0,False
2022-05-13,0.9133249981422586,0.9133249981422586,0.0,0,False
2022-05-14,0.9133249981422586,0.9133249981422586,0.0,0,False
2022-05-15,0.9133249981422586,0.9133249981422586,0.0,0,False
2022-05-16,0.9133249981422586,0.9133249981422586,0.0,0,False
2022-05-17,0.9133249981422586,0.9133249981422586,0.0,0,False
2022-05-18,0.9133249981422586,0.9133249981422586,0.0,0,False
2022-05-19,0.9133249981422586,0.9133249981422586,0.0,0,False
2022-05-20,0.9133249981422586,0.9133249981422586,0.0,0,False
2022-05-21,0.9133249981422586,0.9133249981422586,0.0,0,False
2022-05-22,0.9133249981422586,0.9133249981422586,0.0,0,False
2022-05-23,0.9133249981422586,0.9133249981422586,0.0,0,False
2022-05-24,0.9133249981422586,0.9133249981422586,0.0,0,False
2022-05-25,0.9133249981422586,0.9133249981422586,0.0,0,False
2022-05-26,0.9133249981422586,0.9133249981422586,0.0,0,False
2022-05-27,0.9133249981422586,0.9133249981422586,0.0,0,False
2022-05-28,0.9133249981422586,0.9133249981422586,0.0,0,False
2022-05-29,0.9133249981422586,0.9133249981422586,0.0,0,False
2022-05-30,0.9133249981422586,0.9133249981422586,0.0,0,False
2022-05-31,0.9133249981422586,0.9133249981422586,0.0,0,False
2022-06-01,0.9133249981422586,0.9133249981422586,0.0,0,False
2022-06-02,0.9133249981422586,0.9133249981422586,0.0,0,False
2022-06-03,0.9133249981422586,0.9133249981422586,0.0,0,False
2022-06-04,0.9133249981422586,0.9133249981422586,0.0,0,False
2022-06-05,0.9133249981422586,0.9133249981422586,0.0,0,False
2022-06-06,0.9133249981422586,0.9133249981422586,0.0,0,False
2022-06-07,0.9133249981422586,0.9133249981422586,0.0,0,False
2022-06-08,0.9133249981422586,0.9133249981422586,0.0,0,False
2022-06-09,0.9133249981422586,0.9133249981422586,0.0,0,False
2022-06-10,0.9133249981422586,0.9133249981422586,0.0,0,False
2022-06-11,0.9133249981422586,0.9133249981422586,0.0,0,False
2022-06-12,0.9133249981422586,0.9133249981422586,0.0,0,False
2022-06-13,0.9133249981422586,0.9133249981422586,0.0,0,False
2022-06-14,0.9133249981422586,0.9133249981422586,0.0,0,False
2022-06-15,0.9133249981422586,0.9133249981422586,0.0,0,False
2022-06-16,0.9133249981422586,0.9133249981422586,0.0,0,False
2022-06-17,0.9133249981422586,0.9133249981422586,0.0,0,False
2022-06-18,0.9133249981422586,0.9133249981422586,0.0,0,False
2022-06-19,0.9133249981422586,0.9133249981422586,0.0,0,False
2022-06-20,0.9133249981422586,0.9133249981422586,0.0,0,False
2022-06-21,0.9133249981422586,0.9133249981422586,0.0,0,False
2022-06-22,0.9133249981422586,0.9133249981422586,0.0,0,False
2022-06-23,0.9133249981422586,0.9133249981422586,0.0,0,False
2022-06-24,0.9133249981422586,0.9133249981422586,0.0,0,False
2022-06-25,0.9133249981422586,0.9133249981422586,0.0,0,False
2022-06-26,0.9133249981422586,0.9133249981422586,0.0,0,False
2022-06-27,0.9133249981422586,0.9133249981422586,0.0,0,False
2022-06-28,0.9133249981422586,0.9133249981422586,0.0,0,False
2022-06-29,0.9133249981422586,0.9133249981422586,0.0,0,False
2022-06-30,0.9133249981422586,0.9133249981422586,0.0,0,False
2022-07-01,0.9133249981422586,0.9133249981422586,0.0,0,False
2022-07-02,0.9133249981422586,0.9133249981422586,0.0,0,False
2022-07-03,0.9133249981422586,0.9133249981422586,0.0,0,False
2022-07-04,0.9133249981422586,0.9133249981422586,0.0,0,False
2022-07-05,0.9133249981422586,0.9133249981422586,0.0,0,False
2022-07-06,0.9133249981422586,0.9133249981422586,0.0,0,False
2022-07-07,0.9133249981422586,0.9133249981422586,0.0,0,False
2022-07-08,0.9133249981422586,0.9133249981422586,0.0,0,False
2022-07-09,0.9133249981422586,0.9133249981422586,0.0,0,False
2022-07-10,0.9133249981422586,0.9133249981422586,0.0,0,False
2022-07-11,0.9133249981422586,0.9133249981422586,0.0,0,False
2022-07-12,0.9133249981422586,0.9133249981422586,0.0,0,False
2022-07-13,0.9133249981422586,0.9133249981422586,0.0,0,False
2022-07-14,0.9133249981422586,0.9133249981422586,0.0,0,False
2022-07-15,0.9133249981422586,0.9133249981422586,0.0,0,False
2022-07-16,0.9133249981422586,0.9133249981422586,0.0,0,False
2022-07-17,0.9133249981422586,0.9133249981422586,0.0,0,False
2022-07-18,0.9133249981422586,0.9133249981422586,0.0,0,False
2022-07-19,0.9133249981422586,0.9133249981422586,0.0,0,False
2022-07-20,0.9133249981422586,0.9133249981422586,0.0,0,False
2022-07-21,0.9133249981422586,0.9133249981422586,0.0,0,False
2022-07-22,0.9133249981422586,0.9133249981422586,0.0,0,False
2022-07-23,0.9133249981422586,0.9133249981422586,0.0,0,False
2022-07-24,0.9133249981422586,0.9133249981422586,0.0,0,False
2022-07-25,0.9133249981422586,0.9133249981422586,0.0,0,False
2022-07-26,0.9133249981422586,0.9133249981422586,0.0,0,False
2022-07-27,0.9133249981422586,0.9133249981422586,0.0,0,False
2022-07-28,0.9133249981422586,0.9133249981422586,0.0,0,False
2022-07-29,0.9133249981422586,0.9133249981422586,0.0,0,False
2022-07-30,0.9133249981422586,0.9133249981422586,0.0,0,False
2022-07-31,0.9133249981422586,0.9133249981422586,0.0,0,False
2022-08-01,0.9133249981422586,0.9133249981422586,0.0,0,False
2022-08-02,0.9133249981422586,0.9133249981422586,0.0,0,False
2022-08-03,0.9133249981422586,0.9133249981422586,0.0,0,False
2022-08-04,0.9133249981422586,0.9133249981422586,0.0,0,False
2022-08-05,0.9133249981422586,0.9133249981422586,0.0,0,False
2022-08-06,0.9133249981422586,0.9133249981422586,0.0,0,False
2022-08-07,0.9133249981422586,0.9133249981422586,0.0,0,False
2022-08-08,0.9133249981422586,0.9133249981422586,0.0,0,False
2022-08-09,0.9133249981422586,0.9133249981422586,0.0,0,False
2022-08-10,0.9133249981422586,0.9133249981422586,0.0,0,False
2022-08-11,0.9133249981422586,0.9133249981422586,0.0,0,False
2022-08-12,0.9133249981422586,0.9133249981422586,0.0,0,False
2022-08-13,0.9133249981422586,0.9133249981422586,0.0,0,False
2022-08-14,0.9133249981422586,0.9133249981422586,0.0,0,False
2022-08-15,0.9133249981422586,0.9133249981422586,0.0,0,False
2022-08-16,0.9133249981422586,0.9133249981422586,0.0,0,False
2022-08-17,0.9133249981422586,0.9133249981422586,0.0,0,False
2022-08-18,0.9133249981422586,0.9133249981422586,0.0,0,False
2022-08-19,0.9133249981422586,0.9133249981422586,0.0,0,False
2022-08-20,0.9133249981422586,0.9133249981422586,0.0,0,False
2022-08-21,0.9133249981422586,0.9133249981422586,0.0,0,False
2022-08-22,0.9133249981422586,0.9133249981422586,0.0,0,False
2022-08-23,0.9133249981422586,0.9133249981422586,0.0,0,False
2022-08-24,0.9133249981422586,0.9133249981422586,0.0,0,False
2022-08-25,0.9133249981422586,0.9133249981422586,0.0,0,False
2022-08-26,0.9133249981422586,0.9133249981422586,0.0,0,False
2022-08-27,0.9133249981422586,0.9133249981422586,0.0,0,False
2022-08-28,0.9133249981422586,0.9133249981422586,0.0,0,False
2022-08-29,0.9133249981422586,0.9133249981422586,0.0,0,False
2022-08-30,0.9133249981422586,0.9133249981422586,0.0,0,False
2022-08-31,0.9133249981422586,0.9133249981422586,0.0,0,False
2022-09-01,0.9133249981422586,0.9133249981422586,0.0,0,False
2022-09-02,0.9133249981422586,0.9133249981422586,0.0,0,False
2022-09-03,0.9133249981422586,0.9133249981422586,0.0,0,False
2022-09-04,0.9133249981422586,0.9133249981422586,0.0,0,False
2022-09-05,0.9133249981422586,0.9133249981422586,0.0,0,False
2022-09-06,0.9133249981422586,0.9133249981422586,0.0,0,False
2022-09-07,0.9133249981422586,0.9133249981422586,0.0,0,False
2022-09-08,0.9133249981422586,0.9133249981422586,0.0,0,False
2022-09-09,0.9133249981422586,0.9133249981422586,0.0,0,False
2022-09-10,0.9133249981422586,0.9133249981422586,0.0,0,False
2022-09-11,0.9133249981422586,0.9133249981422586,0.0,0,False
2022-09-12,0.9133249981422586,0.9133249981422586,0.0,0,False
2022-09-13,0.9133249981422586,0.9133249981422586,0.0,0,False
2022-09-14,0.9133249981422586,0.9133249981422586,0.0,0,False
2022-09-15,0.9133249981422586,0.9133249981422586,0.0,0,False
2022-09-16,0.9133249981422586,0.9133249981422586,0.0,0,False
2022-09-17,0.9133249981422586,0.9133249981422586,0.0,0,False
2022-09-18,0.9133249981422586,0.9133249981422586,0.0,0,False
2022-09-19,0.9133249981422586,0.9133249981422586,0.0,0,False
2022-09-20,0.9133249981422586,0.9133249981422586,0.0,0,False
2022-09-21,0.9133249981422586,0.9133249981422586,0.0,0,False
2022-09-22,0.9133249981422586,0.9133249981422586,0.0,0,False
2022-09-23,0.9133249981422586,0.9133249981422586,0.0,0,False
2022-09-24,0.9133249981422586,0.9133249981422586,0.0,0,False
2022-09-25,0.9133249981422586,0.9133249981422586,0.0,0,False
2022-09-26,0.9133249981422586,0.9133249981422586,0.0,0,False
2022-09-27,0.9133249981422586,0.9133249981422586,0.0,0,False
2022-09-28,0.9133249981422586,0.9133249981422586,0.0,0,False
2022-09-29,0.9133249981422586,0.9133249981422586,0.0,0,False
2022-09-30,0.9133249981422586,0.9133249981422586,0.0,0,False
2022-10-01,0.9133249981422586,0.9133249981422586,0.0,0,False
2022-10-02,0.9133249981422586,0.9133249981422586,0.0,0,False
2022-10-03,0.9133249981422586,0.9133249981422586,0.0,0,False
2022-10-04,0.9133249981422586,0.9133249981422586,0.0,0,False
2022-10-05,0.9133249981422586,0.9133249981422586,0.0,0,False
2022-10-06,0.9133249981422586,0.9133249981422586,0.0,0,False
2022-10-07,0.9133249981422586,0.9133249981422586,0.0,0,False
2022-10-08,0.9133249981422586,0.9133249981422586,0.0,0,False
2022-10-09,0.9133249981422586,0.9133249981422586,0.0,0,False
2022-10-10,0.9133249981422586,0.9133249981422586,0.0,0,False
2022-10-11,0.9133249981422586,0.9133249981422586,0.0,0,False
2022-10-12,0.9133249981422586,0.9133249981422586,0.0,0,False
2022-10-13,0.9133249981422586,0.9133249981422586,0.0,0,False
2022-10-14,0.9133249981422586,0.9133249981422586,0.0,0,False
2022-10-15,0.9133249981422586,0.9133249981422586,0.0,0,False
2022-10-16,0.9133249981422586,0.9133249981422586,0.0,0,False
2022-10-17,0.9133249981422586,0.9133249981422586,0.0,0,False
2022-10-18,0.9133249981422586,0.9133249981422586,0.0,0,False
2022-10-19,0.9133249981422586,0.9133249981422586,0.0,0,False
2022-10-20,0.9133249981422586,0.9133249981422586,0.0,0,False
2022-10-21,0.9133249981422586,0.9133249981422586,0.0,0,False
2022-10-22,0.9133249981422586,0.9133249981422586,0.0,0,False
2022-10-23,0.9133249981422586,0.9133249981422586,0.0,0,False
2022-10-24,0.9133249981422586,0.9133249981422586,0.0,0,False
2022-10-25,0.9133249981422586,0.9133249981422586,0.0,0,False
2022-10-26,0.9133249981422586,0.9133249981422586,0.0,0,False
2022-10-27,0.9133249981422586,0.9133249981422586,0.0,0,False
2022-10-28,0.9133249981422586,0.9133249981422586,0.0,0,False
2022-10-29,0.9133249981422586,0.9133249981422586,0.0,0,False
2022-10-30,0.9133249981422586,0.9133249981422586,0.0,0,False
2022-10-31,0.9133249981422586,0.9133249981422586,0.0,0,False
2022-11-01,0.9133249981422586,0.9133249981422586,0.0,0,False
2022-11-02,0.9133249981422586,0.9133249981422586,0.0,0,False
2022-11-03,0.9133249981422586,0.9133249981422586,0.0,0,False
2022-11-04,0.9133249981422586,0.9133249981422586,0.0,0,False
2022-11-05,0.9133249981422586,0.9133249981422586,0.0,0,False
2022-11-06,0.9133249981422586,0.9133249981422586,0.0,0,False
2022-11-07,0.9133249981422586,0.9133249981422586,0.0,0,False
2022-11-08,0.9133249981422586,0.9133249981422586,0.0,0,False
2022-11-09,0.9133249981422586,0.9133249981422586,0.0,0,False
2022-11-10,0.9133249981422586,0.9133249981422586,0.0,0,False
2022-11-11,0.9133249981422586,0.9133249981422586,0.0,0,False
2022-11-12,0.9133249981422586,0.9133249981422586,0.0,0,False
2022-11-13,0.9133249981422586,0.9133249981422586,0.0,0,False
2022-11-14,0.9133249981422586,0.9133249981422586,0.0,0,False
2022-11-15,0.9133249981422586,0.9133249981422586,0.0,0,False
2022-11-16,0.9133249981422586,0.9133249981422586,0.0,0,False
2022-11-17,0.9133249981422586,0.9133249981422586,0.0,0,False
2022-11-18,0.9133249981422586,0.9133249981422586,0.0,0,False
2022-11-19,0.9133249981422586,0.9133249981422586,0.0,0,False
2022-11-20,0.9133249981422586,0.9133249981422586,0.0,0,False
2022-11-21,0.9133249981422586,0.9133249981422586,0.0,0,False
2022-11-22,0.9133249981422586,0.9133249981422586,0.0,0,False
2022-11-23,0.9133249981422586,0.9133249981422586,0.0,0,False
2022-11-24,0.9133249981422586,0.9133249981422586,0.0,0,False
2022-11-25,0.9133249981422586,0.9133249981422586,0.0,0,False
2022-11-26,0.9133249981422586,0.9133249981422586,0.0,0,False
2022-11-27,0.9133249981422586,0.9133249981422586,0.0,0,False
2022-11-28,0.9133249981422586,0.9133249981422586,0.0,0,False
2022-11-29,0.9133249981422586,0.9133249981422586,0.0,0,False
2022-11-30,0.9133249981422586,0.9133249981422586,0.0,0,False
2022-12-01,0.9133249981422586,0.9133249981422586,0.0,0,False
2022-12-02,0.9133249981422586,0.9133249981422586,0.0,0,False
2022-12-03,0.9133249981422586,0.9133249981422586,0.0,0,False
2022-12-04,0.9133249981422586,0.9133249981422586,0.0,0,False
2022-12-05,0.9133249981422586,0.9133249981422586,0.0,0,False
2022-12-06,0.9133249981422586,0.9133249981422586,0.0,0,False
2022-12-07,0.9133249981422586,0.9133249981422586,0.0,0,False
2022-12-08,0.9133249981422586,0.9133249981422586,0.0,0,False
2022-12-09,0.9133249981422586,0.9133249981422586,0.0,0,False
2022-12-10,0.9133249981422586,0.9133249981422586,0.0,0,False
2022-12-11,0.9133249981422586,0.9133249981422586,0.0,0,False
2022-12-12,0.9133249981422586,0.9133249981422586,0.0,0,False
2022-12-13,0.9133249981422586,0.9133249981422586,0.0,0,False
2022-12-14,0.9133249981422586,0.9133249981422586,0.0,0,False
2022-12-15,0.9133249981422586,0.9133249981422586,0.0,0,False
2022-12-16,0.9133249981422586,0.9133249981422586,0.0,0,False
2022-12-17,0.9133249981422586,0.9133249981422586,0.0,0,False
2022-12-18,0.9133249981422586,0.9133249981422586,0.0,0,False
2022-12-19,0.9133249981422586,0.9133249981422586,0.0,0,False
2022-12-20,0.9133249981422586,0.9133249981422586,0.0,0,False
2022-12-21,0.9133249981422586,0.9133249981422586,0.0,0,False
2022-12-22,0.9133249981422586,0.9133249981422586,0.0,0,False
2022-12-23,0.9133249981422586,0.9133249981422586,0.0,0,False
2022-12-24,0.9133249981422586,0.9133249981422586,0.0,0,False
2022-12-25,0.9133249981422586,0.9133249981422586,0.0,0,False
2022-12-26,0.9133249981422586,0.9133249981422586,0.0,0,False
2022-12-27,0.9133249981422586,0.9133249981422586,0.0,0,False
2022-12-28,0.9133249981422586,0.9133249981422586,0.0,0,False
2022-12-29,0.9133249981422586,0.9133249981422586,0.0,0,False
2022-12-30,0.9133249981422586,0.9133249981422586,0.0,0,False
2022-12-31,0.9133249981422586,0.9133249981422586,0.0,0,False
2023-01-01,0.9133249981422586,0.9133249981422586,0.0,0,False
2023-01-02,0.9133249981422586,0.9133249981422586,0.0,0,False
2023-01-03,0.9133249981422586,0.9133249981422586,0.0,0,False
2023-01-04,0.9133249981422586,0.9133249981422586,0.0,0,False
2023-01-05,0.9133249981422586,0.9133249981422586,0.0,0,False
2023-01-06,0.9133249981422586,0.9133249981422586,0.0,0,False
2023-01-07,0.9133249981422586,0.9133249981422586,0.0,0,False
2023-01-08,0.9133249981422586,0.9133249981422586,0.0,0,False
2023-01-09,0.9133249981422586,0.9133249981422586,0.0,0,False
2023-01-10,0.9133249981422586,0.9133249981422586,0.0,0,False
2023-01-11,0.9133249981422586,0.9133249981422586,0.0,0,False
2023-01-12,0.9133249981422586,0.9133249981422586,0.0,0,False
2023-01-13,0.9133249981422586,0.9133249981422586,0.0,0,False
2023-01-14,0.9133249981422586,0.9133249981422586,0.0,0,False
2023-01-15,0.9133249981422586,0.9133249981422586,0.0,0,False
2023-01-16,0.9133249981422586,0.9133249981422586,0.0,0,False
2023-01-17,0.9133249981422586,0.9133249981422586,0.0,0,False
2023-01-18,0.9133249981422586,0.9133249981422586,0.0,0,False
2023-01-19,0.9133249981422586,0.9133249981422586,0.0,0,False
2023-01-20,0.9133249981422586,0.9133249981422586,0.0,0,False
2023-01-21,0.9133249981422586,0.9133249981422586,0.0,0,False
2023-01-22,0.9133249981422586,0.9133249981422586,0.0,0,False
2023-01-23,0.9133249981422586,0.9133249981422586,0.0,0,False
2023-01-24,0.9133249981422586,0.9133249981422586,0.0,0,False
2023-01-25,0.9133249981422586,0.9133249981422586,0.0,0,False
2023-01-26,0.9133249981422586,0.9133249981422586,0.0,0,False
2023-01-27,0.9133249981422586,0.9133249981422586,0.0,0,False
2023-01-28,0.9133249981422586,0.9133249981422586,0.0,0,False
2023-01-29,0.9133249981422586,0.9133249981422586,0.0,0,False
2023-01-30,0.9133249981422586,0.9133249981422586,0.0,0,False
2023-01-31,0.9133249981422586,0.9133249981422586,0.0,0,False
2023-02-01,0.9133249981422586,0.9133249981422586,0.0,0,False
2023-02-02,0.9133249981422586,0.9133249981422586,0.0,0,False
2023-02-03,0.9133249981422586,0.9133249981422586,0.0,0,False
2023-02-04,0.9133249981422586,0.9133249981422586,0.0,0,False
2023-02-05,0.9133249981422586,0.9133249981422586,0.0,0,False
2023-02-06,0.9133249981422586,0.9133249981422586,0.0,0,False
2023-02-07,0.9133249981422586,0.9133249981422586,0.0,0,False
2023-02-08,0.9133249981422586,0.9133249981422586,0.0,0,False
2023-02-09,0.9133249981422586,0.9133249981422586,0.0,0,False
2023-02-10,0.9133249981422586,0.9133249981422586,0.0,0,False
2023-02-11,0.9133249981422586,0.9133249981422586,0.0,0,False
2023-02-12,0.9133249981422586,0.9133249981422586,0.0,0,False
2023-02-13,0.9133249981422586,0.9133249981422586,0.0,0,False
2023-02-14,0.9133249981422586,0.9133249981422586,0.0,0,False
2023-02-15,0.9133249981422586,0.9133249981422586,0.0,0,False
2023-02-16,0.9133249981422586,0.9133249981422586,0.0,0,False
2023-02-17,0.9133249981422586,0.9133249981422586,0.0,0,False
2023-02-18,0.9133249981422586,0.9133249981422586,0.0,0,False
2023-02-19,0.9133249981422586,0.9133249981422586,0.0,0,False
2023-02-20,0.9133249981422586,0.9133249981422586,0.0,0,False
2023-02-21,0.9133249981422586,0.9133249981422586,0.0,0,False
2023-02-22,0.9133249981422586,0.9133249981422586,0.0,0,False
2023-02-23,0.9133249981422586,0.9133249981422586,0.0,0,False
2023-02-24,0.9133249981422586,0.9133249981422586,0.0,0,False
2023-02-25,0.9133249981422586,0.9133249981422586,0.0,0,False
2023-02-26,0.9133249981422586,0.9133249981422586,0.0,0,False
2023-02-27,0.9133249981422586,0.9133249981422586,0.0,0,False
2023-02-28,0.9133249981422586,0.9133249981422586,0.0,0,False
2023-03-01,0.9133249981422586,0.9133249981422586,0.0,0,False
2023-03-02,0.9133249981422586,0.9133249981422586,0.0,0,False
2023-03-03,0.9133249981422586,0.9133249981422586,0.0,0,False
2023-03-04,0.9133249981422586,0.9133249981422586,0.0,0,False
2023-03-05,0.9133249981422586,0.9133249981422586,0.0,0,False
2023-03-06,0.9133249981422586,0.9133249981422586,0.0,0,False
2023-03-07,0.9133249981422586,0.9133249981422586,0.0,0,False
2023-03-08,0.9133249981422586,0.9133249981422586,0.0,0,False
2023-03-09,0.9133249981422586,0.9133249981422586,0.0,0,False
2023-03-10,0.9133249981422586,0.9133249981422586,0.0,0,False
2023-03-11,0.9133249981422586,0.9133249981422586,0.0,0,False
2023-03-12,0.9133249981422586,0.9133249981422586,0.0,0,False
2023-03-13,0.9133249981422586,0.9133249981422586,0.0,0,False
2023-03-14,0.9133249981422586,0.9133249981422586,0.0,0,False
2023-03-15,0.9133249981422586,0.9133249981422586,0.0,0,False
2023-03-16,0.9133249981422586,0.9133249981422586,0.0,0,False
2023-03-17,0.9133249981422586,0.9133249981422586,0.0,0,False
2023-03-18,0.9133249981422586,0.9133249981422586,0.0,0,False
2023-03-19,0.9133249981422586,0.9133249981422586,0.0,0,False
2023-03-20,0.9133249981422586,0.9133249981422586,0.0,0,False
2023-03-21,0.9133249981422586,0.9133249981422586,0.0,0,False
2023-03-22,0.9133249981422586,0.9133249981422586,0.0,0,False
2023-03-23,0.9133249981422586,0.9133249981422586,0.0,0,False
2023-03-24,0.9133249981422586,0.9133249981422586,0.0,0,False
2023-03-25,0.9133249981422586,0.9133249981422586,0.0,0,False
2023-03-26,0.9133249981422586,0.9133249981422586,0.0,0,False
2023-03-27,0.9133249981422586,0.9133249981422586,0.0,0,False
2023-03-28,0.9133249981422586,0.9133249981422586,0.0,0,False
2023-03-29,0.9133249981422586,0.9133249981422586,0.0,0,False
2023-03-30,0.9133249981422586,0.9133249981422586,0.0,0,False
2023-03-31,0.9133249981422586,0.9133249981422586,0.0,0,False
2023-04-01,0.9133249981422586,0.9133249981422586,0.0,0,False
2023-04-02,0.9133249981422586,0.9133249981422586,0.0,0,False
2023-04-03,0.9133249981422586,0.9133249981422586,0.0,0,False
2023-04-04,0.9133249981422586,0.9133249981422586,0.0,0,False
2023-04-05,0.9133249981422586,0.9133249981422586,0.0,0,False
2023-04-06,0.9133249981422586,0.9133249981422586,0.0,0,False
2023-04-07,0.9133249981422586,0.9133249981422586,0.0,0,False
2023-04-08,0.9133249981422586,0.9133249981422586,0.0,0,False
2023-04-09,0.9133249981422586,0.9133249981422586,0.0,0,False
2023-04-10,0.9133249981422586,0.9133249981422586,0.0,0,False
2023-04-11,0.9133249981422586,0.9133249981422586,0.0,0,False
2023-04-12,0.9133249981422586,0.9133249981422586,0.0,0,False
2023-04-13,0.9133249981422586,0.9133249981422586,0.0,0,False
2023-04-14,0.9133249981422586,0.9133249981422586,0.0,0,False
2023-04-15,0.9133249981422586,0.9133249981422586,0.0,0,False
2023-04-16,0.9133249981422586,0.9133249981422586,0.0,0,False
2023-04-17,0.9133249981422586,0.9133249981422586,0.0,0,False
2023-04-18,0.9133249981422586,0.9133249981422586,0.0,0,False
2023-04-19,0.9133249981422586,0.9133249981422586,0.0,0,False
2023-04-20,0.9133249981422586,0.9133249981422586,0.0,0,False
2023-04-21,0.9133249981422586,0.9133249981422586,0.0,0,False
2023-04-22,0.9133249981422586,0.9133249981422586,0.0,0,False
2023-04-23,0.9133249981422586,0.9133249981422586,0.0,0,False
2023-04-24,0.9133249981422586,0.9133249981422586,0.0,0,False
2023-04-25,0.9133249981422586,0.9133249981422586,0.0,0,False
2023-04-26,0.9133249981422586,0.9133249981422586,0.0,0,False
2023-04-27,0.9133249981422586,0.9133249981422586,0.0,0,False
2023-04-28,0.9133249981422586,0.9133249981422586,0.0,0,False
2023-04-29,0.9133249981422586,0.9133249981422586,0.0,0,False
2023-04-30,0.9133249981422586,0.9133249981422586,0.0,0,False
2023-05-01,0.9133249981422586,0.9133249981422586,0.0,0,False
2023-05-02,0.9133249981422586,0.9133249981422586,0.0,0,False
2023-05-03,0.9133249981422586,0.9133249981422586,0.0,0,False
2023-05-04,0.9133249981422586,0.9133249981422586,0.0,0,False
2023-05-05,0.9133249981422586,0.9133249981422586,0.0,0,False
2023-05-06,0.9133249981422586,0.9133249981422586,0.0,0,False
2023-05-07,0.9133249981422586,0.9133249981422586,0.0,0,False
2023-05-08,0.9133249981422586,0.9133249981422586,0.0,0,False
2023-05-09,0.9133249981422586,0.9133249981422586,0.0,0,False
2023-05-10,0.9133249981422586,0.9133249981422586,0.0,0,False
2023-05-11,0.9133249981422586,0.9133249981422586,0.0,0,False
2023-05-12,0.9133249981422586,0.9133249981422586,0.0,0,False
2023-05-13,0.9133249981422586,0.9133249981422586,0.0,0,False
2023-05-14,0.9133249981422586,0.9133249981422586,0.0,0,False
2023-05-15,0.9133249981422586,0.9133249981422586,0.0,0,False
2023-05-16,0.9133249981422586,0.9133249981422586,0.0,0,False
2023-05-17,0.9133249981422586,0.9133249981422586,0.0,0,False
2023-05-18,0.9133249981422586,0.9133249981422586,0.0,0,False
2023-05-19,0.9133249981422586,0.9133249981422586,0.0,0,False
2023-05-20,0.9133249981422586,0.9133249981422586,0.0,0,False
2023-05-21,0.9133249981422586,0.9133249981422586,0.0,0,False
2023-05-22,0.9133249981422586,0.9133249981422586,0.0,0,False
2023-05-23,0.9133249981422586,0.9133249981422586,0.0,0,False
2023-05-24,0.9133249981422586,0.9133249981422586,0.0,0,False
2023-05-25,0.9133249981422586,0.9133249981422586,0.0,0,False
2023-05-26,0.9133249981422586,0.9133249981422586,0.0,0,False
2023-05-27,0.9133249981422586,0.9133249981422586,0.0,0,False
2023-05-28,0.9133249981422586,0.9133249981422586,0.0,0,False
2023-05-29,0.9133249981422586,0.9133249981422586,0.0,0,False
2023-05-30,0.9133249981422586,0.9133249981422586,0.0,0,False
2023-05-31,0.9133249981422586,0.9133249981422586,0.0,0,False
2023-06-01,0.9133249981422586,0.9133249981422586,0.0,0,False
2023-06-02,0.9133249981422586,0.9133249981422586,0.0,0,False
2023-06-03,0.9133249981422586,0.9133249981422586,0.0,0,False
2023-06-04,0.9133249981422586,0.9133249981422586,0.0,0,False
2023-06-05,0.9133249981422586,0.9133249981422586,0.0,0,False
2023-06-06,0.9133249981422586,0.9133249981422586,0.0,0,False
2023-06-07,0.9133249981422586,0.9133249981422586,0.0,0,False
2023-06-08,0.9133249981422586,0.9133249981422586,0.0,0,False
2023-06-09,0.9133249981422586,0.9133249981422586,0.0,0,False
2023-06-10,0.9133249981422586,0.9133249981422586,0.0,0,False
2023-06-11,0.9133249981422586,0.9133249981422586,0.0,0,False
2023-06-12,0.9133249981422586,0.9133249981422586,0.0,0,False
2023-06-13,0.9133249981422586,0.9133249981422586,0.0,0,False
2023-06-14,0.9133249981422586,0.9133249981422586,0.0,0,False
2023-06-15,0.9133249981422586,0.9133249981422586,0.0,0,False
2023-06-16,0.9133249981422586,0.9133249981422586,0.0,0,False
2023-06-17,0.9133249981422586,0.9133249981422586,0.0,0,False
2023-06-18,0.9133249981422586,0.9133249981422586,0.0,0,False
2023-06-19,0.9133249981422586,0.9133249981422586,0.0,0,False
2023-06-20,0.9133249981422586,0.9133249981422586,0.0,0,False
2023-06-21,0.9133249981422586,0.9133249981422586,0.0,0,False
2023-06-22,0.9133249981422586,0.9133249981422586,0.0,0,False
2023-06-23,0.9133249981422586,0.9133249981422586,0.0,0,False
2023-06-24,0.9133249981422586,0.9133249981422586,0.0,0,False
2023-06-25,0.9133249981422586,0.9133249981422586,0.0,0,False
2023-06-26,0.9133249981422586,0.9133249981422586,0.0,0,False
2023-06-27,0.9133249981422586,0.9133249981422586,0.0,0,False
2023-06-28,0.9133249981422586,0.9133249981422586,0.0,0,False
2023-06-29,0.9133249981422586,0.9133249981422586,0.0,0,False
2023-06-30,0.9133249981422586,0.9133249981422586,0.0,0,False
2023-07-01,0.9133249981422586,0.9133249981422586,0.0,0,False
2023-07-02,0.9133249981422586,0.9133249981422586,0.0,0,False
2023-07-03,0.9133249981422586,0.9133249981422586,0.0,0,False
2023-07-04,0.9133249981422586,0.9133249981422586,0.0,0,False
2023-07-05,0.9133249981422586,0.9133249981422586,0.0,0,False
2023-07-06,0.9133249981422586,0.9133249981422586,0.0,0,False
2023-07-07,0.9133249981422586,0.9133249981422586,0.0,0,False
2023-07-08,0.9133249981422586,0.9133249981422586,0.0,0,False
2023-07-09,0.9133249981422586,0.9133249981422586,0.0,0,False
2023-07-10,0.9133249981422586,0.9133249981422586,0.0,0,False
2023-07-11,0.9133249981422586,0.9133249981422586,0.0,0,False
2023-07-12,0.9133249981422586,0.9133249981422586,0.0,0,False
2023-07-13,0.9133249981422586,0.9133249981422586,0.0,0,False
2023-07-14,0.9133249981422586,0.9133249981422586,0.0,0,False
2023-07-15,0.9133249981422586,0.9133249981422586,0.0,0,False
2023-07-16,0.9133249981422586,0.9133249981422586,0.0,0,False
2023-07-17,0.9133249981422586,0.9133249981422586,0.0,0,False
2023-07-18,0.9133249981422586,0.9133249981422586,0.0,0,False
2023-07-19,0.9133249981422586,0.9133249981422586,0.0,0,False
2023-07-20,0.9133249981422586,0.9133249981422586,0.0,0,False
2023-07-21,0.9133249981422586,0.9133249981422586,0.0,0,False
2023-07-22,0.9133249981422586,0.9133249981422586,0.0,0,False
2023-07-23,0.9133249981422586,0.9133249981422586,0.0,0,False
2023-07-24,0.9133249981422586,0.9133249981422586,0.0,0,False
2023-07-25,0.9133249981422586,0.9133249981422586,0.0,0,False
2023-07-26,0.9133249981422586,0.9133249981422586,0.0,0,False
2023-07-27,0.9133249981422586,0.9133249981422586,0.0,0,False
2023-07-28,0.9133249981422586,0.9133249981422586,0.0,0,False
2023-07-29,0.9133249981422586,0.9133249981422586,0.0,0,False
2023-07-30,0.9133249981422586,0.9133249981422586,0.0,0,False
2023-07-31,0.9133249981422586,0.9133249981422586,0.0,0,False
2023-08-01,0.9133249981422586,0.9133249981422586,0.0,0,False
2023-08-02,0.9133249981422586,0.9133249981422586,0.0,0,False
2023-08-03,0.9133249981422586,0.9133249981422586,0.0,0,False
2023-08-04,0.9133249981422586,0.9133249981422586,0.0,0,False
2023-08-05,0.9133249981422586,0.9133249981422586,0.0,0,False
2023-08-06,0.9133249981422586,0.9133249981422586,0.0,0,False
2023-08-07,0.9133249981422586,0.9133249981422586,0.0,0,False
2023-08-08,0.9133249981422586,0.9133249981422586,0.0,0,False
2023-08-09,0.9133249981422586,0.9133249981422586,0.0,0,False
2023-08-10,0.9133249981422586,0.9133249981422586,0.0,0,False
2023-08-11,0.9133249981422586,0.9133249981422586,0.0,0,False
2023-08-12,0.9133249981422586,0.9133249981422586,0.0,0,False
2023-08-13,0.9133249981422586,0.9133249981422586,0.0,0,False
2023-08-14,0.9133249981422586,0.9133249981422586,0.0,0,False
2023-08-15,0.9133249981422586,0.9133249981422586,0.0,0,False
2023-08-16,0.9133249981422586,0.9133249981422586,0.0,0,False
2023-08-17,0.9133249981422586,0.9133249981422586,0.0,0,False
2023-08-18,0.9133249981422586,0.9133249981422586,0.0,0,False
2023-08-19,0.9133249981422586,0.9133249981422586,0.0,0,False
2023-08-20,0.9133249981422586,0.9133249981422586,0.0,0,False
2023-08-21,0.9133249981422586,0.9133249981422586,0.0,0,False
2023-08-22,0.9133249981422586,0.9133249981422586,0.0,0,False
2023-08-23,0.9133249981422586,0.9133249981422586,0.0,0,False
2023-08-24,0.9133249981422586,0.9133249981422586,0.0,0,False
2023-08-25,0.9133249981422586,0.9133249981422586,0.0,0,False
2023-08-26,0.9133249981422586,0.9133249981422586,0.0,0,False
2023-08-27,0.9133249981422586,0.9133249981422586,0.0,0,False
2023-08-28,0.9133249981422586,0.9133249981422586,0.0,0,False
2023-08-29,0.9133249981422586,0.9133249981422586,0.0,0,False
2023-08-30,0.9133249981422586,0.9133249981422586,0.0,0,False
2023-08-31,0.9133249981422586,0.9133249981422586,0.0,0,False
2023-09-01,0.9133249981422586,0.9133249981422586,0.0,0,False
2023-09-02,0.9133249981422586,0.9133249981422586,0.0,0,False
2023-09-03,0.9133249981422586,0.9133249981422586,0.0,0,False
2023-09-04,0.9133249981422586,0.9133249981422586,0.0,0,False
2023-09-05,0.9133249981422586,0.9133249981422586,0.0,0,False
2023-09-06,0.9133249981422586,0.9133249981422586,0.0,0,False
2023-09-07,0.9133249981422586,0.9133249981422586,0.0,0,False
2023-09-08,0.9133249981422586,0.9133249981422586,0.0,0,False
2023-09-09,0.9133249981422586,0.9133249981422586,0.0,0,False
2023-09-10,0.9133249981422586,0.9133249981422586,0.0,0,False
2023-09-11,0.9133249981422586,0.9133249981422586,0.0,0,False
2023-09-12,0.9133249981422586,0.9133249981422586,0.0,0,False
2023-09-13,0.9133249981422586,0.9133249981422586,0.0,0,False
2023-09-14,0.9133249981422586,0.9133249981422586,0.0,0,False
2023-09-15,0.9133249981422586,0.9133249981422586,0.0,0,False
2023-09-16,0.9133249981422586,0.9133249981422586,0.0,0,False
2023-09-17,0.9133249981422586,0.9133249981422586,0.0,0,False
2023-09-18,0.9133249981422586,0.9133249981422586,0.0,0,False
2023-09-19,0.9133249981422586,0.9133249981422586,0.0,0,False
2023-09-20,0.9133249981422586,0.9133249981422586,0.0,0,False
2023-09-21,0.9133249981422586,0.9133249981422586,0.0,0,False
2023-09-22,0.9133249981422586,0.9133249981422586,0.0,0,False
2023-09-23,0.9133249981422586,0.9133249981422586,0.0,0,False
2023-09-24,0.9133249981422586,0.9133249981422586,0.0,0,False
2023-09-25,0.9133249981422586,0.9133249981422586,0.0,0,False
2023-09-26,0.9133249981422586,0.9133249981422586,0.0,0,False
2023-09-27,0.9133249981422586,0.9133249981422586,0.0,0,False
2023-09-28,0.9133249981422586,0.9133249981422586,0.0,0,False
2023-09-29,0.9133249981422586,0.9133249981422586,0.0,0,False
2023-09-30,0.9133249981422586,0.9133249981422586,0.0,0,False
2023-10-01,0.9133249981422586,0.9133249981422586,0.0,0,False
2023-10-02,0.9133249981422586,0.9133249981422586,0.0,0,False
2023-10-03,0.9133249981422586,0.9133249981422586,0.0,0,False
2023-10-04,0.9133249981422586,0.9133249981422586,0.0,0,False
2023-10-05,0.9133249981422586,0.9133249981422586,0.0,0,False
2023-10-06,0.9133249981422586,0.9133249981422586,0.0,0,False
2023-10-07,0.9133249981422586,0.9133249981422586,0.0,0,False
2023-10-08,0.9133249981422586,0.9133249981422586,0.0,0,False
2023-10-09,0.9133249981422586,0.9133249981422586,0.0,0,False
2023-10-10,0.9133249981422586,0.9133249981422586,0.0,0,False
2023-10-11,0.9133249981422586,0.9133249981422586,0.0,0,False
2023-10-12,0.9133249981422586,0.9133249981422586,0.0,0,False
2023-10-13,0.9133249981422586,0.9133249981422586,0.0,0,False
2023-10-14,0.9133249981422586,0.9133249981422586,0.0,0,False
2023-10-15,0.9133249981422586,0.9133249981422586,0.0,0,False
2023-10-16,0.9133249981422586,0.9133249981422586,0.0,0,False
2023-10-17,0.9133249981422586,0.9133249981422586,0.0,0,False
2023-10-18,0.9133249981422586,0.9133249981422586,0.0,0,False
2023-10-19,0.9133249981422586,0.9133249981422586,0.0,0,False
2023-10-20,0.9133249981422586,0.9133249981422586,0.0,0,False
2023-10-21,0.9133249981422586,0.9133249981422586,0.0,0,False
2023-10-22,0.9133249981422586,0.9133249981422586,0.0,0,False
2023-10-23,0.9133249981422586,0.9133249981422586,0.0,0,False
2023-10-24,0.9133249981422586,0.9133249981422586,0.0,0,False
2023-10-25,0.9133249981422586,0.9133249981422586,0.0,0,False
2023-10-26,0.9133249981422586,0.9133249981422586,0.0,0,False
2023-10-27,0.9133249981422586,0.9133249981422586,0.0,0,False
2023-10-28,0.9133249981422586,0.9133249981422586,0.0,0,False
2023-10-29,0.9133249981422586,0.9133249981422586,0.0,0,False
2023-10-30,0.9133249981422586,0.9133249981422586,0.0,0,False
2023-10-31,0.9133249981422586,0.9133249981422586,0.0,0,False
2023-11-01,0.9133249981422586,0.9133249981422586,0.0,0,False
2023-11-02,0.9133249981422586,0.9133249981422586,0.0,0,False
2023-11-03,0.9133249981422586,0.9133249981422586,0.0,0,False
2023-11-04,0.9133249981422586,0.9133249981422586,0.0,0,False
2023-11-05,0.9133249981422586,0.9133249981422586,0.0,0,False
2023-11-06,0.9133249981422586,0.9133249981422586,0.0,0,False
2023-11-07,0.9133249981422586,0.9133249981422586,0.0,0,False
2023-11-08,0.9133249981422586,0.9133249981422586,0.0,0,False
2023-11-09,0.9133249981422586,0.9133249981422586,0.0,0,False
2023-11-10,0.9133249981422586,0.9133249981422586,0.0,0,False
2023-11-11,0.9133249981422586,0.9133249981422586,0.0,0,False
2023-11-12,0.9133249981422586,0.9133249981422586,0.0,0,False
2023-11-13,0.9133249981422586,0.9133249981422586,0.0,0,False
2023-11-14,0.9133249981422586,0.9133249981422586,0.0,0,False
2023-11-15,0.9133249981422586,0.9133249981422586,0.0,0,False
2023-11-16,0.9133249981422586,0.9133249981422586,0.0,0,False
2023-11-17,0.9133249981422586,0.9133249981422586,0.0,0,False
2023-11-18,0.9133249981422586,0.9133249981422586,0.0,0,False
2023-11-19,0.9133249981422586,0.9133249981422586,0.0,0,False
2023-11-20,0.9133249981422586,0.9133249981422586,0.0,0,False
2023-11-21,0.9133249981422586,0.9133249981422586,0.0,0,False
2023-11-22,0.9133249981422586,0.9133249981422586,0.0,0,False
2023-11-23,0.9133249981422586,0.9133249981422586,0.0,0,False
2023-11-24,0.9133249981422586,0.9133249981422586,0.0,0,False
2023-11-25,0.9133249981422586,0.9133249981422586,0.0,0,False
2023-11-26,0.9133249981422586,0.9133249981422586,0.0,0,False
2023-11-27,0.9133249981422586,0.9133249981422586,0.0,0,False
2023-11-28,0.9133249981422586,0.9133249981422586,0.0,0,False
2023-11-29,0.9133249981422586,0.9133249981422586,0.0,0,False
2023-11-30,0.9133249981422586,0.9133249981422586,0.0,0,False
2023-12-01,0.9133249981422586,0.9133249981422586,0.0,0,False
2023-12-02,0.9133249981422586,0.9133249981422586,0.0,0,False
2023-12-03,0.9133249981422586,0.9133249981422586,0.0,0,False
2023-12-04,0.9133249981422586,0.9133249981422586,0.0,0,False
2023-12-05,0.9133249981422586,0.9133249981422586,0.0,0,False
2023-12-06,0.9133249981422586,0.9133249981422586,0.0,0,False
2023-12-07,0.9133249981422586,0.9133249981422586,0.0,0,False
2023-12-08,0.9133249981422586,0.9133249981422586,0.0,0,False
2023-12-09,0.9133249981422586,0.9133249981422586,0.0,0,False
2023-12-10,0.9133249981422586,0.9133249981422586,0.0,0,False
2023-12-11,0.9133249981422586,0.9133249981422586,0.0,0,False
2023-12-12,0.9133249981422586,0.9133249981422586,0.0,0,False
2023-12-13,0.9133249981422586,0.9133249981422586,0.0,0,False
2023-12-14,0.9133249981422586,0.9133249981422586,0.0,0,False
2023-12-15,0.9133249981422586,0.9133249981422586,0.0,0,False
2023-12-16,0.9133249981422586,0.9133249981422586,0.0,0,False
2023-12-17,0.9133249981422586,0.9133249981422586,0.0,0,False
2023-12-18,0.9133249981422586,0.9133249981422586,0.0,0,False
2023-12-19,0.9133249981422586,0.9133249981422586,0.0,0,False
2023-12-20,0.9133249981422586,0.9133249981422586,0.0,0,False
2023-12-21,0.9133249981422586,0.9133249981422586,0.0,0,False
2023-12-22,0.9133249981422586,0.9133249981422586,0.0,0,False
2023-12-23,0.9133249981422586,0.9133249981422586,0.0,0,False
2023-12-24,0.9133249981422586,0.9133249981422586,0.0,0,False
2023-12-25,0.9133249981422586,0.9133249981422586,0.0,0,False
2023-12-26,0.9133249981422586,0.9133249981422586,0.0,0,False
2023-12-27,0.9133249981422586,0.9133249981422586,0.0,0,False
2023-12-28,0.9133249981422586,0.9133249981422586,0.0,0,False
2023-12-29,0.9133249981422586,0.9133249981422586,0.0,0,False
2023-12-30,0.9133249981422586,0.9133249981422586,0.0,0,False
2023-12-31,0.9133249981422586,0.9133249981422586,0.0,0,False
