day,start_equity,end_equity,return_pct,entries,active
2024-01-02,1.0114191938274888,1.0092979910447522,-0.2097253834692836,0,True
2024-01-03,1.0092979910447522,1.0304440836192676,2.095128768920529,4,True
2024-01-04,1.0304440836192676,1.028807658066284,-0.15880779743390194,2,True
2024-01-05,1.028807658066284,1.028807658066284,0.0,0,False
2024-01-06,1.028807658066284,1.0416161124542245,1.2449804671958775,3,True
2024-01-07,1.0416161124542245,1.0608000704701057,1.841749353385147,2,True
2024-01-08,1.0608000704701057,1.0456252713477425,-1.4305051012711845,5,True
2024-01-09,1.0456252713477425,1.0439213088352204,-0.16296110654688833,1,True
2024-01-10,1.0439213088352204,1.02681794437749,-1.638376792673557,4,True
2024-01-11,1.02681794437749,1.02681794437749,0.0,0,False
2024-01-12,1.02681794437749,1.0359943805028198,0.8936770316078757,1,True
2024-01-13,1.0359943805028198,1.0359943805028198,0.0,0,False
2024-01-14,1.0359943805028198,1.0308162173700628,-0.4998254073775743,1,True
2024-01-15,1.0308162173700628,1.0359139699799247,0.49453554610032757,1,True
2024-01-16,1.0359139699799247,1.0359139699799247,0.0,0,False
2024-01-17,1.0359139699799247,1.0359139699799247,0.0,0,False
2024-01-18,1.0359139699799247,1.0307369349094184,-0.4997553098551766,1,True
2024-01-19,1.0307369349094184,1.0307369349094184,0.0,0,False
2024-01-20,1.0307369349094184,1.0307369349094184,0.0,0,False
2024-01-21,1.0307369349094184,1.0307369349094184,0.0,0,False
2024-01-22,1.0307369349094184,1.0307369349094184,0.0,0,False
2024-01-23,1.0307369349094184,1.0244447488178439,-0.6104550907674144,3,True
2024-01-24,1.0244447488178439,1.022977249094654,-0.14324830352083762,0,True
2024-01-25,1.022977249094654,1.0178665329042913,-0.4995923609137698,1,True
2024-01-26,1.0178665329042913,1.0178665329042913,0.0,0,False
2024-01-27,1.0178665329042913,1.0178665329042913,0.0,0,False
2024-01-28,1.0178665329042913,1.012875980466583,-0.49029536549046737,2,True
2024-01-29,1.012875980466583,1.0127673912484658,-0.010720879970627095,0,True
2024-01-30,1.0127673912484658,1.0127673912484658,0.0,0,False
2024-01-31,1.0127673912484658,1.0127673912484658,0.0,0,False
2024-02-01,1.0127673912484658,1.0127673912484658,0.0,0,False
2024-02-02,1.0127673912484658,1.013599641491884,0.08217585307443986,1,True
2024-02-03,1.013599641491884,1.0122832570101226,-0.12987223237607148,0,True
2024-02-04,1.0122832570101226,1.0122832570101226,0.0,0,False
2024-02-05,1.0122832570101226,1.0122832570101226,0.0,0,False
2024-02-06,1.0122832570101226,1.0045878274035211,-0.7602051652351394,2,True
2024-02-07,1.0045878274035211,0.9972010322800754,-0.7353060550751245,1,True
2024-02-08,0.9972010322800754,0.9972010322800754,0.0,0,False
2024-02-09,0.9972010322800754,0.9972010322800754,0.0,0,False
2024-02-10,0.9972010322800754,0.9972010322800754,0.0,0,False
2024-02-11,0.9972010322800754,0.9972010322800754,0.0,0,False
2024-02-12,0.9972010322800754,0.9972010322800754,0.0,0,False
2024-02-13,0.9972010322800754,0.9972010322800754,0.0,0,False
2024-02-14,0.9972010322800754,0.9972010322800754,0.0,0,False
2024-02-15,0.9972010322800754,1.0085925908459235,1.1423532665024938,2,True
2024-02-16,1.0085925908459235,1.0121501566157645,0.3527257489426061,1,True
2024-02-17,1.0121501566157645,1.0121501566157645,0.0,0,False
2024-02-18,1.0121501566157645,1.0121501566157645,0.0,0,False
2024-02-19,1.0121501566157645,1.0121501566157645,0.0,0,False
2024-02-20,1.0121501566157645,1.0070957229688662,-0.49937586966328773,1,True
2024-02-21,1.0070957229688662,1.0282358627739476,2.0991192121004643,5,True
2024-02-22,1.0282358627739476,1.0354094483669012,0.6976595402538033,1,True
2024-02-23,1.0354094483669012,1.0269641258839566,-0.8156505135494929,2,True
2024-02-24,1.0269641258839566,1.0250756560984007,-0.18388858363775906,0,True
2024-02-25,1.0250756560984007,1.0250756560984007,0.0,0,False
2024-02-26,1.0250756560984007,1.0291350561769994,0.39600980224712146,2,True
2024-02-27,1.0291350561769994,1.0252734186804302,-0.3752313628217374,2,True
2024-02-28,1.0252734186804302,1.0137899389113372,-1.1200407188818762,1,True
2024-02-29,1.0137899389113372,1.0303221894100778,1.6307372823697541,6,True
2024-03-01,1.0303221894100778,1.0295307042494557,-0.07681919003174054,2,True
2024-03-02,1.0295307042494557,1.0208292427545005,-0.8451871769379338,2,True
2024-03-03,1.0208292427545005,1.043900821396268,2.260082066175295,4,True
2024-03-04,1.043900821396268,1.0455264808754772,0.1557293035783669,0,True
2024-03-05,1.0455264808754772,1.0406233471258328,-0.4689631338212208,2,True
2024-03-06,1.0406233471258328,1.0707008234505146,2.8903326460774537,9,True
2024-03-07,1.0707008234505146,1.067797928486056,-0.27112101727013727,5,True
2024-03-08,1.067797928486056,1.0690187599910306,0.11433169819925482,1,True
2024-03-09,1.0690187599910306,1.0670088722441318,-0.1880123924968058,2,True
2024-03-10,1.0670088722441318,1.0756578662457472,0.810583138209986,1,True
2024-03-11,1.0756578662457472,1.0752015092614604,-0.04242584920423065,1,True
2024-03-12,1.0752015092614604,1.0957506150966814,1.911186476043536,2,True
2024-03-13,1.0957506150966814,1.0957506150966814,0.0,0,False
2024-03-14,1.0957506150966814,1.0957506150966814,0.0,0,False
2024-03-15,1.0957506150966814,1.090275702635385,-0.49964949924424795,1,True
2024-03-16,1.090275702635385,1.0848333870197298,-0.49916875176621023,1,True
2024-03-17,1.0848333870197298,1.07941763348556,-0.49922445224956924,1,True
2024-03-18,1.07941763348556,1.0771480155619395,-0.21026318759419516,1,True
2024-03-19,1.0771480155619395,1.0633316398723653,-1.2826812554972977,2,True
2024-03-20,1.0633316398723653,1.0626181625008695,-0.06709829226764219,1,True
2024-03-21,1.0626181625008695,1.0570109518479713,-0.5276787891241752,3,True
2024-03-22,1.0570109518479713,1.0677328791694736,1.0143629356684558,2,True
2024-03-23,1.0677328791694736,1.0633033074418767,-0.414857668431301,1,True
2024-03-24,1.0633033074418767,1.0592194860432524,-0.3840692839044424,2,True
2024-03-25,1.0592194860432524,1.0603303944998292,0.10487991121903573,0,True
2024-03-26,1.0603303944998292,1.0654862894617319,0.4862536232713266,1,True
2024-03-27,1.0654862894617319,1.0640223412654581,-0.13739718762718622,3,True
2024-03-28,1.0640223412654581,1.0640223412654581,0.0,0,False
2024-03-29,1.0640223412654581,1.0534308457827404,-0.9954204034965164,2,True
2024-03-30,1.0534308457827404,1.0534308457827404,0.0,0,False
2024-03-31,1.0534308457827404,1.0534308457827404,0.0,0,False
2024-04-01,1.0534308457827404,1.0465306595266661,-0.6550203350982331,2,True
2024-04-02,1.0465306595266661,1.0469633332226114,0.04134362352470333,2,True
2024-04-03,1.0469633332226114,1.0442519097090242,-0.2589797968608254,1,True
2024-04-04,1.0442519097090242,1.041731553381604,-0.24135520404481303,0,True
2024-04-05,1.041731553381604,1.0401927619583642,-0.14771477529357258,2,True
2024-04-06,1.0401927619583642,1.0358632771472667,-0.4162194709898204,0,True
2024-04-07,1.0358632771472667,1.041796918043763,0.5728208565166426,2,True
2024-04-08,1.041796918043763,1.0410664822711526,-0.07011306713998744,0,True
2024-04-09,1.0410664822711526,1.0358695295204976,-0.4991950888013963,1,True
2024-04-10,1.0358695295204976,1.030703707141221,-0.4986943077346595,1,True
2024-04-11,1.030703707141221,1.030703707141221,0.0,0,False
2024-04-12,1.030703707141221,1.025561823906313,-0.4988711304017457,1,True
2024-04-13,1.025561823906313,1.0309710802884164,0.5274432273131957,9,True
2024-04-14,1.0309710802884164,1.032450093466495,0.14345826050377042,8,True
2024-04-15,1.032450093466495,1.0443570656265333,1.1532733868094391,2,True
2024-04-16,1.0443570656265333,1.0364770066106046,-0.7545368605517355,0,True
2024-04-17,1.0364770066106046,1.0313029056185368,-0.49920075014376897,1,True
2024-04-18,1.0313029056185368,1.0313029056185368,0.0,0,False
2024-04-19,1.0313029056185368,1.0313029056185368,0.0,0,False
2024-04-20,1.0313029056185368,1.0313029056185368,0.0,0,False
2024-04-21,1.0313029056185368,1.0313029056185368,0.0,0,False
2024-04-22,1.0313029056185368,1.0313029056185368,0.0,0,False
2024-04-23,1.0313029056185368,1.026152212004449,-0.4994355766891334,1,True
2024-04-24,1.026152212004449,1.026152212004449,0.0,0,False
2024-04-25,1.026152212004449,1.0297137243665155,0.3470744710581952,2,True
2024-04-26,1.0297137243665155,1.0297137243665155,0.0,0,False
2024-04-27,1.0297137243665155,1.0245738676200964,-0.4991539517045118,1,True
2024-04-28,1.0245738676200964,1.0245738676200964,0.0,0,False
2024-04-29,1.0245738676200964,1.0331072068226435,0.832867153089567,1,True
2024-04-30,1.0331072068226435,1.0331072068226435,0.0,0,False
2024-05-01,1.0331072068226435,1.0331072068226435,0.0,0,False
2024-05-02,1.0331072068226435,1.0331072068226435,0.0,0,False
2024-05-03,1.0331072068226435,1.0331072068226435,0.0,0,False
2024-05-04,1.0331072068226435,1.0331072068226435,0.0,0,False
2024-05-05,1.0331072068226435,1.0331072068226435,0.0,0,False
2024-05-06,1.0331072068226435,1.0331072068226435,0.0,0,False
2024-05-07,1.0331072068226435,1.0279491574136006,-0.49927532931520746,1,True
2024-05-08,1.0279491574136006,1.0279491574136006,0.0,0,False
2024-05-09,1.0279491574136006,1.012627580909947,-1.4904994467045296,5,True
2024-05-10,1.012627580909947,1.0082372696535191,-0.4335563576574497,1,True
2024-05-11,1.0082372696535191,1.008509386562143,0.026989372126418054,1,True
2024-05-12,1.008509386562143,1.0032041433954992,-0.5260479711278299,0,True
2024-05-13,1.0032041433954992,1.0117753284479358,0.854380946177713,1,True
2024-05-14,1.0117753284479358,1.0117753284479358,0.0,0,False
2024-05-15,1.0117753284479358,1.0117753284479358,0.0,0,False
2024-05-16,1.0117753284479358,1.0117753284479358,0.0,0,False
2024-05-17,1.0117753284479358,1.0117753284479358,0.0,0,False
2024-05-18,1.0117753284479358,1.0117753284479358,0.0,0,False
2024-05-19,1.0117753284479358,1.0117753284479358,0.0,0,False
2024-05-20,1.0117753284479358,1.0117753284479358,0.0,0,False
2024-05-21,1.0117753284479358,1.0158997913392174,0.40764612214931883,2,True
2024-05-22,1.0158997913392174,1.0158997913392174,0.0,0,False
2024-05-23,1.0158997913392174,1.024492141217543,0.8457871486516,1,True
2024-05-24,1.024492141217543,1.0233905230844131,-0.10752821703645665,2,True
2024-05-25,1.0233905230844131,1.0233905230844131,0.0,0,False
2024-05-26,1.0233905230844131,1.0233905230844131,0.0,0,False
2024-05-27,1.0233905230844131,1.0233905230844131,0.0,0,False
2024-05-28,1.0233905230844131,1.0233905230844131,0.0,0,False
2024-05-29,1.0233905230844131,1.0233905230844131,0.0,0,False
2024-05-30,1.0233905230844131,1.0233905230844131,0.0,0,False
2024-05-31,1.0233905230844131,1.0131690801356166,-0.9987822554766268,2,True
2024-06-01,1.0131690801356166,1.0131690801356166,0.0,0,False
2024-06-02,1.0131690801356166,1.0081092769864854,-0.499403628509254,1,True
2024-06-03,1.0081092769864854,0.9997623086705647,-0.8279824922226786,3,True
2024-06-04,0.9997623086705647,0.9934198751847217,-0.6343941385704821,2,True
2024-06-05,0.9934198751847217,0.9934198751847217,0.0,0,False
2024-06-06,0.9934198751847217,0.9835276272957973,-0.9957771266741577,2,True
2024-06-07,0.9835276272957973,0.9835276272957973,0.0,0,False
2024-06-08,0.9835276272957973,1.0090746744722652,2.5974915668316667,5,True
2024-06-09,1.0090746744722652,1.004036496212324,-0.49928695936958256,1,True
2024-06-10,1.004036496212324,1.004036496212324,0.0,0,False
2024-06-11,1.004036496212324,0.9990220785899921,-0.4994258317549738,1,True
2024-06-12,0.9990220785899921,0.9940351217884754,-0.49918384271899763,1,True
2024-06-13,0.9940351217884754,0.9857908733884696,-0.8293719426304302,2,True
2024-06-14,0.9857908733884696,0.9808728424785935,-0.4988919092922095,1,True
2024-06-15,0.9808728424785935,0.9882303564547114,0.7500986526985498,1,True
2024-06-16,0.9882303564547114,0.9882303564547114,0.0,0,False
2024-06-17,0.9882303564547114,0.9882303564547114,0.0,0,False
2024-06-18,0.9882303564547114,0.9981007606018698,0.9987958862717639,5,True
2024-06-19,0.9981007606018698,0.9938832513788034,-0.42255345247138587,1,True
2024-06-20,0.9938832513788034,0.9931112580290907,-0.07767445005655293,0,True
2024-06-21,0.9931112580290907,0.9931112580290907,0.0,0,False
2024-06-22,0.9931112580290907,0.9881528545841041,-0.4992797538945437,1,True
2024-06-23,0.9881528545841041,0.9951633761644991,0.7094572006621114,1,True
2024-06-24,0.9951633761644991,0.9955702058614131,0.04088069423153762,1,True
2024-06-25,0.9955702058614131,1.0067596429490013,1.1239224538571513,1,True
2024-06-26,1.0067596429490013,1.0093428498221746,0.25658625584221717,0,True
2024-06-27,1.0093428498221746,1.009700364900844,0.03542057871934734,1,True
2024-06-28,1.009700364900844,1.0042979375697465,-0.5350525283437046,0,True
2024-06-29,1.0042979375697465,0.9943051107648451,-0.9950062059355225,2,True
2024-06-30,0.9943051107648451,0.9943051107648451,0.0,0,False
2024-07-01,0.9943051107648451,0.9943051107648451,0.0,0,False
2024-07-02,0.9943051107648451,0.9943051107648451,0.0,0,False
2024-07-03,0.9943051107648451,0.9943051107648451,0.0,0,False
2024-07-04,0.9943051107648451,0.9943051107648451,0.0,0,False
2024-07-05,0.9943051107648451,0.9997731368198762,0.5499344211179924,6,True
2024-07-06,0.9997731368198762,1.0009591943102858,0.11863266242402304,2,True
2024-07-07,1.0009591943102858,0.9967427768833282,-0.42123769389649235,2,True
2024-07-08,0.9967427768833282,0.9965448211444845,-0.01986026319275025,0,True
2024-07-09,0.9965448211444845,0.9965448211444845,0.0,0,False
2024-07-10,0.9965448211444845,0.9965448211444845,0.0,0,False
2024-07-11,0.9965448211444845,0.9965448211444845,0.0,0,False
2024-07-12,0.9965448211444845,0.9965448211444845,0.0,0,False
2024-07-13,0.9965448211444845,0.9965448211444845,0.0,0,False
2024-07-14,0.9965448211444845,0.9915696816182941,-0.4992389123528618,1,True
2024-07-15,0.9915696816182941,0.9915696816182941,0.0,0,False
2024-07-16,0.9915696816182941,0.98661754787068,-0.4994236753519843,1,True
2024-07-17,0.98661754787068,0.9816948369707477,-0.4989482409426538,1,True
2024-07-18,0.9816948369707477,0.9816948369707477,0.0,0,False
2024-07-19,0.9816948369707477,0.9816948369707477,0.0,0,False
2024-07-20,0.9816948369707477,0.9841305289539493,0.24811090895797694,2,True
2024-07-21,0.9841305289539493,0.9841305289539493,0.0,0,False
2024-07-22,0.9841305289539493,0.9841305289539493,0.0,0,False
2024-07-23,0.9841305289539493,0.9792147366878092,-0.4995061245955945,1,True
2024-07-24,0.9792147366878092,0.9792147366878092,0.0,0,False
2024-07-25,0.9792147366878092,0.9792147366878092,0.0,0,False
2024-07-26,0.9792147366878092,0.9792147366878092,0.0,0,False
2024-07-27,0.9792147366878092,0.9792147366878092,0.0,0,False
2024-07-28,0.9792147366878092,0.9743239396775525,-0.49946113217207433,1,True
2024-07-29,0.9743239396775525,0.9743239396775525,0.0,0,False
2024-07-30,0.9743239396775525,0.9743239396775525,0.0,0,False
2024-07-31,0.9743239396775525,0.9694625962419081,-0.4989452930052374,1,True
2024-08-01,0.9694625962419081,0.9694625962419081,0.0,0,False
2024-08-02,0.9694625962419081,0.9694625962419081,0.0,0,False
2024-08-03,0.9694625962419081,0.9646268852169033,-0.49880325901693334,1,True
2024-08-04,0.9646268852169033,0.9646268852169033,0.0,0,False
2024-08-05,0.9646268852169033,0.965933416774484,0.13544424042120085,8,True
2024-08-06,0.965933416774484,0.965933416774484,0.0,0,False
2024-08-07,0.965933416774484,0.965933416774484,0.0,0,False
2024-08-08,0.965933416774484,0.965933416774484,0.0,0,False
2024-08-09,0.965933416774484,0.965933416774484,0.0,0,False
2024-08-10,0.965933416774484,0.965933416774484,0.0,0,False
2024-08-11,0.965933416774484,0.965933416774484,0.0,0,False
2024-08-12,0.965933416774484,0.9763273208800753,1.0760476783482131,2,True
2024-08-13,0.9763273208800753,0.975336551665669,-0.10147920612456618,0,True
2024-08-14,0.975336551665669,0.975336551665669,0.0,0,False
2024-08-15,0.975336551665669,0.975336551665669,0.0,0,False
2024-08-16,0.975336551665669,0.975336551665669,0.0,0,False
2024-08-17,0.975336551665669,0.975336551665669,0.0,0,False
2024-08-18,0.975336551665669,0.9734353351833418,-0.19492927636930446,1,True
2024-08-19,0.9734353351833418,0.9640904830416753,-0.959986945605007,2,True
2024-08-20,0.9640904830416753,0.9664472222981569,0.24445208182599654,1,True
2024-08-21,0.9664472222981569,0.9664472222981569,0.0,0,False
2024-08-22,0.9664472222981569,0.9664472222981569,0.0,0,False
2024-08-23,0.9664472222981569,0.9664472222981569,0.0,0,False
2024-08-24,0.9664472222981569,0.9664472222981569,0.0,0,False
2024-08-25,0.9664472222981569,0.9664472222981569,0.0,0,False
2024-08-26,0.9664472222981569,0.9664472222981569,0.0,0,False
2024-08-27,0.9664472222981569,0.9664472222981569,0.0,0,False
2024-08-28,0.9664472222981569,0.9664472222981569,0.0,0,False
2024-08-29,0.9664472222981569,0.961628236511417,-0.4986289655094289,1,True
2024-08-30,0.961628236511417,0.961628236511417,0.0,0,False
2024-08-31,0.961628236511417,0.961628236511417,0.0,0,False
2024-09-01,0.961628236511417,0.9568419339794331,-0.4977289923752348,1,True
2024-09-02,0.9568419339794331,0.9568419339794331,0.0,0,False
2024-09-03,0.9568419339794331,0.9568419339794331,0.0,0,False
2024-09-04,0.9568419339794331,0.9568419339794331,0.0,0,False
2024-09-05,0.9568419339794331,0.9500556811303836,-0.709234473119913,2,True
2024-09-06,0.9500556811303836,0.9507299319472831,0.0709696105492652,0,True
2024-09-07,0.9507299319472831,0.9507299319472831,0.0,0,False
2024-09-08,0.9507299319472831,0.9507299319472831,0.0,0,False
2024-09-09,0.9507299319472831,0.9507299319472831,0.0,0,False
2024-09-10,0.9507299319472831,0.9507299319472831,0.0,0,False
2024-09-11,0.9507299319472831,0.9507299319472831,0.0,0,False
2024-09-12,0.9507299319472831,0.9507299319472831,0.0,0,False
2024-09-13,0.9507299319472831,0.9591114022893042,0.8815826724687614,1,True
2024-09-14,0.9591114022893042,0.9591114022893042,0.0,0,False
2024-09-15,0.9591114022893042,0.9591114022893042,0.0,0,False
2024-09-16,0.9591114022893042,0.9591114022893042,0.0,0,False
2024-09-17,0.9591114022893042,0.9591114022893042,0.0,0,False
2024-09-18,0.9591114022893042,0.9495295211345092,-0.9990373518575679,2,True
2024-09-19,0.9495295211345092,0.9486859616006652,-0.08883973747715324,1,True
2024-09-20,0.9486859616006652,0.9521700123898811,0.36725016815231104,1,True
2024-09-21,0.9521700123898811,0.9414261260033451,-1.1283579872012117,4,True
2024-09-22,0.9414261260033451,0.9496245955657304,0.870856388614416,1,True
2024-09-23,0.9496245955657304,0.9581675928335772,0.8996183657982604,1,True
2024-09-24,0.9581675928335772,0.9581675928335772,0.0,0,False
2024-09-25,0.9581675928335772,0.9581675928335772,0.0,0,False
2024-09-26,0.9581675928335772,0.9581675928335772,0.0,0,False
2024-09-27,0.9581675928335772,0.9581675928335772,0.0,0,False
2024-09-28,0.9581675928335772,0.9581675928335772,0.0,0,False
2024-09-29,0.9581675928335772,0.9581675928335772,0.0,0,False
2024-09-30,0.9581675928335772,0.9581675928335772,0.0,0,False
2024-10-01,0.9581675928335772,0.9581675928335772,0.0,0,False
2024-10-02,0.9581675928335772,0.9581675928335772,0.0,0,False
2024-10-03,0.9581675928335772,0.9663879854642321,0.8579284764103523,1,True
2024-10-04,0.9663879854642321,0.9663879854642321,0.0,0,False
2024-10-05,0.9663879854642321,0.9663879854642321,0.0,0,False
2024-10-06,0.9663879854642321,0.9663879854642321,0.0,0,False
2024-10-07,0.9663879854642321,0.9663879854642321,0.0,0,False
2024-10-08,0.9663879854642321,0.9663879854642321,0.0,0,False
2024-10-09,0.9663879854642321,0.9663879854642321,0.0,0,False
2024-10-10,0.9663879854642321,0.9663879854642321,0.0,0,False
2024-10-11,0.9663879854642321,0.9648617810082041,-0.15792874901014997,1,True
2024-10-12,0.9648617810082041,0.9658406351409621,0.1014501923513933,0,True
2024-10-13,0.9658406351409621,0.9658406351409621,0.0,0,False
2024-10-14,0.9658406351409621,0.9658406351409621,0.0,0,False
2024-10-15,0.9658406351409621,0.9562181157793923,-0.9962843777188368,2,True
2024-10-16,0.9562181157793923,0.9562181157793923,0.0,0,False
2024-10-17,0.9562181157793923,0.9562181157793923,0.0,0,False
2024-10-18,0.9562181157793923,0.9739824132355756,1.8577662525985472,3,True
2024-10-19,0.9739824132355756,0.9706564060805902,-0.34148533995971286,1,True
2024-10-20,0.9706564060805902,0.9706564060805902,0.0,0,False
2024-10-21,0.9706564060805902,0.9791655279254844,0.8766358303092137,1,True
2024-10-22,0.9791655279254844,0.9829112604224141,0.38254333818976693,2,True
2024-10-23,0.9829112604224141,0.9731208542201905,-0.9960620654621555,2,True
2024-10-24,0.9731208542201905,0.9682649486688839,-0.49900333861386814,1,True
2024-10-25,0.9682649486688839,0.9719681614709591,0.3824586242811012,1,True
2024-10-26,0.9719681614709591,0.9842505552181691,1.2636621480092591,2,True
2024-10-27,0.9842505552181691,0.9842505552181691,0.0,0,False
2024-10-28,0.9842505552181691,0.9842505552181691,0.0,0,False
2024-10-29,0.9842505552181691,0.9842505552181691,0.0,0,False
2024-10-30,0.9842505552181691,0.9842505552181691,0.0,0,False
2024-10-31,0.9842505552181691,0.9842505552181691,0.0,0,False
2024-11-01,0.9842505552181691,0.9842505552181691,0.0,0,False
2024-11-02,0.9842505552181691,0.9842505552181691,0.0,0,False
2024-11-03,0.9842505552181691,0.9842505552181691,0.0,0,False
2024-11-04,0.9842505552181691,0.9842505552181691,0.0,0,False
2024-11-05,0.9842505552181691,0.9842505552181691,0.0,0,False
2024-11-06,0.9842505552181691,0.9842505552181691,0.0,0,False
2024-11-07,0.9842505552181691,0.9842505552181691,0.0,0,False
2024-11-08,0.9842505552181691,0.9842505552181691,0.0,0,False
2024-11-09,0.9842505552181691,0.9818666173237341,-0.24220843786127988,1,True
2024-11-10,0.9818666173237341,0.977115875798844,-0.4838479525701045,3,True
2024-11-11,0.977115875798844,0.9795128699540762,0.24531319310234778,3,True
2024-11-12,0.9795128699540762,0.9812288272909989,0.17518476679159178,0,True
2024-11-13,0.9812288272909989,0.9812288272909989,0.0,0,False
2024-11-14,0.9812288272909989,0.9832769712015901,0.20873254572491007,1,True
2024-11-15,0.9832769712015901,0.9832769712015901,0.0,0,False
2024-11-16,0.9832769712015901,0.9817711266032019,-0.15314551672536147,1,True
2024-11-17,0.9817711266032019,0.9996897500489136,1.8251324529890978,2,True
2024-11-18,0.9996897500489136,0.9996897500489136,0.0,0,False
2024-11-19,0.9996897500489136,0.9946979977382369,-0.4993301482217327,1,True
2024-11-20,0.9946979977382369,0.9946979977382369,0.0,0,False
2024-11-21,0.9946979977382369,0.9946979977382369,0.0,0,False
2024-11-22,0.9946979977382369,0.9946979977382369,0.0,0,False
2024-11-23,0.9946979977382369,0.9996354444434016,0.4963764596281006,1,True
2024-11-24,0.9996354444434016,1.027674298410748,2.8049079415104705,8,True
2024-11-25,1.027674298410748,1.030562787929259,0.28107052234134233,1,True
2024-11-26,1.030562787929259,1.020293011065949,-0.9965212196284878,2,True
2024-11-27,1.020293011065949,1.0263529371545674,0.5939397822873893,2,True
2024-11-28,1.0263529371545674,1.0263529371545674,0.0,0,False
2024-11-29,1.0263529371545674,1.0263529371545674,0.0,0,False
2024-11-30,1.0263529371545674,1.0355944161188562,0.9004192056885962,1,True
2024-12-01,1.0355944161188562,1.0355944161188562,0.0,0,False
2024-12-02,1.0355944161188562,1.0401627526485415,0.4411318232871775,1,True
2024-12-03,1.0401627526485415,1.0455944904001166,0.5222007553860708,1,True
2024-12-04,1.0455944904001166,1.0422501515146192,-0.31985046939351225,3,True
2024-12-05,1.0422501515146192,1.0481383139066838,0.5649471370676062,1,True
2024-12-06,1.0481383139066838,1.0500255350775094,0.18005459258438883,1,True
2024-12-07,1.0500255350775094,1.0514324985698251,0.13399326447922633,1,True
2024-12-08,1.0514324985698251,1.0514324985698251,0.0,0,False
2024-12-09,1.0514324985698251,1.0461791351956482,-0.49963867212803326,1,True
2024-12-10,1.0461791351956482,1.0373268734240757,-0.8461516267877944,5,True
2024-12-11,1.0373268734240757,1.037037574725896,-0.027888865659553286,0,True
2024-12-12,1.037037574725896,1.037037574725896,0.0,0,False
2024-12-13,1.037037574725896,1.037037574725896,0.0,0,False
2024-12-14,1.037037574725896,1.037037574725896,0.0,0,False
2024-12-15,1.037037574725896,1.029875799355876,-0.6905994097574419,2,True
2024-12-16,1.029875799355876,1.0267136145606692,-0.3070452570285265,0,True
2024-12-17,1.0267136145606692,1.0267136145606692,0.0,0,False
2024-12-18,1.0267136145606692,1.0215881154251945,-0.49921410048390236,1,True
2024-12-19,1.0215881154251945,1.0237402827751243,0.21066879277800155,1,True
2024-12-20,1.0237402827751243,1.0272098147328506,0.33890743737474693,2,True
2024-12-21,1.0272098147328506,1.0272098147328506,0.0,0,False
2024-12-22,1.0272098147328506,1.0272098147328506,0.0,0,False
2024-12-23,1.0272098147328506,1.0272098147328506,0.0,0,False
2024-12-24,1.0272098147328506,1.0272098147328506,0.0,0,False
2024-12-25,1.0272098147328506,1.036033787831199,0.8590234411499642,1,True
2024-12-26,1.036033787831199,1.0356699043290967,-0.03512274468036036,1,True
2024-12-27,1.0356699043290967,1.0357495683789482,0.0076920309761252526,0,True
2024-12-28,1.0357495683789482,1.0357495683789482,0.0,0,False
2024-12-29,1.0357495683789482,1.0357495683789482,0.0,0,False
2024-12-30,1.0357495683789482,1.0386716752662075,0.2821248472092197,1,True
2024-12-31,1.0386716752662075,1.0386716752662075,0.0,0,False
