day,start_equity,end_equity,return_pct,entries,active
2021-09-02,1.0,1.0,0.0,0,False
2021-09-03,1.0,1.0,0.0,0,False
2021-09-04,1.0,1.0,0.0,0,False
2021-09-05,1.0,1.0,0.0,0,False
2021-09-06,1.0,1.0,0.0,0,False
2021-09-07,1.0,1.0,0.0,0,False
2021-09-08,1.0,1.0,0.0,0,False
2021-09-09,1.0,1.0,0.0,0,False
2021-09-10,1.0,1.0,0.0,0,False
2021-09-11,1.0,1.0,0.0,0,False
2021-09-12,1.0,1.0,0.0,0,False
2021-09-13,1.0,1.0,0.0,0,False
2021-09-14,1.0,1.0,0.0,0,False
2021-09-15,1.0,1.0,0.0,0,False
2021-09-16,1.0,1.0,0.0,0,False
2021-09-17,1.0,1.0,0.0,0,False
2021-09-18,1.0,1.0,0.0,0,False
2021-09-19,1.0,1.0,0.0,0,False
2021-09-20,1.0,1.0,0.0,0,False
2021-09-21,1.0,1.0,0.0,0,False
2021-09-22,1.0,1.0,0.0,0,False
2021-09-23,1.0,1.0,0.0,0,False
2021-09-24,1.0,1.0,0.0,0,False
2021-09-25,1.0,1.0,0.0,0,False
2021-09-26,1.0,1.0,0.0,0,False
2021-09-27,1.0,1.0,0.0,0,False
2021-09-28,1.0,1.0,0.0,0,False
2021-09-29,1.0,1.0,0.0,0,False
2021-09-30,1.0,1.0,0.0,0,False
2021-10-01,1.0,1.0,0.0,0,False
2021-10-02,1.0,1.0,0.0,0,False
2021-10-03,1.0,1.0,0.0,0,False
2021-10-04,1.0,1.0,0.0,0,False
2021-10-05,1.0,0.9993073753491394,-0.06926246508606182,1,True
2021-10-06,0.9993073753491394,1.0084778852151444,0.9176865989606986,5,True
2021-10-07,1.0084778852151444,0.9942975550949092,-1.406112154577388,2,True
2021-10-08,0.9942975550949092,0.9936231489553186,-0.0678273959475173,1,True
2021-10-09,0.9936231489553186,1.000700726417933,0.7122999771146388,4,True
2021-10-10,1.000700726417933,0.9880851896336613,-1.2606702934482517,1,True
2021-10-11,0.9880851896336613,0.9855098507706057,-0.2606393547919139,0,True
2021-10-12,0.9855098507706057,0.9855098507706057,0.0,0,False
2021-10-13,0.9855098507706057,1.0123303087182618,2.721480452649372,4,True
2021-10-14,1.0123303087182618,1.0294855603273605,1.694629851675522,1,True
2021-10-15,1.0294855603273605,1.0487833751196554,1.8745104871755958,7,True
2021-10-16,1.0487833751196554,1.050807405193374,0.1929883827046508,3,True
2021-10-17,1.050807405193374,1.050807405193374,0.0,0,False
2021-10-18,1.050807405193374,1.054632674028179,0.364031392993569,2,True
2021-10-19,1.054632674028179,1.054632674028179,0.0,0,False
2021-10-20,1.054632674028179,1.054632674028179,0.0,0,False
2021-10-21,1.054632674028179,1.054632674028179,0.0,0,False
2021-10-22,1.054632674028179,1.054632674028179,0.0,0,False
2021-10-23,1.054632674028179,1.054632674028179,0.0,0,False
2021-10-24,1.054632674028179,1.059134627877517,0.4268741107880558,1,True
2021-10-25,1.059134627877517,1.0512311792687459,-0.7462175629749379,2,True
2021-10-26,1.0512311792687459,1.0512311792687459,0.0,0,False
2021-10-27,1.0512311792687459,1.0486959007680627,-0.24117230830679182,7,True
2021-10-28,1.0486959007680627,1.0429294418882062,-0.5498694974999996,6,True
2021-10-29,1.0429294418882062,1.0390054793558092,-0.37624429561531336,3,True
2021-10-30,1.0390054793558092,1.0495567675293518,1.0155180490563298,3,True
2021-10-31,1.0495567675293518,1.0429412674272311,-0.6303137006770432,13,True
2021-11-01,1.0429412674272311,1.034538116808006,-0.8057165711693903,8,True
2021-11-02,1.034538116808006,1.060786398630072,2.537198136599672,3,True
2021-11-03,1.060786398630072,1.054862882676328,-0.5584079849999868,2,True
2021-11-04,1.054862882676328,1.0658557649981748,1.0421148096477095,7,True
2021-11-05,1.0658557649981748,1.053707255862707,-1.1397892223708794,6,True
2021-11-06,1.053707255862707,1.0522631789705486,-0.13704725711279897,2,True
2021-11-07,1.0522631789705486,1.0522631789705486,0.0,0,False
2021-11-08,1.0522631789705486,1.0522631789705486,0.0,0,False
2021-11-09,1.0522631789705486,1.0604624499282205,0.7792034465839093,2,True
2021-11-10,1.0604624499282205,1.0823191349684942,2.0610522363854633,1,True
2021-11-11,1.0823191349684942,1.0831697642657832,0.07859320507288547,19,True
2021-11-12,1.0831697642657832,1.0411322185722542,-3.880974809338744,7,True
2021-11-13,1.0411322185722542,1.0390488210082318,-0.20010883602079588,1,True
2021-11-14,1.0390488210082318,1.0442834252532835,0.5037880934191774,2,True
2021-11-15,1.0442834252532835,1.0442834252532835,0.0,0,False
2021-11-16,1.0442834252532835,1.0557640095219254,1.0993743643740395,9,True
2021-11-17,1.0557640095219254,1.0545586441229282,-0.11416996489045372,1,True
2021-11-18,1.0545586441229282,1.04195707348914,-1.1949615798056423,4,True
2021-11-19,1.04195707348914,1.0497064108401333,0.7437290410672759,7,True
2021-11-20,1.0497064108401333,1.0601521267459335,0.995108327235994,0,True
2021-11-21,1.0601521267459335,1.049709447071612,-0.9850170943272674,3,True
2021-11-22,1.049709447071612,1.0372448800516532,-1.1874302031606332,10,True
2021-11-23,1.0372448800516532,1.0304214813637633,-0.6578387436870337,0,True
2021-11-24,1.0304214813637633,1.0156625618554893,-1.4323186943599575,4,True
2021-11-25,1.0156625618554893,1.021585519680453,0.5831619720375603,11,True
2021-11-26,1.021585519680453,0.9823839184837254,-3.837329371014353,14,True
2021-11-27,0.9823839184837254,0.9972374952858603,1.5119930734473819,7,True
2021-11-28,0.9972374952858603,0.95309150519635,-4.426828142563544,9,True
2021-11-29,0.95309150519635,0.9386583163041399,-1.5143550030106145,2,True
2021-11-30,0.9386583163041399,0.9284930060404152,-1.08296172176362,3,True
2021-12-01,0.9284930060404152,0.9206432266306422,-0.845432260523804,1,True
2021-12-02,0.9206432266306422,0.9142030752288359,-0.6995273755910691,8,True
2021-12-03,0.9142030752288359,0.8934045463370811,-2.2750447307944954,3,True
2021-12-04,0.8934045463370811,0.8328984137330901,-6.772534665517815,25,True
2021-12-05,0.8328984137330901,0.830644369508028,-0.27062654795552143,4,True
2021-12-06,0.830644369508028,0.8022797203621079,-3.414776550248555,15,True
2021-12-07,0.8022797203621079,0.8176700299488696,1.918322150759999,1,True
2021-12-08,0.8176700299488696,0.8107192593366244,-0.850070365509159,4,True
2021-12-09,0.8107192593366244,0.7991489283663067,-1.4271686329229594,4,True
2021-12-10,0.7991489283663067,0.7842172740333838,-1.868444516774559,4,True
2021-12-11,0.7842172740333838,0.7771117803440882,-0.9060618688938926,2,True
2021-12-12,0.7771117803440882,0.7771117803440882,0.0,0,False
2021-12-13,0.7771117803440882,0.7693654213884502,-0.9968139914451002,2,True
2021-12-14,0.7693654213884502,0.7655317609839817,-0.4982886282502874,1,True
2021-12-15,0.7655317609839817,0.7640284148515238,-0.1963793286023141,1,True
2021-12-16,0.7640284148515238,0.7648886604484307,0.1125934036202203,1,True
2021-12-17,0.7648886604484307,0.7589392349180837,-0.7778158885057951,5,True
2021-12-18,0.7589392349180837,0.7628531007611267,0.5157021356875013,2,True
2021-12-19,0.7628531007611267,0.758696141104127,-0.5449226925671735,1,True
2021-12-20,0.758696141104127,0.758696141104127,0.0,0,False
2021-12-21,0.758696141104127,0.7549193264933278,-0.497803324174384,1,True
2021-12-22,0.7549193264933278,0.7494980844507917,-0.7181220366576535,2,True
2021-12-23,0.7494980844507917,0.7497180942091118,0.029354278934734523,0,True
2021-12-24,0.7497180942091118,0.7497180942091118,0.0,0,False
2021-12-25,0.7497180942091118,0.7560324015866738,0.8422242208550479,2,True
2021-12-26,0.7560324015866738,0.7526711992450339,-0.4445844297924051,0,True
2021-12-27,0.7526711992450339,0.7526711992450339,0.0,0,False
2021-12-28,0.7526711992450339,0.7489213790320506,-0.4982016339597606,1,True
2021-12-29,0.7489213790320506,0.7489213790320506,0.0,0,False
2021-12-30,0.7489213790320506,0.7489213790320506,0.0,0,False
2021-12-31,0.7489213790320506,0.7489213790320506,0.0,0,False
2022-01-01,0.7489213790320506,0.7489213790320506,0.0,0,False
2022-01-02,0.7489213790320506,0.7489213790320506,0.0,0,False
2022-01-03,0.7489213790320506,0.7489213790320506,0.0,0,False
2022-01-04,0.7489213790320506,0.7489213790320506,0.0,0,False
2022-01-05,0.7489213790320506,0.7510208504323633,0.2803326836558151,1,True
2022-01-06,0.7510208504323633,0.7101280075579398,-5.44496771972196,15,True
2022-01-07,0.7101280075579398,0.7099298708395896,-0.027901549613795762,5,True
2022-01-08,0.7099298708395896,0.7099298708395896,0.0,0,False
2022-01-09,0.7099298708395896,0.7108615794102487,0.13123952223017543,1,True
2022-01-10,0.7108615794102487,0.7129263095982545,0.29045460435754844,0,True
2022-01-11,0.7129263095982545,0.7129263095982545,0.0,0,False
2022-01-12,0.7129263095982545,0.7129263095982545,0.0,0,False
2022-01-13,0.7129263095982545,0.7129263095982545,0.0,0,False
2022-01-14,0.7129263095982545,0.7129263095982545,0.0,0,False
2022-01-15,0.7129263095982545,0.7135879473456554,0.09280590974034553,1,True
2022-01-16,0.7135879473456554,0.71216094702198,-0.19997539602281122,0,True
2022-01-17,0.71216094702198,0.7185590844516573,0.8984117222984755,1,True
2022-01-18,0.7185590844516573,0.7185590844516573,0.0,0,False
2022-01-19,0.7185590844516573,0.7149798429260442,-0.4981137394351465,1,True
2022-01-20,0.7149798429260442,0.7149798429260442,0.0,0,False
2022-01-21,0.7149798429260442,0.6834858719458138,-4.404875367023198,9,True
2022-01-22,0.6834858719458138,0.6443282460716332,-5.729105381901,27,True
2022-01-23,0.6443282460716332,0.6470829946923892,0.42753808133528803,0,True
2022-01-24,0.6470829946923892,0.6397736182822649,-1.1295887034705743,6,True
2022-01-25,0.6397736182822649,0.6550273260774204,2.3842351980862153,0,True
2022-01-26,0.6550273260774204,0.6561012748158682,0.16395479939426139,1,True
2022-01-27,0.6561012748158682,0.6504831010760672,-0.8562967266566801,10,True
2022-01-28,0.6504831010760672,0.6384854177357407,-1.8444265993196707,0,True
2022-01-29,0.6384854177357407,0.6384854177357407,0.0,0,False
2022-01-30,0.6384854177357407,0.644191722280332,0.8937251166718063,1,True
2022-01-31,0.644191722280332,0.6430744598161559,-0.1734363273438455,2,True
2022-02-01,0.6430744598161559,0.6398678428887143,-0.49863851354915445,1,True
2022-02-02,0.6398678428887143,0.6457766470478982,0.9234413363403693,1,True
2022-02-03,0.6457766470478982,0.6514696783354454,0.8815789969445875,4,True
2022-02-04,0.6514696783354454,0.6565757377660731,0.7837754542427966,1,True
2022-02-05,0.6565757377660731,0.6565757377660731,0.0,0,False
2022-02-06,0.6565757377660731,0.6565757377660731,0.0,0,False
2022-02-07,0.6565757377660731,0.6565757377660731,0.0,0,False
2022-02-08,0.6565757377660731,0.6501220876727924,-0.9829254603952564,3,True
2022-02-09,0.6501220876727924,0.6594076908549817,1.4282860647649276,2,True
2022-02-10,0.6594076908549817,0.6747593560636471,2.3280992050245253,5,True
2022-02-11,0.6747593560636471,0.663357187255593,-1.689812628100651,0,True
2022-02-12,0.663357187255593,0.6469387288344057,-2.4750554809111036,5,True
2022-02-13,0.6469387288344057,0.6469387288344057,0.0,0,False
2022-02-14,0.6469387288344057,0.6469387288344057,0.0,0,False
2022-02-15,0.6469387288344057,0.6469387288344057,0.0,0,False
2022-02-16,0.6469387288344057,0.6469387288344057,0.0,0,False
2022-02-17,0.6469387288344057,0.6469387288344057,0.0,0,False
2022-02-18,0.6469387288344057,0.6469387288344057,0.0,0,False
2022-02-19,0.6469387288344057,0.6469387288344057,0.0,0,False
2022-02-20,0.6469387288344057,0.6469387288344057,0.0,0,False
2022-02-21,0.6469387288344057,0.6469387288344057,0.0,0,False
2022-02-22,0.6469387288344057,0.640514353752257,-0.9930422767738145,2,True
2022-02-23,0.640514353752257,0.640514353752257,0.0,0,False
2022-02-24,0.640514353752257,0.6293526285076163,-1.742619065326656,11,True
2022-02-25,0.6293526285076163,0.6406904962915225,1.8015127402886577,0,True
2022-02-26,0.6406904962915225,0.6406904962915225,0.0,0,False
2022-02-27,0.6406904962915225,0.6406904962915225,0.0,0,False
2022-02-28,0.6406904962915225,0.6343103880722957,-0.9958175212768872,2,True
2022-03-01,0.6343103880722957,0.6343103880722957,0.0,0,False
2022-03-02,0.6343103880722957,0.6343103880722957,0.0,0,False
2022-03-03,0.6343103880722957,0.6343103880722957,0.0,0,False
2022-03-04,0.6343103880722957,0.6426183528184439,1.309763311838008,3,True
2022-03-05,0.6426183528184439,0.6435106832743226,0.13885853897028788,3,True
2022-03-06,0.6435106832743226,0.6403282784118622,-0.4945379999392707,4,True
2022-03-07,0.6403282784118622,0.6381210902226946,-0.3446963477299336,0,True
2022-03-08,0.6381210902226946,0.6349476066591961,-0.49731682781256614,1,True
2022-03-09,0.6349476066591961,0.6462476515402353,1.7796814670260508,2,True
2022-03-10,0.6462476515402353,0.6423960618520883,-0.5959928332377462,4,True
2022-03-11,0.6423960618520883,0.6335486071767636,-1.3772585482259347,2,True
2022-03-12,0.6335486071767636,0.6311920770219781,-0.3719572781142655,0,True
2022-03-13,0.6311920770219781,0.6311920770219781,0.0,0,False
2022-03-14,0.6311920770219781,0.6280482787946914,-0.4980731447263187,1,True
2022-03-15,0.6280482787946914,0.6293275684409553,0.20369288308839106,1,True
2022-03-16,0.6293275684409553,0.6348089084045179,0.8709836082887001,1,True
2022-03-17,0.6348089084045179,0.6372167137087705,0.379296079871394,1,True
2022-03-18,0.6372167137087705,0.6356812701175355,-0.24096097264906247,0,True
2022-03-19,0.6356812701175355,0.6356812701175355,0.0,0,False
2022-03-20,0.6356812701175355,0.6321323587442882,-0.5582847159538162,4,True
2022-03-21,0.6321323587442882,0.6399874709015664,1.2426372497180926,4,True
2022-03-22,0.6399874709015664,0.6370198763713556,-0.463695722985058,0,True
2022-03-23,0.6370198763713556,0.6363928237711158,-0.09843532729491011,2,True
2022-03-24,0.6363928237711158,0.6306541796125603,-0.901745579805513,0,True
2022-03-25,0.6306541796125603,0.6306541796125603,0.0,0,False
2022-03-26,0.6306541796125603,0.6323983251551798,0.276561322988611,1,True
2022-03-27,0.6323983251551798,0.6352091059411548,0.44446366699109063,2,True
2022-03-28,0.6352091059411548,0.6481561793065933,2.038237998218806,5,True
2022-03-29,0.6481561793065933,0.652568740421505,0.680786707862957,1,True
2022-03-30,0.652568740421505,0.6633327821307786,1.6494877922471396,7,True
2022-03-31,0.6633327821307786,0.6605731528828029,-0.41602485544451895,7,True
2022-04-01,0.6605731528828029,0.6447413882353233,-2.396670918033572,11,True
2022-04-02,0.6447413882353233,0.6448887735344622,0.02285959949650529,1,True
2022-04-03,0.6448887735344622,0.6379068688442224,-1.0826525405262966,3,True
2022-04-04,0.6379068688442224,0.6294043113608365,-1.3328838265671994,3,True
2022-04-05,0.6294043113608365,0.6289583202247878,-0.07085924389116371,7,True
2022-04-06,0.6289583202247878,0.5993056561063471,-4.714567430770755,14,True
2022-04-07,0.5993056561063471,0.5931678959537788,-1.0241452070459234,3,True
2022-04-08,0.5931678959537788,0.5910967428982637,-0.3491680972020239,0,True
2022-04-09,0.5910967428982637,0.5907474847234779,-0.0590864657912582,1,True
2022-04-10,0.5907474847234779,0.5881426622873953,-0.4409366951942051,0,True
2022-04-11,0.5881426622873953,0.5791059709753726,-1.5364794787845026,7,True
2022-04-12,0.5791059709753726,0.5699949850180606,-1.5732847551142792,1,True
2022-04-13,0.5699949850180606,0.565564224895821,-0.7773331763785807,1,True
2022-04-14,0.565564224895821,0.5649405587479582,-0.11027326701537055,0,True
2022-04-15,0.5649405587479582,0.5700524109687626,0.904847800648878,1,True
2022-04-16,0.5700524109687626,0.5700524109687626,0.0,0,False
2022-04-17,0.5700524109687626,0.5748053258632588,0.8337680541371739,1,True
2022-04-18,0.5748053258632588,0.5856970729038058,1.894858406920541,6,True
2022-04-19,0.5856970729038058,0.5988679036112672,2.2487444989544247,2,True
2022-04-20,0.5988679036112672,0.609087339528281,1.7064591131682016,1,True
2022-04-21,0.609087339528281,0.6067883569965135,-0.37744710529494796,5,True
2022-04-22,0.6067883569965135,0.5999452985327567,-1.1277504561275076,2,True
2022-04-23,0.5999452985327567,0.5932989137712616,-1.1078317936234594,2,True
2022-04-24,0.5932989137712616,0.5932989137712616,0.0,0,False
2022-04-25,0.5932989137712616,0.5844496926834095,-1.491528280677723,3,True
2022-04-26,0.5844496926834095,0.5796961509337157,-0.813336341724924,2,True
2022-04-27,0.5796961509337157,0.5757487663619411,-0.6809402762838146,1,True
2022-04-28,0.5757487663619411,0.5777967510603673,0.35570804803752853,1,True
2022-04-29,0.5777967510603673,0.564497621250398,-2.3016968831276463,4,True
2022-04-30,0.564497621250398,0.556578065777886,-1.402938679346366,5,True
2022-05-01,0.556578065777886,0.5523346431495245,-0.7624128382477391,10,True
2022-05-02,0.5523346431495245,0.5584739526120392,1.1115198980652607,1,True
2022-05-03,0.5584739526120392,0.5655171821685381,1.261156321356971,3,True
2022-05-04,0.5655171821685381,0.558907226259305,-1.1688337892557854,2,True
2022-05-05,0.558907226259305,0.558907226259305,0.0,0,False
2022-05-06,0.558907226259305,0.530225508337838,-5.131749344775893,13,True
2022-05-07,0.530225508337838,0.5263201794157228,-0.7365411246165188,2,True
2022-05-08,0.5263201794157228,0.5218514802869386,-0.8490457526718842,3,True
2022-05-09,0.5218514802869386,0.5118176692510592,-1.9227330792206176,5,True
2022-05-10,0.5118176692510592,0.5024523767220389,-1.8298103195078186,25,True
2022-05-11,0.5024523767220389,0.48401160071985666,-3.6701539999648314,38,True
2022-05-12,0.48401160071985666,0.4711845932457959,-2.6501446359929126,28,True
2022-05-13,0.4711845932457959,0.48961409830547287,3.9113131719192396,12,True
2022-05-14,0.48961409830547287,0.46807218829315744,-4.399773226888437,14,True
2022-05-15,0.46807218829315744,0.48089678490304816,2.739875799212954,4,True
2022-05-16,0.48089678490304816,0.4851528419580499,0.8850250591423192,10,True
2022-05-17,0.4851528419580499,0.49839093204221335,2.7286432108148073,4,True
2022-05-18,0.49839093204221335,0.4841453359395732,-2.8583176752970174,2,True
2022-05-19,0.4841453359395732,0.4870420830816606,0.5983218110457988,8,True
2022-05-20,0.4870420830816606,0.49016927710884095,0.6420788132708521,2,True
2022-05-21,0.49016927710884095,0.49016927710884095,0.0,0,False
2022-05-22,0.49016927710884095,0.4889583321294002,-0.24704628298681808,1,True
2022-05-23,0.4889583321294002,0.4893105323015139,0.07203071283801155,4,True
2022-05-24,0.4893105323015139,0.4643328041061579,-5.1046782250672385,16,True
2022-05-25,0.4643328041061579,0.46468245312119455,0.07530138123876817,1,True
2022-05-26,0.46468245312119455,0.4619417246435328,-0.5898067506644011,14,True
2022-05-27,0.4619417246435328,0.4600609523016167,-0.40714493659723683,6,True
2022-05-28,0.4600609523016167,0.46328032030172595,0.6997698857082346,1,True
2022-05-29,0.46328032030172595,0.46720527764361275,0.8472100302751029,4,True
2022-05-30,0.46720527764361275,0.4704772462113252,0.700327826820546,0,True
2022-05-31,0.4704772462113252,0.45910058164864265,-2.418111535530554,10,True
2022-06-01,0.45910058164864265,0.4514177394180838,-1.673455128932655,5,True
2022-06-02,0.4514177394180838,0.444358881484318,-1.5637085824020236,12,True
2022-06-03,0.444358881484318,0.44716179171032727,0.6307762357863789,0,True
2022-06-04,0.44716179171032727,0.44716179171032727,0.0,0,False
2022-06-05,0.44716179171032727,0.44716179171032727,0.0,0,False
2022-06-06,0.44716179171032727,0.44900208955208387,0.41155078002477197,1,True
2022-06-07,0.44900208955208387,0.4456224412328904,-0.7527021361002917,5,True
2022-06-08,0.4456224412328904,0.45330342877317004,1.7236536649789969,6,True
2022-06-09,0.45330342877317004,0.45611330982069925,0.6198675918101859,7,True
2022-06-10,0.45611330982069925,0.4559107665328794,-0.04440635330276166,8,True
2022-06-11,0.4559107665328794,0.4424920874522078,-2.9432687415386627,8,True
2022-06-12,0.4424920874522078,0.4376628729406919,-1.0913674274542817,16,True
2022-06-13,0.4376628729406919,0.4051915097337159,-7.419263824870104,16,True
2022-06-14,0.4051915097337159,0.4201741325387326,3.69766454752789,15,True
2022-06-15,0.4201741325387326,0.4164082798930811,-0.8962599917557657,10,True
2022-06-16,0.4164082798930811,0.4203338280147955,0.9427161541365914,10,True
2022-06-17,0.4203338280147955,0.420982804948867,0.1543955995967572,2,True
2022-06-18,0.420982804948867,0.4175606628260487,-0.8128935630123735,9,True
2022-06-19,0.4175606628260487,0.41522977451095266,-0.5582154936053074,4,True
2022-06-20,0.41522977451095266,0.41862648780716655,0.8180322088449543,2,True
2022-06-21,0.41862648780716655,0.4219547732125668,0.7950489284217044,1,True
2022-06-22,0.4219547732125668,0.4288796523770306,1.641142511966609,9,True
2022-06-23,0.4288796523770306,0.4272109935850344,-0.3890739005097954,1,True
2022-06-24,0.4272109935850344,0.42296808748056114,-0.9931640730656222,2,True
2022-06-25,0.42296808748056114,0.4237939002916063,0.19524234463270673,4,True
2022-06-26,0.4237939002916063,0.42623924692191745,0.5770131728249472,0,True
2022-06-27,0.42623924692191745,0.42443567011751676,-0.42313719757746115,5,True
2022-06-28,0.42443567011751676,0.42616985093840337,0.40858507966741175,4,True
2022-06-29,0.42616985093840337,0.41761101968247993,-2.0083145809299596,5,True
2022-06-30,0.41761101968247993,0.41102699482519006,-1.5765927015757075,4,True
2022-07-01,0.41102699482519006,0.41695099204754377,1.4412671909476815,1,True
2022-07-02,0.41695099204754377,0.4158803482472372,-0.25677929078641304,2,True
2022-07-03,0.4158803482472372,0.4147547511375322,-0.2706540750119446,3,True
2022-07-04,0.4147547511375322,0.4173767474422312,0.632179932238941,0,True
2022-07-05,0.4173767474422312,0.41771304532905507,0.08057417881681683,1,True
2022-07-06,0.41771304532905507,0.4211702102567962,0.8276411202378764,0,True
2022-07-07,0.4211702102567962,0.4211702102567962,0.0,0,False
2022-07-08,0.4211702102567962,0.4211702102567962,0.0,0,False
2022-07-09,0.4211702102567962,0.4211702102567962,0.0,0,False
2022-07-10,0.4211702102567962,0.4211702102567962,0.0,0,False
2022-07-11,0.4211702102567962,0.4190744052269811,-0.49761473598458617,1,True
2022-07-12,0.4190744052269811,0.4206995265774968,0.3877882615225703,2,True
2022-07-13,0.4206995265774968,0.4282179440408855,1.7871228723628452,5,True
2022-07-14,0.4282179440408855,0.43539728924254273,1.676563371891726,0,True
2022-07-15,0.43539728924254273,0.43539728924254273,0.0,0,False
2022-07-16,0.43539728924254273,0.43539728924254273,0.0,0,False
2022-07-17,0.43539728924254273,0.43539728924254273,0.0,0,False
2022-07-18,0.43539728924254273,0.43645995378886066,0.24406779108951948,1,True
2022-07-19,0.43645995378886066,0.4387999524095742,0.5361313450180871,4,True
2022-07-20,0.4387999524095742,0.43369740377539484,-1.162841656239899,2,True
2022-07-21,0.43369740377539484,0.4219649607776856,-2.705214026087488,8,True
2022-07-22,0.4219649607776856,0.4243978298903447,0.5765571407102765,0,True
2022-07-23,0.4243978298903447,0.426584772946466,0.5153049573053625,3,True
2022-07-24,0.426584772946466,0.429468999564686,0.6761203871151533,3,True
2022-07-25,0.429468999564686,0.4301669462138152,0.16251386010088797,1,True
2022-07-26,0.4301669462138152,0.42973941761177253,-0.09938666971175403,1,True
2022-07-27,0.42973941761177253,0.42727555533712014,-0.5733386730835677,1,True
2022-07-28,0.42727555533712014,0.4258824166409292,-0.32605157931203665,0,True
2022-07-29,0.4258824166409292,0.42616211369412405,0.06567471261220703,5,True
2022-07-30,0.42616211369412405,0.42986452219767357,0.8687793646074526,2,True
2022-07-31,0.42986452219767357,0.42661501677598673,-0.7559371043401764,6,True
2022-08-01,0.42661501677598673,0.4219362709051091,-1.0967138255553732,2,True
2022-08-02,0.4219362709051091,0.4150759195446976,-1.625921219262605,6,True
2022-08-03,0.4150759195446976,0.41643559276039,0.3275721745515492,2,True
2022-08-04,0.41643559276039,0.41643559276039,0.0,0,False
2022-08-05,0.41643559276039,0.421975149504338,1.3302313347493877,2,True
2022-08-06,0.421975149504338,0.42185312447359047,-0.028917586945786944,0,True
2022-08-07,0.42185312447359047,0.4227624219539959,0.21554835739099332,2,True
2022-08-08,0.4227624219539959,0.4233142936879766,0.13053944847556398,0,True
2022-08-09,0.4233142936879766,0.4199923057935029,-0.7847568447386988,7,True
2022-08-10,0.4199923057935029,0.4306783149896567,2.5443345148822294,2,True
2022-08-11,0.4306783149896567,0.433102413682914,0.5628559899319541,3,True
2022-08-12,0.433102413682914,0.4373628914379358,0.9837113856726143,5,True
2022-08-13,0.4373628914379358,0.4362598234627114,-0.2522088628959307,0,True
2022-08-14,0.4362598234627114,0.4362598234627114,0.0,0,False
2022-08-15,0.4362598234627114,0.4340814009585627,-0.49934061928004203,1,True
2022-08-16,0.4340814009585627,0.4296557968508604,-1.0195332253188916,3,True
2022-08-17,0.4296557968508604,0.4275200142986159,-0.4970915248667884,1,True
2022-08-18,0.4275200142986159,0.42539293236099224,-0.497539732990826,1,True
2022-08-19,0.42539293236099224,0.41329094976836117,-2.8448950774671578,12,True
2022-08-20,0.41329094976836117,0.4116575716053698,-0.3952126616628915,2,True
2022-08-21,0.4116575716053698,0.4157310934244559,0.9895413324235269,1,True
2022-08-22,0.4157310934244559,0.4137187080542555,-0.48405938406579363,0,True
2022-08-23,0.4137187080542555,0.4137187080542555,0.0,0,False
2022-08-24,0.4137187080542555,0.4137187080542555,0.0,0,False
2022-08-25,0.4137187080542555,0.4122957418056943,-0.3439453476139609,1,True
2022-08-26,0.4122957418056943,0.41541768426068093,0.7572094830069709,1,True
2022-08-27,0.41541768426068093,0.40913303314708477,-1.5128511259170252,7,True
2022-08-28,0.40913303314708477,0.4092914913021237,0.038730227627947755,1,True
2022-08-29,0.4092914913021237,0.40969684531380895,0.09903797667418779,2,True
2022-08-30,0.40969684531380895,0.40766193802865575,-0.4966861005713974,1,True
2022-08-31,0.40766193802865575,0.4069047488702073,-0.1857394786744182,2,True
2022-09-01,0.4069047488702073,0.4004478079198764,-1.5868433505037527,2,True
2022-09-02,0.4004478079198764,0.40052623812558247,0.01958562493162841,0,True
2022-09-03,0.40052623812558247,0.40052623812558247,0.0,0,False
2022-09-04,0.40052623812558247,0.40052623812558247,0.0,0,False
2022-09-05,0.40052623812558247,0.40052623812558247,0.0,0,False
2022-09-06,0.40052623812558247,0.39853373400259673,-0.49747155949393385,1,True
2022-09-07,0.39853373400259673,0.39428222016445447,-1.0667889504466843,5,True
2022-09-08,0.39428222016445447,0.39266977999100994,-0.40895584202909063,2,True
2022-09-09,0.39266977999100994,0.39222421220098336,-0.11347137282547992,0,True
2022-09-10,0.39222421220098336,0.3914004712402832,-0.21001787627481505,2,True
2022-09-11,0.3914004712402832,0.3938301630924241,0.6207687600481293,0,True
2022-09-12,0.3938301630924241,0.3938301630924241,0.0,0,False
2022-09-13,0.3938301630924241,0.38425609127004606,-2.4310153765777387,7,True
2022-09-14,0.38425609127004606,0.3878241356821626,0.9285589723050158,5,True
2022-09-15,0.3878241356821626,0.3874105804817018,-0.10663472497228765,3,True
2022-09-16,0.3874105804817018,0.3816379187777219,-1.4900629964215817,3,True
2022-09-17,0.3816379187777219,0.37973871847464713,-0.497644549880516,1,True
2022-09-18,0.37973871847464713,0.37973871847464713,0.0,0,False
2022-09-19,0.37973871847464713,0.38393537950024137,1.1051443588506293,9,True
2022-09-20,0.38393537950024137,0.38393083264449807,-0.0011842763095293307,0,True
2022-09-21,0.38393083264449807,0.38393083264449807,0.0,0,False
2022-09-22,0.38393083264449807,0.38549906178799664,0.40846658047666295,2,True
2022-09-23,0.38549906178799664,0.3803990364616799,-1.3229669879511907,3,True
2022-09-24,0.3803990364616799,0.380449941216495,0.01338193579263347,0,True
2022-09-25,0.380449941216495,0.380449941216495,0.0,0,False
2022-09-26,0.380449941216495,0.380449941216495,0.0,0,False
2022-09-27,0.380449941216495,0.380449941216495,0.0,0,False
2022-09-28,0.380449941216495,0.380449941216495,0.0,0,False
2022-09-29,0.380449941216495,0.380449941216495,0.0,0,False
2022-09-30,0.380449941216495,0.3791224833942666,-0.34891786761324095,1,True
2022-10-01,0.3791224833942666,0.3785486179065174,-0.15136677798989195,0,True
2022-10-02,0.3785486179065174,0.3785486179065174,0.0,0,False
2022-10-03,0.3785486179065174,0.3785486179065174,0.0,0,False
2022-10-04,0.3785486179065174,0.3785486179065174,0.0,0,False
2022-10-05,0.3785486179065174,0.3785486179065174,0.0,0,False
2022-10-06,0.3785486179065174,0.3785486179065174,0.0,0,False
2022-10-07,0.3785486179065174,0.3785486179065174,0.0,0,False
2022-10-08,0.3785486179065174,0.37666268340339504,-0.49820139710247124,1,True
2022-10-09,0.37666268340339504,0.37666268340339504,0.0,0,False
2022-10-10,0.37666268340339504,0.3754406651217671,-0.32443306318167275,2,True
2022-10-11,0.3754406651217671,0.38531094446286696,2.628985152127461,6,True
2022-10-12,0.38531094446286696,0.38480160774922745,-0.13218848853346898,2,True
2022-10-13,0.38480160774922745,0.3859139460341067,0.289067993084946,1,True
2022-10-14,0.3859139460341067,0.3859139460341067,0.0,0,False
2022-10-15,0.3859139460341067,0.3859139460341067,0.0,0,False
2022-10-16,0.3859139460341067,0.3859139460341067,0.0,0,False
2022-10-17,0.3859139460341067,0.3859139460341067,0.0,0,False
2022-10-18,0.3859139460341067,0.3859139460341067,0.0,0,False
2022-10-19,0.3859139460341067,0.3859139460341067,0.0,0,False
2022-10-20,0.3859139460341067,0.38956336346851944,0.9456557535472365,2,True
2022-10-21,0.38956336346851944,0.3863448936850326,-0.8261736306080847,0,True
2022-10-22,0.3863448936850326,0.3863448936850326,0.0,0,False
2022-10-23,0.3863448936850326,0.3863448936850326,0.0,0,False
2022-10-24,0.3863448936850326,0.3863448936850326,0.0,0,False
2022-10-25,0.3863448936850326,0.38441739095134164,-0.4989072627066604,1,True
2022-10-26,0.38441739095134164,0.38441739095134164,0.0,0,False
2022-10-27,0.38441739095134164,0.38441739095134164,0.0,0,False
2022-10-28,0.38441739095134164,0.3825029558244146,-0.49800950008771494,1,True
2022-10-29,0.3825029558244146,0.3825029558244146,0.0,0,False
2022-10-30,0.3825029558244146,0.37456152846517426,-2.076174115340912,6,True
2022-10-31,0.37456152846517426,0.3764447245029596,0.502773481703267,3,True
2022-11-01,0.3764447245029596,0.3743778664724473,-0.5490468841717222,1,True
2022-11-02,0.3743778664724473,0.3791618728535499,1.2778550255066135,3,True
2022-11-03,0.3791618728535499,0.3879752612265185,2.324439508286935,8,True
2022-11-04,0.3879752612265185,0.3910423291642718,0.7905318313485399,6,True
2022-11-05,0.3910423291642718,0.38307202714863753,-2.038219758118831,7,True
2022-11-06,0.38307202714863753,0.38124763004256695,-0.4762543273259423,2,True
2022-11-07,0.38124763004256695,0.3779063817207676,-0.8763984503789013,8,True
2022-11-08,0.3779063817207676,0.3631417946843886,-3.9069430288923956,12,True
2022-11-09,0.3631417946843886,0.34028311734079275,-6.2946974647913105,29,True
2022-11-10,0.34028311734079275,0.3418502212340123,0.460529427808809,19,True
2022-11-11,0.3418502212340123,0.34969056618697997,2.2935029629834736,15,True
2022-11-12,0.34969056618697997,0.341942785717683,-2.2156103762759893,4,True
2022-11-13,0.341942785717683,0.34226491784744023,0.0942064413147703,3,True
2022-11-14,0.34226491784744023,0.3364510678058249,-1.6986403626113922,11,True
2022-11-15,0.3364510678058249,0.3395573718692411,0.92325581953836,3,True
2022-11-16,0.3395573718692411,0.3443327807269252,1.4063628868947076,2,True
2022-11-17,0.3443327807269252,0.3425035754547528,-0.5312318125247129,3,True
2022-11-18,0.3425035754547528,0.34451555231823405,0.5874323679132099,0,True
2022-11-19,0.34451555231823405,0.3444589459591976,-0.016430712243764578,3,True
2022-11-20,0.3444589459591976,0.34006464665667996,-1.2757106047227462,3,True
2022-11-21,0.34006464665667996,0.32555867306177305,-4.265651762840184,10,True
2022-11-22,0.32555867306177305,0.32223453508259936,-1.021056495872541,5,True
2022-11-23,0.32223453508259936,0.32509892387441347,0.8889142782538384,1,True
2022-11-24,0.32509892387441347,0.3218596139921664,-0.9964074453529759,2,True
2022-11-25,0.3218596139921664,0.3214149075586949,-0.1381678266358488,3,True
2022-11-26,0.3214149075586949,0.3223213140955168,0.28200513277572004,0,True
2022-11-27,0.3223213140955168,0.3223213140955168,0.0,0,False
2022-11-28,0.3223213140955168,0.3176536926840249,-1.4481268248083379,8,True
2022-11-29,0.3176536926840249,0.3181940865483425,0.17012044146302863,0,True
2022-11-30,0.3181940865483425,0.3181940865483425,0.0,0,False
2022-12-01,0.3181940865483425,0.3184269306929937,0.07317676678941787,2,True
2022-12-02,0.3184269306929937,0.31830041486391514,-0.03973151039807776,2,True
2022-12-03,0.31830041486391514,0.31818507176806937,-0.03623718049349245,0,True
2022-12-04,0.31818507176806937,0.3179785614676839,-0.06490257359905716,3,True
2022-12-05,0.3179785614676839,0.32168500616762685,1.165627230601718,2,True
2022-12-06,0.32168500616762685,0.32376299255769775,0.6459693023392221,2,True
2022-12-07,0.32376299255769775,0.32269767372420444,-0.3290428053797645,2,True
2022-12-08,0.32269767372420444,0.3193685015282668,-1.0316691030078373,2,True
2022-12-09,0.3193685015282668,0.3193685015282668,0.0,0,False
2022-12-10,0.3193685015282668,0.3193685015282668,0.0,0,False
2022-12-11,0.3193685015282668,0.3193685015282668,0.0,0,False
2022-12-12,0.3193685015282668,0.31905005876492953,-0.09971013478581314,1,True
2022-12-13,0.31905005876492953,0.31964437052938127,0.18627539726912,1,True
2022-12-14,0.31964437052938127,0.319518375321364,-0.03941730861976023,0,True
2022-12-15,0.319518375321364,0.319518375321364,0.0,0,False
2022-12-16,0.319518375321364,0.32053592046420787,0.3184621672604804,5,True
2022-12-17,0.32053592046420787,0.31685870406104355,-1.147208836326019,7,True
2022-12-18,0.31685870406104355,0.3178125212734338,0.30102288501643315,0,True
2022-12-19,0.3178125212734338,0.31623004206715466,-0.4979285271512701,1,True
2022-12-20,0.31623004206715466,0.31623004206715466,0.0,0,False
2022-12-21,0.31623004206715466,0.31623004206715466,0.0,0,False
2022-12-22,0.31623004206715466,0.31623004206715466,0.0,0,False
2022-12-23,0.31623004206715466,0.31623004206715466,0.0,0,False
2022-12-24,0.31623004206715466,0.31623004206715466,0.0,0,False
2022-12-25,0.31623004206715466,0.31623004206715466,0.0,0,False
2022-12-26,0.31623004206715466,0.31623004206715466,0.0,0,False
2022-12-27,0.31623004206715466,0.31623004206715466,0.0,0,False
2022-12-28,0.31623004206715466,0.31964392080649967,1.0795554770915983,4,True
2022-12-29,0.31964392080649967,0.31656398101709077,-0.9635533757807235,0,True
2022-12-30,0.31656398101709077,0.31944226194657666,0.909225654870216,1,True
2022-12-31,0.31944226194657666,0.31944226194657666,0.0,0,False
2023-01-01,0.31944226194657666,0.31944226194657666,0.0,0,False
2023-01-02,0.31944226194657666,0.31961393775688685,0.05374235996955523,1,True
2023-01-03,0.31961393775688685,0.31965588567498465,0.013124558457056068,0,True
2023-01-04,0.31965588567498465,0.31965588567498465,0.0,0,False
2023-01-05,0.31965588567498465,0.31965588567498465,0.0,0,False
2023-01-06,0.31965588567498465,0.31914676586461466,-0.15927121419802015,1,True
2023-01-07,0.31914676586461466,0.3202117618726341,0.3337010184434108,0,True
2023-01-08,0.3202117618726341,0.3202117618726341,0.0,0,False
2023-01-09,0.3202117618726341,0.32030433593612745,0.028910263305736983,1,True
2023-01-10,0.32030433593612745,0.31649776096461874,-1.1884244277816425,6,True
2023-01-11,0.31649776096461874,0.31422449819420073,-0.7182555615842467,3,True
2023-01-12,0.31422449819420073,0.31357597108663127,-0.20638973450397557,0,True
2023-01-13,0.31357597108663127,0.313566071514186,-0.0031569933152009177,1,True
2023-01-14,0.313566071514186,0.3118280779899408,-0.5542670850365194,6,True
2023-01-15,0.3118280779899408,0.31356720300878543,0.5577191861794839,3,True
2023-01-16,0.31356720300878543,0.31363848257850413,0.022731831975653094,2,True
2023-01-17,0.31363848257850413,0.31279432673242913,-0.2691493209426854,0,True
2023-01-18,0.31279432673242913,0.31279432673242913,0.0,0,False
2023-01-19,0.31279432673242913,0.30711642980012005,-1.8152173639536806,8,True
2023-01-20,0.30711642980012005,0.3082953365678976,0.383863138987639,0,True
2023-01-21,0.3082953365678976,0.3080009398620346,-0.09549178042729256,4,True
2023-01-22,0.3080009398620346,0.3087854070042407,0.2546963468869512,2,True
2023-01-23,0.3087854070042407,0.3067330433123556,-0.6646569576576056,2,True
2023-01-24,0.3067330433123556,0.3099784786300455,1.058065111812878,4,True
2023-01-25,0.3099784786300455,0.3106918253590157,0.2301278243969751,11,True
2023-01-26,0.3106918253590157,0.3183721414984008,2.4720045757593567,4,True
2023-01-27,0.3183721414984008,0.31626047288576725,-0.6632705370184455,3,True
2023-01-28,0.31626047288576725,0.31988448076633774,1.1458933984075381,0,True
2023-01-29,0.31988448076633774,0.3182879036476732,-0.4991105272877605,1,True
2023-01-30,0.3182879036476732,0.31995317655692185,0.5231970458707824,5,True
2023-01-31,0.31995317655692185,0.3255243626297319,1.7412504331923317,6,True
2023-02-01,0.3255243626297319,0.3222824460166428,-0.9959059859297237,2,True
2023-02-02,0.3222824460166428,0.3222824460166428,0.0,0,False
2023-02-03,0.3222824460166428,0.32365958651840865,0.4273085669998622,4,True
2023-02-04,0.32365958651840865,0.3261758313741499,0.7774356022660633,0,True
2023-02-05,0.3261758313741499,0.3280366267542912,0.5704884302132118,6,True
2023-02-06,0.3280366267542912,0.3172491077647468,-3.2885105228278477,3,True
2023-02-07,0.3172491077647468,0.3166835062008146,-0.17828310626853971,0,True
2023-02-08,0.3166835062008146,0.3102685633399827,-2.0256637100525388,5,True
2023-02-09,0.3102685633399827,0.3052676662720013,-1.611796249722397,10,True
2023-02-10,0.3052676662720013,0.29567286506152285,-3.1430781149056397,10,True
2023-02-11,0.29567286506152285,0.3015342602511038,1.9823919886464259,3,True
2023-02-12,0.3015342602511038,0.30280094173466715,0.4200787938685613,2,True
2023-02-13,0.30280094173466715,0.3082921271100244,1.8134637705879308,3,True
2023-02-14,0.3082921271100244,0.30805698698901257,-0.07627185397696135,1,True
2023-02-15,0.30805698698901257,0.3087249387364949,0.21682733250460995,0,True
2023-02-16,0.3087249387364949,0.3087249387364949,0.0,0,False
2023-02-17,0.3087249387364949,0.31147265984739847,0.8900224005708779,1,True
2023-02-18,0.31147265984739847,0.3119389018026544,0.1496895282829369,1,True
2023-02-19,0.3119389018026544,0.31287948941677357,0.3015294369133281,2,True
2023-02-20,0.31287948941677357,0.31165363042130073,-0.3917990910039859,6,True
2023-02-21,0.31165363042130073,0.30729540970034264,-1.3984180819798353,10,True
2023-02-22,0.30729540970034264,0.30214397501490586,-1.6763786645756173,4,True
2023-02-23,0.30214397501490586,0.3050012055534085,0.9456519986412726,2,True
2023-02-24,0.3050012055534085,0.30315165753801515,-0.6064067884706925,1,True
2023-02-25,0.30315165753801515,0.29941005806308363,-1.2342335533700122,3,True
2023-02-26,0.29941005806308363,0.29897732367407326,-0.14452900874799557,2,True
2023-02-27,0.29897732367407326,0.29748478837092657,-0.4992135473035897,1,True
2023-02-28,0.29748478837092657,0.29476845104305754,-0.9131012522502813,3,True
2023-03-01,0.29476845104305754,0.29312273392459176,-0.5583084324805809,1,True
2023-03-02,0.29312273392459176,0.29166628828470226,-0.4968722897706668,1,True
2023-03-03,0.29166628828470226,0.2921258085978162,0.15755002603021762,9,True
2023-03-04,0.2921258085978162,0.29330080395425,0.4022223719546414,0,True
2023-03-05,0.29330080395425,0.299666074560661,2.1702192836143386,4,True
2023-03-06,0.299666074560661,0.299666074560661,0.0,0,False
2023-03-07,0.299666074560661,0.299666074560661,0.0,0,False
2023-03-08,0.299666074560661,0.299666074560661,0.0,0,False
2023-03-09,0.299666074560661,0.299666074560661,0.0,0,False
2023-03-10,0.299666074560661,0.29150371904545175,-2.7238170110433946,12,True
2023-03-11,0.29150371904545175,0.292760540104255,0.4311509516649714,7,True
2023-03-12,0.292760540104255,0.2965110230577447,1.2810752952409743,0,True
2023-03-13,0.2965110230577447,0.2965110230577447,0.0,0,False
2023-03-14,0.2965110230577447,0.2992040441233986,0.9082364081720806,1,True
2023-03-15,0.2992040441233986,0.29803782127710865,-0.38977509468722804,7,True
2023-03-16,0.29803782127710865,0.2985915456104949,0.18578995478275573,8,True
2023-03-17,0.2985915456104949,0.29751137921379395,-0.36175384486940576,3,True
2023-03-18,0.29751137921379395,0.2987305473231088,0.4097887322954241,3,True
2023-03-19,0.2987305473231088,0.3027168863171475,1.3344263014813285,3,True
2023-03-20,0.3027168863171475,0.306713027667295,1.32009198388785,5,True
2023-03-21,0.306713027667295,0.30354596970028075,-1.0325801910343713,4,True
2023-03-22,0.30354596970028075,0.30330464897510667,-0.07950055321517269,0,True
2023-03-23,0.30330464897510667,0.31336986680694084,3.3185174925097316,8,True
2023-03-24,0.31336986680694084,0.31260804037121714,-0.24310775106946014,1,True
2023-03-25,0.31260804037121714,0.31104802974180573,-0.49903087187358475,1,True
2023-03-26,0.31104802974180573,0.31104802974180573,0.0,0,False
2023-03-27,0.31104802974180573,0.30949984729464763,-0.4977309930055518,1,True
2023-03-28,0.30949984729464763,0.31856050679396963,2.9275166299827404,4,True
2023-03-29,0.31856050679396963,0.31909233777257084,0.16694818323639282,1,True
2023-03-30,0.31909233777257084,0.3169999745970898,-0.655723415387166,3,True
2023-03-31,0.3169999745970898,0.3169999745970898,0.0,0,False
2023-04-01,0.3169999745970898,0.31666007919414313,-0.1072225331811616,1,True
2023-04-02,0.31666007919414313,0.3154171194357234,-0.39252177337378846,0,True
2023-04-03,0.3154171194357234,0.3154171194357234,0.0,0,False
2023-04-04,0.3154171194357234,0.3122800411929384,-0.9945808421550573,2,True
2023-04-05,0.3122800411929384,0.3108294416930463,-0.4645187999689826,2,True
2023-04-06,0.3108294416930463,0.3020029223121209,-2.839666452717149,6,True
2023-04-07,0.3020029223121209,0.29957547103339033,-0.8037840363086857,1,True
2023-04-08,0.29957547103339033,0.3005182109546621,0.3146919599324116,1,True
2023-04-09,0.3005182109546621,0.3006197324851968,0.03378215590070788,0,True
2023-04-10,0.3006197324851968,0.3006197324851968,0.0,0,False
2023-04-11,0.3006197324851968,0.3006197324851968,0.0,0,False
2023-04-12,0.3006197324851968,0.3032474928672831,0.8741144037228699,1,True
2023-04-13,0.3032474928672831,0.3032474928672831,0.0,0,False
2023-04-14,0.3032474928672831,0.30598744563072233,0.9035368231843588,2,True
2023-04-15,0.30598744563072233,0.3048813405709353,-0.36148707261732804,1,True
2023-04-16,0.3048813405709353,0.3041659900623708,-0.23463243346573126,1,True
2023-04-17,0.3041659900623708,0.3036390752127137,-0.1732326646871396,4,True
2023-04-18,0.3036390752127137,0.30315415991798683,-0.15970121578956498,0,True
2023-04-19,0.30315415991798683,0.29741978970033445,-1.8915690351086423,10,True
2023-04-20,0.29741978970033445,0.2914955750475173,-1.991869693266246,0,True
2023-04-21,0.2914955750475173,0.29004155885667743,-0.49881244015550497,1,True
2023-04-22,0.29004155885667743,0.2896323312529995,-0.14109274729149357,1,True
2023-04-23,0.2896323312529995,0.2896729235582683,0.014015115333698702,0,True
2023-04-24,0.2896729235582683,0.2896729235582683,0.0,0,False
2023-04-25,0.2896729235582683,0.2896729235582683,0.0,0,False
2023-04-26,0.2896729235582683,0.2896729235582683,0.0,0,False
2023-04-27,0.2896729235582683,0.28769007252303236,-0.6845137650005717,12,True
2023-04-28,0.28769007252303236,0.28769007252303236,0.0,0,False
2023-04-29,0.28769007252303236,0.2862574278250672,-0.4979819725445922,1,True
2023-04-30,0.2862574278250672,0.2862574278250672,0.0,0,False
2023-05-01,0.2862574278250672,0.2862574278250672,0.0,0,False
2023-05-02,0.2862574278250672,0.2862574278250672,0.0,0,False
2023-05-03,0.2862574278250672,0.2862574278250672,0.0,0,False
2023-05-04,0.2862574278250672,0.2862574278250672,0.0,0,False
2023-05-05,0.2862574278250672,0.2862574278250672,0.0,0,False
2023-05-06,0.2862574278250672,0.28341315193960537,-0.9936077142424282,2,True
2023-05-07,0.28341315193960537,0.28341315193960537,0.0,0,False
2023-05-08,0.28341315193960537,0.2773288446434941,-2.1467977948347983,8,True
2023-05-09,0.2773288446434941,0.27512664854280716,-0.794073946227214,6,True
2023-05-10,0.27512664854280716,0.27371492755826937,-0.5131167744073073,2,True
2023-05-11,0.27371492755826937,0.2798233536259806,2.2316744366859043,5,True
2023-05-12,0.2798233536259806,0.27864706692258606,-0.4203675955391506,0,True
2023-05-13,0.27864706692258606,0.27725587554347064,-0.49926647155482673,1,True
2023-05-14,0.27725587554347064,0.27725587554347064,0.0,0,False
2023-05-15,0.27725587554347064,0.27725587554347064,0.0,0,False
2023-05-16,0.27725587554347064,0.27725587554347064,0.0,0,False
2023-05-17,0.27725587554347064,0.27725587554347064,0.0,0,False
2023-05-18,0.27725587554347064,0.2758729519277949,-0.49878965160431443,1,True
2023-05-19,0.2758729519277949,0.2758729519277949,0.0,0,False
2023-05-20,0.2758729519277949,0.2758729519277949,0.0,0,False
2023-05-21,0.2758729519277949,0.2758729519277949,0.0,0,False
2023-05-22,0.2758729519277949,0.27449664369871823,-0.4988920513805395,1,True
2023-05-23,0.27449664369871823,0.27449664369871823,0.0,0,False
2023-05-24,0.27449664369871823,0.2731291329549168,-0.4981885116607798,1,True
2023-05-25,0.2731291329549168,0.2737414473707349,0.22418495207510158,1,True
2023-05-26,0.2737414473707349,0.27480244303423174,0.3875904338519476,1,True
2023-05-27,0.27480244303423174,0.27235400500768525,-0.8909811716053317,3,True
2023-05-28,0.27235400500768525,0.27235400500768525,0.0,0,False
2023-05-29,0.27235400500768525,0.2736943982936273,0.49215111997498173,1,True
2023-05-30,0.2736943982936273,0.27922436777364174,2.0204905597233758,4,True
2023-05-31,0.27922436777364174,0.2777056766241393,-0.5438963517444773,2,True
2023-06-01,0.2777056766241393,0.28049255015269114,1.0035349519785797,0,True
2023-06-02,0.28049255015269114,0.2826606329095745,0.7729555582503433,3,True
2023-06-03,0.2826606329095745,0.276467928105302,-2.1908621446600884,3,True
2023-06-04,0.276467928105302,0.2735542005603765,-1.0539115928903442,4,True
2023-06-05,0.2735542005603765,0.2734508524153876,-0.03777976897346713,1,True
2023-06-06,0.2734508524153876,0.2657668165035141,-2.8100244866675395,12,True
2023-06-07,0.2657668165035141,0.26457836499436654,-0.4471782913996081,2,True
2023-06-08,0.26457836499436654,0.2606138228627951,-1.498437762156346,3,True
2023-06-09,0.2606138228627951,0.25950017674091497,-0.4273165980403282,1,True
2023-06-10,0.25950017674091497,0.2679676749914379,3.2630028838003033,8,True
2023-06-11,0.2679676749914379,0.26960458581267294,0.610861299329235,1,True
2023-06-12,0.26960458581267294,0.269377364654288,-0.08427941153151819,0,True
2023-06-13,0.269377364654288,0.26843282559307763,-0.3506378727932802,2,True
2023-06-14,0.26843282559307763,0.2684109986115599,-0.008131263927757537,0,True
2023-06-15,0.2684109986115599,0.2701470053077338,0.6467718182764148,7,True
2023-06-16,0.2701470053077338,0.27269551488891614,0.9433788015822175,0,True
2023-06-17,0.27269551488891614,0.2733604821401828,0.2438497206444845,1,True
2023-06-18,0.2733604821401828,0.2738749676427236,0.18820770965606304,0,True
2023-06-19,0.2738749676427236,0.2764004845242017,0.9221422838368465,1,True
2023-06-20,0.2764004845242017,0.27502510285533927,-0.4976046518984978,1,True
2023-06-21,0.27502510285533927,0.27502510285533927,0.0,0,False
2023-06-22,0.27502510285533927,0.27449692444881485,-0.1920473444208537,6,True
2023-06-23,0.27449692444881485,0.2723456561799633,-0.7837130682506688,0,True
2023-06-24,0.2723456561799633,0.27240214083620873,0.020740061375557062,1,True
2023-06-25,0.27240214083620873,0.26919908174118967,-1.1758567995047486,7,True
2023-06-26,0.26919908174118967,0.26993926069376356,0.2749559722813322,0,True
2023-06-27,0.26993926069376356,0.26993926069376356,0.0,0,False
2023-06-28,0.26993926069376356,0.26993926069376356,0.0,0,False
2023-06-29,0.26993926069376356,0.269509476213455,-0.1592152542775671,2,True
2023-06-30,0.269509476213455,0.2658767252380073,-1.3479121500612812,10,True
2023-07-01,0.2658767252380073,0.2731089438945904,2.720139812956157,1,True
2023-07-02,0.2731089438945904,0.27309980115294885,-0.0033476536912990795,0,True
2023-07-03,0.27309980115294885,0.27309980115294885,0.0,0,False
2023-07-04,0.27309980115294885,0.27262276765012056,-0.17467369101493713,1,True
2023-07-05,0.27262276765012056,0.26901928643725465,-1.3217829324844055,2,True
2023-07-06,0.26901928643725465,0.2694768246934445,0.1700763771435465,4,True
2023-07-07,0.2694768246934445,0.2674725841083895,-0.7437524868177725,0,True
2023-07-08,0.2674725841083895,0.2674725841083895,0.0,0,False
2023-07-09,0.2674725841083895,0.2674725841083895,0.0,0,False
2023-07-10,0.2674725841083895,0.2674711566238329,-0.0005336937844768741,1,True
2023-07-11,0.2674711566238329,0.26652511633262777,-0.3536980596886008,0,True
2023-07-12,0.26652511633262777,0.26577145583227324,-0.28277278731733135,1,True
2023-07-13,0.26577145583227324,0.265451826104087,-0.12026488216549946,0,True
2023-07-14,0.265451826104087,0.2641278068904169,-0.4987794708750326,1,True
2023-07-15,0.2641278068904169,0.26577231824520625,0.6226195470102835,7,True
2023-07-16,0.26577231824520625,0.26482920019622125,-0.35485939815405043,2,True
2023-07-17,0.26482920019622125,0.2631141131077689,-0.6476200838810842,3,True
2023-07-18,0.2631141131077689,0.2589079870281422,-1.5985938686245538,2,True
2023-07-19,0.2589079870281422,0.25761871049957136,-0.4979670744690967,1,True
2023-07-20,0.25761871049957136,0.25618430505692513,-0.5567939688327139,2,True
2023-07-21,0.25618430505692513,0.256009460783768,-0.06824940861160922,0,True
2023-07-22,0.256009460783768,0.256009460783768,0.0,0,False
2023-07-23,0.256009460783768,0.256009460783768,0.0,0,False
2023-07-24,0.256009460783768,0.2501773915953755,-2.2780678380157293,7,True
2023-07-25,0.2501773915953755,0.24998864841969906,-0.07544373793044734,0,True
2023-07-26,0.24998864841969906,0.24998864841969906,0.0,0,False
2023-07-27,0.24998864841969906,0.24998864841969906,0.0,0,False
2023-07-28,0.24998864841969906,0.24998864841969906,0.0,0,False
2023-07-29,0.24998864841969906,0.24998864841969906,0.0,0,False
2023-07-30,0.24998864841969906,0.24998864841969906,0.0,0,False
2023-07-31,0.24998864841969906,0.24874457919009815,-0.49765028830920377,1,True
2023-08-01,0.24874457919009815,0.2519229511947099,1.2777653346096596,3,True
2023-08-02,0.2519229511947099,0.2519229511947099,0.0,0,False
2023-08-03,0.2519229511947099,0.2519229511947099,0.0,0,False
2023-08-04,0.2519229511947099,0.2519229511947099,0.0,0,False
2023-08-05,0.2519229511947099,0.2519229511947099,0.0,0,False
2023-08-06,0.2519229511947099,0.2523557648399464,0.1718039754551537,1,True
2023-08-07,0.2523557648399464,0.24935023135904943,-1.1909906170771145,3,True
2023-08-08,0.24935023135904943,0.24379185238174347,-2.2291453057856736,5,True
2023-08-09,0.24379185238174347,0.24247513782264274,-0.5400978524249256,0,True
2023-08-10,0.24247513782264274,0.24126762154676068,-0.4979959127872746,1,True
2023-08-11,0.24126762154676068,0.24126762154676068,0.0,0,False
2023-08-12,0.24126762154676068,0.24126762154676068,0.0,0,False
2023-08-13,0.24126762154676068,0.24563654389302544,1.8108200007343367,2,True
2023-08-14,0.24563654389302544,0.24424940179565965,-0.5647132447726855,8,True
2023-08-15,0.24424940179565965,0.24259932839059725,-0.6755690670812164,2,True
2023-08-16,0.24259932839059725,0.24716851252104383,1.8834281862025515,8,True
2023-08-17,0.24716851252104383,0.24335688001070746,-1.5421189663112345,6,True
2023-08-18,0.24335688001070746,0.25267035358402895,3.8270845570142598,10,True
2023-08-19,0.25267035358402895,0.25794802993853017,2.088759634693771,3,True
2023-08-20,0.25794802993853017,0.25608147432050926,-0.7236169310793739,1,True
2023-08-21,0.25608147432050926,0.25515177122406013,-0.3630497281835843,1,True
2023-08-22,0.25515177122406013,0.25512939764022485,-0.008768735458097865,4,True
2023-08-23,0.25512939764022485,0.25797427367635095,1.1150718272528781,1,True
2023-08-24,0.25797427367635095,0.25797427367635095,0.0,0,False
2023-08-25,0.25797427367635095,0.2609877017622903,1.1681118597585138,10,True
2023-08-26,0.2609877017622903,0.2611644713123725,0.06773098842918213,0,True
2023-08-27,0.2611644713123725,0.2611644713123725,0.0,0,False
2023-08-28,0.2611644713123725,0.2585695873723979,-0.9935822920074666,2,True
2023-08-29,0.2585695873723979,0.25980775163269465,0.4788514662064758,3,True
2023-08-30,0.25980775163269465,0.25719467241992605,-1.0057741527523256,3,True
2023-08-31,0.25719467241992605,0.25987859735009733,1.0435383069635318,3,True
2023-09-01,0.25987859735009733,0.2573279247594518,-0.9814862080425035,3,True
2023-09-02,0.2573279247594518,0.2574813133990034,0.05960823711415042,7,True
2023-09-03,0.2574813133990034,0.254981524549157,-0.9708622411648937,3,True
2023-09-04,0.254981524549157,0.2520321234032389,-1.1567117073023603,7,True
2023-09-05,0.2520321234032389,0.251256603586242,-0.30770673457211073,2,True
2023-09-06,0.251256603586242,0.2543057313970192,1.2135513125849373,5,True
2023-09-07,0.2543057313970192,0.2569720296291338,1.048461714750748,3,True
2023-09-08,0.2569720296291338,0.2544095659778162,-0.9971760953967457,9,True
2023-09-09,0.2544095659778162,0.2534234849129849,-0.38759590703335567,7,True
2023-09-10,0.2534234849129849,0.24525846706062043,-3.2218868173042425,7,True
2023-09-11,0.24525846706062043,0.24339828519332707,-0.7584577566627226,2,True
2023-09-12,0.24339828519332707,0.2443843834773967,0.40513772859425146,2,True
2023-09-13,0.2443843834773967,0.24321817680208424,-0.47720179936141527,2,True
2023-09-14,0.24321817680208424,0.2427144038354826,-0.20712800878018855,4,True
2023-09-15,0.2427144038354826,0.24690227699642173,1.7254324814516497,1,True
2023-09-16,0.24690227699642173,0.24890135424506749,0.8096633506035733,8,True
2023-09-17,0.24890135424506749,0.2505890478899194,0.6780572367598436,5,True
2023-09-18,0.2505890478899194,0.24314406984033154,-2.97099099592667,4,True
2023-09-19,0.24314406984033154,0.24539678227241943,0.9264928540380302,1,True
2023-09-20,0.24539678227241943,0.24727922319590062,0.7671008992250927,3,True
2023-09-21,0.24727922319590062,0.25138686812286676,1.661136295188026,2,True
2023-09-22,0.25138686812286676,0.2519406888139152,0.22030613420018774,1,True
2023-09-23,0.2519406888139152,0.25068424290118924,-0.49870702451478843,1,True
2023-09-24,0.25068424290118924,0.24943636750196566,-0.4977877288104837,1,True
2023-09-25,0.24943636750196566,0.2493583603225808,-0.03127337852377732,1,True
2023-09-26,0.2493583603225808,0.24978223472881908,0.16998604165103792,1,True
2023-09-27,0.24978223472881908,0.24805146258270558,-0.6929124274961174,1,True
2023-09-28,0.24805146258270558,0.24920386362353283,0.46458143355756487,2,True
2023-09-29,0.24920386362353283,0.2476513439142449,-0.622991829546149,2,True
2023-09-30,0.2476513439142449,0.2476513439142449,0.0,0,False
2023-10-01,0.2476513439142449,0.24740672236681946,-0.09877658790745647,1,True
2023-10-02,0.24740672236681946,0.24989229618621986,1.0046508824101963,1,True
2023-10-03,0.24989229618621986,0.2520431483642175,0.8607116789205893,3,True
2023-10-04,0.2520431483642175,0.24517348293204763,-2.7255910254869398,7,True
2023-10-05,0.24517348293204763,0.2425993503852941,-1.049922901926137,2,True
2023-10-06,0.2425993503852941,0.24259088646750793,-0.0034888460223481133,0,True
2023-10-07,0.24259088646750793,0.2413834135717268,-0.49774041942126646,1,True
2023-10-08,0.2413834135717268,0.24075993797108966,-0.25829264381161954,1,True
2023-10-09,0.24075993797108966,0.235806409842306,-2.0574553102678084,5,True
2023-10-10,0.235806409842306,0.23304775099136077,-1.1698828936796302,1,True
2023-10-11,0.23304775099136077,0.23304775099136077,0.0,0,False
2023-10-12,0.23304775099136077,0.23304775099136077,0.0,0,False
2023-10-13,0.23304775099136077,0.23304775099136077,0.0,0,False
2023-10-14,0.23304775099136077,0.23304775099136077,0.0,0,False
2023-10-15,0.23304775099136077,0.23306360310862,0.006802089782809162,1,True
2023-10-16,0.23306360310862,0.23374414786734143,0.2919995870845016,2,True
2023-10-17,0.23374414786734143,0.23461124600245353,0.37096036115702447,2,True
2023-10-18,0.23461124600245353,0.23163251446634853,-1.2696456742205209,4,True
2023-10-19,0.23163251446634853,0.2270457490152356,-1.9801906747333065,5,True
2023-10-20,0.2270457490152356,0.2270457490152356,0.0,0,False
2023-10-21,0.2270457490152356,0.22734008473786813,0.12963718717886596,2,True
2023-10-22,0.22734008473786813,0.2291421999181857,0.7926957458450401,1,True
2023-10-23,0.2291421999181857,0.2291421999181857,0.0,0,False
2023-10-24,0.2291421999181857,0.22504211890641473,-1.7893172943416302,8,True
2023-10-25,0.22504211890641473,0.23381924448876767,3.9002146020509887,9,True
2023-10-26,0.23381924448876767,0.2369851680242881,1.3540046895808455,7,True
2023-10-27,0.2369851680242881,0.23716771611802823,0.07702933278990187,5,True
2023-10-28,0.23716771611802823,0.24087359599505687,1.5625566319424244,2,True
2023-10-29,0.24087359599505687,0.24087359599505687,0.0,0,False
2023-10-30,0.24087359599505687,0.23994537170386615,-0.3853574267267401,2,True
2023-10-31,0.23994537170386615,0.23584716731114103,-1.7079739290754126,7,True
2023-11-01,0.23584716731114103,0.23721344907337563,0.5793081077934525,5,True
2023-11-02,0.23721344907337563,0.23821328621861404,0.4214926047169998,5,True
2023-11-03,0.23821328621861404,0.23435751722388995,-1.6186204623303668,2,True
2023-11-04,0.23435751722388995,0.23233708459892835,-0.8621155612565268,4,True
2023-11-05,0.23233708459892835,0.22999251499925177,-1.0091241369081905,7,True
2023-11-06,0.22999251499925177,0.22898845795199893,-0.43656074949052215,5,True
2023-11-07,0.22898845795199893,0.22796696044720258,-0.4460912632594294,5,True
2023-11-08,0.22796696044720258,0.22796696044720258,0.0,0,False
2023-11-09,0.22796696044720258,0.22881932332260088,0.3738975480158224,6,True
2023-11-10,0.22881932332260088,0.22783694244744263,-0.429326011847897,12,True
2023-11-11,0.22783694244744263,0.22737772104802,-0.20155704096518345,6,True
2023-11-12,0.22737772104802,0.2258611681667702,-0.6669751435012028,6,True
2023-11-13,0.2258611681667702,0.2272326007990386,0.6072016023824567,4,True
2023-11-14,0.2272326007990386,0.22531956361734184,-0.8418850002023359,8,True
2023-11-15,0.22531956361734184,0.22411581247366258,-0.5342417339861294,3,True
2023-11-16,0.22411581247366258,0.2219965943624787,-0.9455906246833456,5,True
2023-11-17,0.2219965943624787,0.2246404663902463,1.190951615884095,5,True
2023-11-18,0.2246404663902463,0.21696668829120416,-3.416026605692324,7,True
2023-11-19,0.21696668829120416,0.21240741012874326,-2.1013724265089073,4,True
2023-11-20,0.21240741012874326,0.2132815018239731,0.411516573127102,2,True
2023-11-21,0.2132815018239731,0.2089111525433309,-2.049099074822325,6,True
2023-11-22,0.2089111525433309,0.20728049304251503,-0.7805516751805075,6,True
2023-11-23,0.20728049304251503,0.20781549351688963,0.25810459369415284,3,True
2023-11-24,0.20781549351688963,0.20967930856005962,0.8968604850525752,1,True
2023-11-25,0.20967930856005962,0.2097420078787657,0.029902482575261402,6,True
2023-11-26,0.2097420078787657,0.2090957573157823,-0.30811689537983966,1,True
2023-11-27,0.2090957573157823,0.20926692917503958,0.08186290408502828,7,True
2023-11-28,0.20926692917503958,0.20987541013311287,0.29076785351225265,5,True
2023-11-29,0.20987541013311287,0.2114174258943039,0.7347291234418574,5,True
2023-11-30,0.2114174258943039,0.20859485364285377,-1.335070767941926,3,True
2023-12-01,0.20859485364285377,0.20853049947985605,-0.030851270716347745,0,True
2023-12-02,0.20853049947985605,0.2105065527055987,0.9476087338166739,1,True
2023-12-03,0.2105065527055987,0.211985458105345,0.702546016139749,5,True
2023-12-04,0.211985458105345,0.21834670557660546,3.0007942658497155,7,True
2023-12-05,0.21834670557660546,0.2166625543691322,-0.7713197243007563,7,True
2023-12-06,0.2166625543691322,0.21253939144366302,-1.9030343925718118,7,True
2023-12-07,0.21253939144366302,0.2102614194477346,-1.0717881426381304,5,True
2023-12-08,0.2102614194477346,0.20798155354482664,-1.0843006334191885,2,True
2023-12-09,0.20798155354482664,0.20798155354482664,0.0,0,False
2023-12-10,0.20798155354482664,0.20806023905588342,0.037832927832148755,3,True
2023-12-11,0.20806023905588342,0.21073038600855934,1.2833528235823843,7,True
2023-12-12,0.21073038600855934,0.21238348427739667,0.7844612730743883,1,True
2023-12-13,0.21238348427739667,0.2102722143672589,-0.9940838466423352,6,True
2023-12-14,0.2102722143672589,0.2137779750544044,1.6672486651148288,2,True
2023-12-15,0.2137779750544044,0.21110656785340567,-1.2496175999042403,4,True
2023-12-16,0.21110656785340567,0.21402997119989037,1.3847998080830592,5,True
2023-12-17,0.21402997119989037,0.21237247040415505,-0.7744246221419671,6,True
2023-12-18,0.21237247040415505,0.21247506724140683,0.04830985723174308,8,True
2023-12-19,0.21247506724140683,0.21062193215863192,-0.8721659001380333,4,True
2023-12-20,0.21062193215863192,0.20944851917464305,-0.5571181367309386,2,True
2023-12-21,0.20944851917464305,0.2053641563411319,-1.9500557223350534,3,True
2023-12-22,0.2053641563411319,0.20411901688592107,-0.6063080711818603,2,True
2023-12-23,0.20411901688592107,0.2045216772709288,0.19726745266108736,3,True
2023-12-24,0.2045216772709288,0.2121435780720055,3.7266958215778967,4,True
2023-12-25,0.2121435780720055,0.2094167388413686,-1.2853743938038842,6,True
2023-12-26,0.2094167388413686,0.20512825365061343,-2.047823499917867,3,True
2023-12-27,0.20512825365061343,0.20536130023296026,0.11361018201996309,12,True
2023-12-28,0.20536130023296026,0.2011863690118402,-2.0329688292701986,8,True
2023-12-29,0.2011863690118402,0.2014238606868398,0.11804560923589502,3,True
2023-12-30,0.2014238606868398,0.20177729798477617,0.17546942886070838,5,True
2023-12-31,0.20177729798477617,0.19923693707988477,-1.2589924289119314,3,True
