day,start_equity,end_equity,return_pct,entries,active
2024-01-02,1.0121101055005912,1.0099256271790267,-0.2158340589321628,0,True
2024-01-03,1.0099256271790267,1.0326229911413602,2.247429251373001,4,True
2024-01-04,1.0326229911413602,1.0313111960587784,-0.12703523878854206,2,True
2024-01-05,1.0313111960587784,1.0313111960587784,0.0,0,False
2024-01-06,1.0313111960587784,1.0450639385798801,1.3335201415109799,3,True
2024-01-07,1.0450639385798801,1.0651112589091394,1.9182864884325967,2,True
2024-01-08,1.0651112589091394,1.050201520040834,-1.3998292425878245,5,True
2024-01-09,1.050201520040834,1.0485929649326675,-0.1531663283161011,1,True
2024-01-10,1.0485929649326675,1.0315525691784853,-1.6250724851350151,4,True
2024-01-11,1.0315525691784853,1.0315525691784853,0.0,0,False
2024-01-12,1.0315525691784853,1.0412178886001922,0.9369681885823988,1,True
2024-01-13,1.0412178886001922,1.0412178886001922,0.0,0,False
2024-01-14,1.0412178886001922,1.036013672372102,-0.49982009386014825,1,True
2024-01-15,1.036013672372102,1.0414590118010276,0.5256049774379656,1,True
2024-01-16,1.0414590118010276,1.0414590118010276,0.0,0,False
2024-01-17,1.0414590118010276,1.0414590118010276,0.0,0,False
2024-01-18,1.0414590118010276,1.0362543449412975,-0.49974764256247584,1,True
2024-01-19,1.0362543449412975,1.0362543449412975,0.0,0,False
2024-01-20,1.0362543449412975,1.0362543449412975,0.0,0,False
2024-01-21,1.0362543449412975,1.0362543449412975,0.0,0,False
2024-01-22,1.0362543449412975,1.0362543449412975,0.0,0,False
2024-01-23,1.0362543449412975,1.030253161384718,-0.5791226435744923,3,True
2024-01-24,1.030253161384718,1.028725589326404,-0.14827152350211925,0,True
2024-01-25,1.028725589326404,1.0235862669939628,-0.4995814613502847,1,True
2024-01-26,1.0235862669939628,1.0235862669939628,0.0,0,False
2024-01-27,1.0235862669939628,1.0235862669939628,0.0,0,False
2024-01-28,1.0235862669939628,1.0188115824717383,-0.4664662545978304,2,True
2024-01-29,1.0188115824717383,1.018697295589959,-0.0112176661264618,0,True
2024-01-30,1.018697295589959,1.018697295589959,0.0,0,False
2024-01-31,1.018697295589959,1.018697295589959,0.0,0,False
2024-02-01,1.018697295589959,1.018697295589959,0.0,0,False
2024-02-02,1.018697295589959,1.0196927854714661,0.09772185376526465,1,True
2024-02-03,1.0196927854714661,1.0183333380799153,-0.13331931057276591,0,True
2024-02-04,1.0183333380799153,1.0183333380799153,0.0,0,False
2024-02-05,1.0183333380799153,1.0183333380799153,0.0,0,False
2024-02-06,1.0183333380799153,1.0106805602414621,-0.7515002752323308,2,True
2024-02-07,1.0106805602414621,1.003162368731804,-0.743874158207003,1,True
2024-02-08,1.003162368731804,1.003162368731804,0.0,0,False
2024-02-09,1.003162368731804,1.003162368731804,0.0,0,False
2024-02-10,1.003162368731804,1.003162368731804,0.0,0,False
2024-02-11,1.003162368731804,1.003162368731804,0.0,0,False
2024-02-12,1.003162368731804,1.003162368731804,0.0,0,False
2024-02-13,1.003162368731804,1.003162368731804,0.0,0,False
2024-02-14,1.003162368731804,1.003162368731804,0.0,0,False
2024-02-15,1.003162368731804,1.0153542338908466,1.2153431527196723,2,True
2024-02-16,1.0153542338908466,1.019152398872263,0.3740728954132466,1,True
2024-02-17,1.019152398872263,1.019152398872263,0.0,0,False
2024-02-18,1.019152398872263,1.019152398872263,0.0,0,False
2024-02-19,1.019152398872263,1.019152398872263,0.0,0,False
2024-02-20,1.019152398872263,1.0140632042738,-0.49935560217435615,1,True
2024-02-21,1.0140632042738,1.0374510901936909,2.3063538664376937,5,True
2024-02-22,1.0374510901936909,1.0452446841948726,0.7512251974911566,1,True
2024-02-23,1.0452446841948726,1.0367832194048359,-0.8095200021566606,2,True
2024-02-24,1.0367832194048359,1.0348125102151287,-0.1900791942638258,0,True
2024-02-25,1.0348125102151287,1.0348125102151287,0.0,0,False
2024-02-26,1.0348125102151287,1.0393345934617157,0.43699541723234425,2,True
2024-02-27,1.0393345934617157,1.0356525905622584,-0.3542654042904214,2,True
2024-02-28,1.0356525905622584,1.0238379612363286,-1.1407907857900135,1,True
2024-02-29,1.0238379612363286,1.0421852161860619,1.7920076852374178,6,True
2024-03-01,1.0421852161860619,1.0416321808714415,-0.05306497405943578,2,True
2024-03-02,1.0416321808714415,1.032878878773708,-0.8403448221434906,2,True
2024-03-03,1.032878878773708,1.0585134111646435,2.481852704875731,4,True
2024-03-04,1.0585134111646435,1.060240513338874,0.16316299406449186,0,True
2024-03-05,1.060240513338874,1.0554232118008147,-0.4543593154055947,2,True
2024-03-06,1.0554232118008147,1.0881841772003595,3.1040595879681776,9,True
2024-03-07,1.0881841772003595,1.08613819172535,-0.1880183077347497,5,True
2024-03-08,1.08613819172535,1.0875991450062363,0.13450896874969143,1,True
2024-03-09,1.0875991450062363,1.0857864668741655,-0.16666785188218514,2,True
2024-03-10,1.0857864668741655,1.0949741333094827,0.8461761787994293,1,True
2024-03-11,1.0949741333094827,1.094645402754782,-0.03002176441438964,1,True
2024-03-12,1.094645402754782,1.116606050805833,2.0061883049784734,2,True
2024-03-13,1.116606050805833,1.116606050805833,0.0,0,False
2024-03-14,1.116606050805833,1.116606050805833,0.0,0,False
2024-03-15,1.116606050805833,1.1110270343455706,-0.49964053626936344,1,True
2024-03-16,1.1110270343455706,1.1054814462136295,-0.49914070139684963,1,True
2024-03-17,1.1054814462136295,1.099962911507495,-0.499197406255536,1,True
2024-03-18,1.099962911507495,1.097776838593939,-0.19874060213174172,1,True
2024-03-19,1.097776838593939,1.0835717070552284,-1.2939908221150764,2,True
2024-03-20,1.0835717070552284,1.0829688821366583,-0.055633135734811656,1,True
2024-03-21,1.0829688821366583,1.0775301720541433,-0.5022037264620804,3,True
2024-03-22,1.0775301720541433,1.0890670691293043,1.0706797242779453,2,True
2024-03-23,1.0890670691293043,1.0845724866341242,-0.41270024799973104,1,True
2024-03-24,1.0845724866341242,1.080589131444123,-0.36727422455304914,2,True
2024-03-25,1.080589131444123,1.0817532857885779,0.10773330126865321,0,True
2024-03-26,1.0817532857885779,1.0875046164828623,0.5316675040272001,1,True
2024-03-27,1.0875046164828623,1.0865853199497637,-0.08453265569315915,3,True
2024-03-28,1.0865853199497637,1.0865853199497637,0.0,0,False
2024-03-29,1.0865853199497637,1.0757703119668154,-0.9953206420503014,2,True
2024-03-30,1.0757703119668154,1.0757703119668154,0.0,0,False
2024-03-31,1.0757703119668154,1.0757703119668154,0.0,0,False
2024-04-01,1.0757703119668154,1.068838637199343,-0.6443452371165836,2,True
2024-04-02,1.068838637199343,1.0696377264008397,0.07476237980976741,2,True
2024-04-03,1.0696377264008397,1.0669316187510587,-0.2529929136742992,1,True
2024-04-04,1.0669316187510587,1.0642927142530294,-0.24733586029799248,0,True
2024-04-05,1.0642927142530294,1.063188172150114,-0.10378179688006473,2,True
2024-04-06,1.063188172150114,1.0585682132156093,-0.43453821774197543,0,True
2024-04-07,1.0585682132156093,1.0653190724494133,0.6377349281343703,2,True
2024-04-08,1.0653190724494133,1.064549383876446,-0.07224958163920547,0,True
2024-04-09,1.064549383876446,1.0592355705925545,-0.49916080591224654,1,True
2024-04-10,1.0592355705925545,1.0539539737064227,-0.49862344437480166,1,True
2024-04-11,1.0539539737064227,1.0539539737064227,0.0,0,False
2024-04-12,1.0539539737064227,1.0486966640946676,-0.4988177608237332,1,True
2024-04-13,1.0486966640946676,1.0557306347571769,0.6707345320471347,9,True
2024-04-14,1.0557306347571769,1.0585793090204634,0.2698296487287033,8,True
2024-04-15,1.0585793090204634,1.0715522835258604,1.2255080365590532,2,True
2024-04-16,1.0715522835258604,1.0631636558046025,-0.7828481960446942,0,True
2024-04-17,1.0631636558046025,1.0578566744309648,-0.4991688104331815,1,True
2024-04-18,1.0578566744309648,1.0578566744309648,0.0,0,False
2024-04-19,1.0578566744309648,1.0578566744309648,0.0,0,False
2024-04-20,1.0578566744309648,1.0578566744309648,0.0,0,False
2024-04-21,1.0578566744309648,1.0578566744309648,0.0,0,False
2024-04-22,1.0578566744309648,1.0578566744309648,0.0,0,False
2024-04-23,1.0578566744309648,1.0525735179859845,-0.4994208168911052,1,True
2024-04-24,1.0525735179859845,1.0525735179859845,0.0,0,False
2024-04-25,1.0525735179859845,1.056852421897137,0.40651829426030517,2,True
2024-04-26,1.056852421897137,1.056852421897137,0.0,0,False
2024-04-27,1.056852421897137,1.051577491654267,-0.49911701327238767,1,True
2024-04-28,1.051577491654267,1.051577491654267,0.0,0,False
2024-04-29,1.051577491654267,1.061032359287327,0.8991127813306576,1,True
2024-04-30,1.061032359287327,1.061032359287327,0.0,0,False
2024-05-01,1.061032359287327,1.061032359287327,0.0,0,False
2024-05-02,1.061032359287327,1.061032359287327,0.0,0,False
2024-05-03,1.061032359287327,1.061032359287327,0.0,0,False
2024-05-04,1.061032359287327,1.061032359287327,0.0,0,False
2024-05-05,1.061032359287327,1.061032359287327,0.0,0,False
2024-05-06,1.061032359287327,1.061032359287327,0.0,0,False
2024-05-07,1.061032359287327,1.055735187932665,-0.49924691818258315,1,True
2024-05-08,1.055735187932665,1.055735187932665,0.0,0,False
2024-05-09,1.055735187932665,1.0402964067891165,-1.4623725078047989,5,True
2024-05-10,1.0402964067891165,1.035808932330839,-0.43136498684333,1,True
2024-05-11,1.035808932330839,1.036346837572775,0.051930932930410734,1,True
2024-05-12,1.036346837572775,1.0306385514116767,-0.5508084701129179,0,True
2024-05-13,1.0306385514116767,1.0400443931641303,0.912622736610258,1,True
2024-05-14,1.0400443931641303,1.0400443931641303,0.0,0,False
2024-05-15,1.0400443931641303,1.0400443931641303,0.0,0,False
2024-05-16,1.0400443931641303,1.0400443931641303,0.0,0,False
2024-05-17,1.0400443931641303,1.0400443931641303,0.0,0,False
2024-05-18,1.0400443931641303,1.0400443931641303,0.0,0,False
2024-05-19,1.0400443931641303,1.0400443931641303,0.0,0,False
2024-05-20,1.0400443931641303,1.0400443931641303,0.0,0,False
2024-05-21,1.0400443931641303,1.044662736621887,0.4440525316141919,2,True
2024-05-22,1.044662736621887,1.044662736621887,0.0,0,False
2024-05-23,1.044662736621887,1.0541382245835749,0.9070379970026021,1,True
2024-05-24,1.0541382245835749,1.053501347887289,-0.06041681075908967,2,True
2024-05-25,1.053501347887289,1.053501347887289,0.0,0,False
2024-05-26,1.053501347887289,1.053501347887289,0.0,0,False
2024-05-27,1.053501347887289,1.053501347887289,0.0,0,False
2024-05-28,1.053501347887289,1.053501347887289,0.0,0,False
2024-05-29,1.053501347887289,1.053501347887289,0.0,0,False
2024-05-30,1.053501347887289,1.053501347887289,0.0,0,False
2024-05-31,1.053501347887289,1.0429787004460045,-0.9988261963201905,2,True
2024-06-01,1.0429787004460045,1.0429787004460045,0.0,0,False
2024-06-02,1.0429787004460045,1.037770183159655,-0.49938865329868243,1,True
2024-06-03,1.037770183159655,1.0296043454427077,-0.7868637825077185,3,True
2024-06-04,1.0296043454427077,1.023302462008406,-0.6120684573832191,2,True
2024-06-05,1.023302462008406,1.023302462008406,0.0,0,False
2024-06-06,1.023302462008406,1.0131132979916713,-0.9957138182523972,2,True
2024-06-07,1.0131132979916713,1.0131132979916713,0.0,0,False
2024-06-08,1.0131132979916713,1.0428749147943372,2.937639537617698,5,True
2024-06-09,1.0428749147943372,1.0376682324492235,-0.4992624015834668,1,True
2024-06-10,1.0376682324492235,1.0376682324492235,0.0,0,False
2024-06-11,1.0376682324492235,1.0324860262663793,-0.499408772552723,1,True
2024-06-12,1.0324860262663793,1.0273323000491152,-0.499156994492278,1,True
2024-06-13,1.0273323000491152,1.0188836618148696,-0.8223861192568127,2,True
2024-06-14,1.0188836618148696,1.0138010699146123,-0.49883927780370874,1,True
2024-06-15,1.0138010699146123,1.0223694321755588,0.8451719489374954,1,True
2024-06-16,1.0223694321755588,1.0223694321755588,0.0,0,False
2024-06-17,1.0223694321755588,1.0223694321755588,0.0,0,False
2024-06-18,1.0223694321755588,1.0342588951657343,1.1629321667878223,5,True
2024-06-19,1.0342588951657343,1.0299151911366504,-0.41998227420493306,1,True
2024-06-20,1.0299151911366504,1.0290886715646688,-0.08025122642083549,0,True
2024-06-21,1.0290886715646688,1.0290886715646688,0.0,0,False
2024-06-22,1.0290886715646688,1.0239508625054463,-0.49925814958303727,1,True
2024-06-23,1.0239508625054463,1.0323237759669324,0.817706568555332,1,True
2024-06-24,1.0323237759669324,1.0329633594085388,0.06195570193152644,1,True
2024-06-25,1.0329633594085388,1.0451718402447379,1.1818890500810753,1,True
2024-06-26,1.0451718402447379,1.0479393639359151,0.26479126059588687,0,True
2024-06-27,1.0479393639359151,1.0485619895886826,0.059414282371172966,1,True
2024-06-28,1.0485619895886826,1.0427016199075112,-0.5588958725721405,0,True
2024-06-29,1.0427016199075112,1.032328071728706,-0.9948721648409209,2,True
2024-06-30,1.032328071728706,1.032328071728706,0.0,0,False
2024-07-01,1.032328071728706,1.032328071728706,0.0,0,False
2024-07-02,1.032328071728706,1.032328071728706,0.0,0,False
2024-07-03,1.032328071728706,1.032328071728706,0.0,0,False
2024-07-04,1.032328071728706,1.032328071728706,0.0,0,False
2024-07-05,1.032328071728706,1.0395062501956494,0.6953388814587846,6,True
2024-07-06,1.0395062501956494,1.0411039889940032,0.1537017019429321,2,True
2024-07-07,1.0411039889940032,1.0369200887512735,-0.4018715024588948,2,True
2024-07-08,1.0369200887512735,1.0367072747711747,-0.020523662566418466,0,True
2024-07-09,1.0367072747711747,1.0367072747711747,0.0,0,False
2024-07-10,1.0367072747711747,1.0367072747711747,0.0,0,False
2024-07-11,1.0367072747711747,1.0367072747711747,0.0,0,False
2024-07-12,1.0367072747711747,1.0367072747711747,0.0,0,False
2024-07-13,1.0367072747711747,1.0367072747711747,0.0,0,False
2024-07-14,1.0367072747711747,1.0315318717559472,-0.4992154623753242,1,True
2024-07-15,1.0315318717559472,1.0315318717559472,0.0,0,False
2024-07-16,1.0315318717559472,1.0263805653735136,-0.499384122146862,1,True
2024-07-17,1.0263805653735136,1.0212599257953237,-0.4989026245178829,1,True
2024-07-18,1.0212599257953237,1.0212599257953237,0.0,0,False
2024-07-19,1.0212599257953237,1.0212599257953237,0.0,0,False
2024-07-20,1.0212599257953237,1.0247539866672024,0.3421323782148544,2,True
2024-07-21,1.0247539866672024,1.0247539866672024,0.0,0,False
2024-07-22,1.0247539866672024,1.0247539866672024,0.0,0,False
2024-07-23,1.0247539866672024,1.0196355385530538,-0.4994806734829438,1,True
2024-07-24,1.0196355385530538,1.0196355385530538,0.0,0,False
2024-07-25,1.0196355385530538,1.0196355385530538,0.0,0,False
2024-07-26,1.0196355385530538,1.0196355385530538,0.0,0,False
2024-07-27,1.0196355385530538,1.0196355385530538,0.0,0,False
2024-07-28,1.0196355385530538,1.0145430334474324,-0.49944366521866845,1,True
2024-07-29,1.0145430334474324,1.0145430334474324,0.0,0,False
2024-07-30,1.0145430334474324,1.0145430334474324,0.0,0,False
2024-07-31,1.0145430334474324,1.0094815122947904,-0.49889664467388517,1,True
2024-08-01,1.0094815122947904,1.0094815122947904,0.0,0,False
2024-08-02,1.0094815122947904,1.0094815122947904,0.0,0,False
2024-08-03,1.0094815122947904,1.004446783633773,-0.49874401855783956,1,True
2024-08-04,1.004446783633773,1.004446783633773,0.0,0,False
2024-08-05,1.004446783633773,1.0071044669390923,0.26459174827606624,8,True
2024-08-06,1.0071044669390923,1.0071044669390923,0.0,0,False
2024-08-07,1.0071044669390923,1.0071044669390923,0.0,0,False
2024-08-08,1.0071044669390923,1.0071044669390923,0.0,0,False
2024-08-09,1.0071044669390923,1.0071044669390923,0.0,0,False
2024-08-10,1.0071044669390923,1.0071044669390923,0.0,0,False
2024-08-11,1.0071044669390923,1.0071044669390923,0.0,0,False
2024-08-12,1.0071044669390923,1.0186081919123329,1.1422573676198589,2,True
2024-08-13,1.0186081919123329,1.0175466051282924,-0.10421934483438866,0,True
2024-08-14,1.0175466051282924,1.0175466051282924,0.0,0,False
2024-08-15,1.0175466051282924,1.0175466051282924,0.0,0,False
2024-08-16,1.0175466051282924,1.0175466051282924,0.0,0,False
2024-08-17,1.0175466051282924,1.0175466051282924,0.0,0,False
2024-08-18,1.0175466051282924,1.0156631988016949,-0.18509288096539844,1,True
2024-08-19,1.0156631988016949,1.0059252145635669,-0.9587808487712346,2,True
2024-08-20,1.0059252145635669,1.0085940086172478,0.26530740208543513,1,True
2024-08-21,1.0085940086172478,1.0085940086172478,0.0,0,False
2024-08-22,1.0085940086172478,1.0085940086172478,0.0,0,False
2024-08-23,1.0085940086172478,1.0085940086172478,0.0,0,False
2024-08-24,1.0085940086172478,1.0085940086172478,0.0,0,False
2024-08-25,1.0085940086172478,1.0085940086172478,0.0,0,False
2024-08-26,1.0085940086172478,1.0085940086172478,0.0,0,False
2024-08-27,1.0085940086172478,1.0085940086172478,0.0,0,False
2024-08-28,1.0085940086172478,1.0085940086172478,0.0,0,False
2024-08-29,1.0085940086172478,1.0035656661060812,-0.49854971060756537,1,True
2024-08-30,1.0035656661060812,1.0035656661060812,0.0,0,False
2024-08-31,1.0035656661060812,1.0035656661060812,0.0,0,False
2024-09-01,1.0035656661060812,0.9985728940609327,-0.4975032739532481,1,True
2024-09-02,0.9985728940609327,0.9985728940609327,0.0,0,False
2024-09-03,0.9985728940609327,0.9985728940609327,0.0,0,False
2024-09-04,0.9985728940609327,0.9985728940609327,0.0,0,False
2024-09-05,0.9985728940609327,0.9915690190391285,-0.7013884578141671,2,True
2024-09-06,0.9915690190391285,0.9922918302327388,0.07289570163362402,0,True
2024-09-07,0.9922918302327388,0.9922918302327388,0.0,0,False
2024-09-08,0.9922918302327388,0.9922918302327388,0.0,0,False
2024-09-09,0.9922918302327388,0.9922918302327388,0.0,0,False
2024-09-10,0.9922918302327388,0.9922918302327388,0.0,0,False
2024-09-11,0.9922918302327388,0.9922918302327388,0.0,0,False
2024-09-12,0.9922918302327388,0.9922918302327388,0.0,0,False
2024-09-13,0.9922918302327388,1.0015169295111053,0.9296760284928318,1,True
2024-09-14,1.0015169295111053,1.0015169295111053,0.0,0,False
2024-09-15,1.0015169295111053,1.0015169295111053,0.0,0,False
2024-09-16,1.0015169295111053,1.0015169295111053,0.0,0,False
2024-09-17,1.0015169295111053,1.0015169295111053,0.0,0,False
2024-09-18,1.0015169295111053,0.9915108917241672,-0.9990882322700845,2,True
2024-09-19,0.9915108917241672,0.9908030678175898,-0.07138841463925072,1,True
2024-09-20,0.9908030678175898,0.9947821652302085,0.4016032592009777,1,True
2024-09-21,0.9947821652302085,0.9837298712487351,-1.1110265511159123,4,True
2024-09-22,0.9837298712487351,0.9928101069164004,0.9230415719855056,1,True
2024-09-23,0.9928101069164004,1.0021500544052155,0.9407587033762654,1,True
2024-09-24,1.0021500544052155,1.0021500544052155,0.0,0,False
2024-09-25,1.0021500544052155,1.0021500544052155,0.0,0,False
2024-09-26,1.0021500544052155,1.0021500544052155,0.0,0,False
2024-09-27,1.0021500544052155,1.0021500544052155,0.0,0,False
2024-09-28,1.0021500544052155,1.0021500544052155,0.0,0,False
2024-09-29,1.0021500544052155,1.0021500544052155,0.0,0,False
2024-09-30,1.0021500544052155,1.0021500544052155,0.0,0,False
2024-10-01,1.0021500544052155,1.0021500544052155,0.0,0,False
2024-10-02,1.0021500544052155,1.0021500544052155,0.0,0,False
2024-10-03,1.0021500544052155,1.0113195354790625,0.9149808487800781,1,True
2024-10-04,1.0113195354790625,1.0113195354790625,0.0,0,False
2024-10-05,1.0113195354790625,1.0113195354790625,0.0,0,False
2024-10-06,1.0113195354790625,1.0113195354790625,0.0,0,False
2024-10-07,1.0113195354790625,1.0113195354790625,0.0,0,False
2024-10-08,1.0113195354790625,1.0113195354790625,0.0,0,False
2024-10-09,1.0113195354790625,1.0113195354790625,0.0,0,False
2024-10-10,1.0113195354790625,1.0113195354790625,0.0,0,False
2024-10-11,1.0113195354790625,1.0098618081948452,-0.1441411179234131,1,True
2024-10-12,1.0098618081948452,1.0109274704013256,0.10552554793465951,0,True
2024-10-13,1.0109274704013256,1.0109274704013256,0.0,0,False
2024-10-14,1.0109274704013256,1.0109274704013256,0.0,0,False
2024-10-15,1.0109274704013256,1.0008560559798114,-0.9962548962603512,2,True
2024-10-16,1.0008560559798114,1.0008560559798114,0.0,0,False
2024-10-17,1.0008560559798114,1.0008560559798114,0.0,0,False
2024-10-18,1.0008560559798114,1.0205422142908689,1.966932027181989,3,True
2024-10-19,1.0205422142908689,1.0171276827218776,-0.3345801399664672,1,True
2024-10-20,1.0171276827218776,1.0171276827218776,0.0,0,False
2024-10-21,1.0171276827218776,1.0265516093402403,0.926523461945683,1,True
2024-10-22,1.0265516093402403,1.0309515134701235,0.428610124405826,2,True
2024-10-23,1.0309515134701235,1.0206831197927249,-0.9960113102541412,2,True
2024-10-24,1.0206831197927249,1.0155902910366577,-0.49896276888574675,1,True
2024-10-25,1.0155902910366577,1.019864597561373,0.42086917947514735,1,True
2024-10-26,1.019864597561373,1.0336339814458533,1.3501188214008808,2,True
2024-10-27,1.0336339814458533,1.0336339814458533,0.0,0,False
2024-10-28,1.0336339814458533,1.0336339814458533,0.0,0,False
2024-10-29,1.0336339814458533,1.0336339814458533,0.0,0,False
2024-10-30,1.0336339814458533,1.0336339814458533,0.0,0,False
2024-10-31,1.0336339814458533,1.0336339814458533,0.0,0,False
2024-11-01,1.0336339814458533,1.0336339814458533,0.0,0,False
2024-11-02,1.0336339814458533,1.0336339814458533,0.0,0,False
2024-11-03,1.0336339814458533,1.0336339814458533,0.0,0,False
2024-11-04,1.0336339814458533,1.0336339814458533,0.0,0,False
2024-11-05,1.0336339814458533,1.0336339814458533,0.0,0,False
2024-11-06,1.0336339814458533,1.0336339814458533,0.0,0,False
2024-11-07,1.0336339814458533,1.0336339814458533,0.0,0,False
2024-11-08,1.0336339814458533,1.0336339814458533,0.0,0,False
2024-11-09,1.0336339814458533,1.0312567317755414,-0.22998950431046827,1,True
2024-11-10,1.0312567317755414,1.0266733292356882,-0.44444825411824596,3,True
2024-11-11,1.0266733292356882,1.0298363930303405,0.30808863000337805,3,True
2024-11-12,1.0298363930303405,1.0317194701118702,0.18285206215995498,0,True
2024-11-13,1.0317194701118702,1.0317194701118702,0.0,0,False
2024-11-14,1.0317194701118702,1.034057350779558,0.22660042147255588,1,True
2024-11-15,1.034057350779558,1.034057350779558,0.0,0,False
2024-11-16,1.034057350779558,1.0325782054779256,-0.14304286899730068,1,True
2024-11-17,1.0325782054779256,1.0522087845557282,1.9011227405014486,2,True
2024-11-18,1.0522087845557282,1.0522087845557282,0.0,0,False
2024-11-19,1.0522087845557282,1.0469550221957076,-0.49930797358234136,1,True
2024-11-20,1.0469550221957076,1.0469550221957076,0.0,0,False
2024-11-21,1.0469550221957076,1.0469550221957076,0.0,0,False
2024-11-22,1.0469550221957076,1.0469550221957076,0.0,0,False
2024-11-23,1.0469550221957076,1.0525834389370163,0.5375987145564975,1,True
2024-11-24,1.0525834389370163,1.0848404742089302,3.0645585023159283,8,True
2024-11-25,1.0848404742089302,1.0882018882029338,0.30985329861101807,1,True
2024-11-26,1.0882018882029338,1.0773580048017466,-0.9964955509399909,2,True
2024-11-27,1.0773580048017466,1.0843397328970548,0.6480416040156367,2,True
2024-11-28,1.0843397328970548,1.0843397328970548,0.0,0,False
2024-11-29,1.0843397328970548,1.0843397328970548,0.0,0,False
2024-11-30,1.0843397328970548,1.0945434155128906,0.9410042172460553,1,True
2024-12-01,1.0945434155128906,1.0945434155128906,0.0,0,False
2024-12-02,1.0945434155128906,1.099728642391311,0.4737342352007845,1,True
2024-12-03,1.099728642391311,1.1058182190753112,0.553734480422241,1,True
2024-12-04,1.1058182190753112,1.1026984631578216,-0.2821219494916982,4,True
2024-12-05,1.1026984631578216,1.1094245254744355,0.6099638787336659,1,True
2024-12-06,1.1094245254744355,1.111667287464427,0.2021554363089484,1,True
2024-12-07,1.111667287464427,1.1133891952598385,0.15489416796090616,1,True
2024-12-08,1.1133891952598385,1.1133891952598385,0.0,0,False
2024-12-09,1.1133891952598385,1.1078264295246998,-0.4996245480755279,1,True
2024-12-10,1.1078264295246998,1.0990191751298803,-0.7950030943564057,5,True
2024-12-11,1.0990191751298803,1.098703190641121,-0.028751499146673076,0,True
2024-12-12,1.098703190641121,1.098703190641121,0.0,0,False
2024-12-13,1.098703190641121,1.098703190641121,0.0,0,False
2024-12-14,1.098703190641121,1.098703190641121,0.0,0,False
2024-12-15,1.098703190641121,1.0912694490929415,-0.6765923328066248,2,True
2024-12-16,1.0912694490929415,1.0877665434171255,-0.32099365365058086,0,True
2024-12-17,1.0877665434171255,1.0877665434171255,0.0,0,False
2024-12-18,1.0877665434171255,1.0823365315987146,-0.49918908163446574,1,True
2024-12-19,1.0823365315987146,1.0848504251505526,0.23226542562735375,1,True
2024-12-20,1.0848504251505526,1.0892115648625955,0.4020037795936293,2,True
2024-12-21,1.0892115648625955,1.0892115648625955,0.0,0,False
2024-12-22,1.0892115648625955,1.0892115648625955,0.0,0,False
2024-12-23,1.0892115648625955,1.0892115648625955,0.0,0,False
2024-12-24,1.0892115648625955,1.0892115648625955,0.0,0,False
2024-12-25,1.0892115648625955,1.0991839856531866,0.9155632488945464,1,True
2024-12-26,1.0991839856531866,1.0989425506261319,-0.021964933096374484,1,True
2024-12-27,1.0989425506261319,1.0990294704814823,0.007909408485540226,0,True
2024-12-28,1.0990294704814823,1.0990294704814823,0.0,0,False
2024-12-29,1.0990294704814823,1.0990294704814823,0.0,0,False
2024-12-30,1.0990294704814823,1.1023941162894666,0.30614700500344316,1,True
2024-12-31,1.1023941162894666,1.1023941162894666,0.0,0,False
