day,start_equity,end_equity,return_pct,entries,active
2024-01-02,1.0,0.9990134675237569,-0.09865324762431404,1,True
2024-01-03,0.9990134675237569,0.9919886107270097,-0.7031793889785698,9,True
2024-01-04,0.9919886107270097,0.9987143458755809,0.6780052790769542,0,True
2024-01-05,0.9987143458755809,0.9841322155954365,-1.4600901990008075,4,True
2024-01-06,0.9841322155954365,0.9742403656979395,-1.0051342432187416,7,True
2024-01-07,0.9742403656979395,0.9727296673288808,-0.1550642348899678,3,True
2024-01-08,0.9727296673288808,0.9526629859036485,-2.062924787760967,4,True
2024-01-09,0.9526629859036485,0.9526629859036485,0.0,0,False
2024-01-10,0.9526629859036485,0.943745577318766,-0.9360507038513655,4,True
2024-01-11,0.943745577318766,0.961175552270035,1.846893418116835,3,True
2024-01-12,0.961175552270035,0.9404125497026727,-2.160167569631344,3,True
2024-01-13,0.9404125497026727,0.9364921252798264,-0.416883465037321,6,True
2024-01-14,0.9364921252798264,0.9415539156457149,0.5405053848558605,0,True
2024-01-15,0.9415539156457149,0.9363436849546757,-0.5533650919465449,2,True
2024-01-16,0.9363436849546757,0.9375001958229902,0.12351350117456583,1,True
2024-01-17,0.9375001958229902,0.9427786764455864,0.5630378154708016,0,True
2024-01-18,0.9427786764455864,0.9420335241701067,-0.07903787963142728,1,True
2024-01-19,0.9420335241701067,0.9333863217620033,-0.9179293715392167,1,True
2024-01-20,0.9333863217620033,0.9558457483223748,2.4062305217815494,7,True
2024-01-21,0.9558457483223748,0.968738675641052,1.3488502032159344,1,True
2024-01-22,0.968738675641052,0.9488626451568322,-2.051743259973293,4,True
2024-01-23,0.9488626451568322,0.9269843527381644,-2.3057386156298376,8,True
2024-01-24,0.9269843527381644,0.9263898488829758,-0.06413310574580056,1,True
2024-01-25,0.9263898488829758,0.9169332858992277,-1.020797345216018,2,True
2024-01-26,0.9169332858992277,0.9169332858992277,0.0,0,False
2024-01-27,0.9169332858992277,0.9169332858992277,0.0,0,False
2024-01-28,0.9169332858992277,0.9151138327094207,-0.19842808825755176,1,True
2024-01-29,0.9151138327094207,0.9123510340657526,-0.3019076474331306,0,True
2024-01-30,0.9123510340657526,0.9123510340657526,0.0,0,False
2024-01-31,0.9123510340657526,0.9078000624225079,-0.4988180506535933,1,True
2024-02-01,0.9078000624225079,0.9078000624225079,0.0,0,False
2024-02-02,0.9078000624225079,0.9075572449805851,-0.026747898791146252,2,True
2024-02-03,0.9075572449805851,0.9173564863128839,1.0797380976787174,1,True
2024-02-04,0.9173564863128839,0.9160892203775995,-0.13814323593850375,1,True
2024-02-05,0.9160892203775995,0.9160892203775995,0.0,0,False
2024-02-06,0.9160892203775995,0.9099563643888854,-0.669460556056567,2,True
2024-02-07,0.9099563643888854,0.9046223024433014,-0.5861887618277439,4,True
2024-02-08,0.9046223024433014,0.9206284984134646,1.7693788807695565,1,True
2024-02-09,0.9206284984134646,0.9206284984134646,0.0,0,False
2024-02-10,0.9206284984134646,0.9179051447861052,-0.295814612740386,2,True
2024-02-11,0.9179051447861052,0.9170066638958756,-0.09788384947324591,0,True
2024-02-12,0.9170066638958756,0.9180268531344641,0.11125210740063896,1,True
2024-02-13,0.9180268531344641,0.9180615496646172,0.003779467891873445,0,True
2024-02-14,0.9180615496646172,0.9189101667863433,0.09243575466548748,2,True
2024-02-15,0.9189101667863433,0.9206771574401255,0.19229199084409565,1,True
2024-02-16,0.9206771574401255,0.9222500432273472,0.17084010117021098,3,True
2024-02-17,0.9222500432273472,0.9240585587730871,0.19609817955781317,5,True
2024-02-18,0.9240585587730871,0.9258414299471635,0.19293919818712535,1,True
2024-02-19,0.9258414299471635,0.9265402955970387,0.07548437856308432,2,True
2024-02-20,0.9265402955970387,0.9261795826977915,-0.03893116154377596,8,True
2024-02-21,0.9261795826977915,0.9237187995043612,-0.26569179880455707,7,True
2024-02-22,0.9237187995043612,0.9475780733482821,2.582958564524507,4,True
2024-02-23,0.9475780733482821,0.9461348425766608,-0.15230732033737482,3,True
2024-02-24,0.9461348425766608,0.9446034086612832,-0.1618621201188386,5,True
2024-02-25,0.9446034086612832,0.940578007652992,-0.4261472033004976,4,True
2024-02-26,0.940578007652992,0.9397011670805449,-0.0932235886138999,4,True
2024-02-27,0.9397011670805449,0.9407797272615978,0.11477693322481386,2,True
2024-02-28,0.9407797272615978,0.9460882404012655,0.5642673822404465,5,True
2024-02-29,0.9460882404012655,0.9471359570071682,0.11074195420275323,8,True
2024-03-01,0.9471359570071682,0.9469052939873704,-0.02435373909007721,5,True
2024-03-02,0.9469052939873704,0.9497654859646535,0.3020568155489789,4,True
2024-03-03,0.9497654859646535,0.9514076069033747,0.17289751659625985,9,True
2024-03-04,0.9514076069033747,0.9580368102034431,0.6967784629812845,1,True
2024-03-05,0.9580368102034431,0.957963197718372,-0.0076836802393231984,10,True
2024-03-06,0.957963197718372,0.954052348664962,-0.4082462732101444,16,True
2024-03-07,0.954052348664962,0.9558395763463627,0.187330148487308,3,True
2024-03-08,0.9558395763463627,0.9581440227984902,0.2410913409691684,5,True
2024-03-09,0.9581440227984902,0.9522201174512925,-0.6182687786221774,5,True
2024-03-10,0.9522201174512925,0.9515682030871648,-0.06846256996466682,8,True
2024-03-11,0.9515682030871648,0.9524875466434756,0.09661352211309815,3,True
2024-03-12,0.9524875466434756,0.9501664535159636,-0.24368750391450256,3,True
2024-03-13,0.9501664535159636,0.9543535413837282,0.4406688798863412,5,True
2024-03-14,0.9543535413837282,0.9558589082889919,0.15773681764528202,5,True
2024-03-15,0.9558589082889919,0.9340776423063724,-2.2787114074825587,10,True
2024-03-16,0.9340776423063724,0.9349872288697557,0.09737804676894779,3,True
2024-03-17,0.9349872288697557,0.9312418870305103,-0.400576791168894,6,True
2024-03-18,0.9312418870305103,0.9343535317192061,0.33413925340257666,4,True
2024-03-19,0.9343535317192061,0.9275497914805285,-0.7281762210668563,14,True
2024-03-20,0.9275497914805285,0.9214131324057075,-0.6615988846297771,4,True
2024-03-21,0.9214131324057075,0.921243507929219,-0.018409166368793528,4,True
2024-03-22,0.921243507929219,0.9271317830657269,0.6391659844359188,8,True
2024-03-23,0.9271317830657269,0.935870585614488,0.9425631510403765,5,True
2024-03-24,0.935870585614488,0.9392685612515642,0.3630817860190705,4,True
2024-03-25,0.9392685612515642,0.945535218134533,0.6671847798906949,4,True
2024-03-26,0.945535218134533,0.9508887087804418,0.5661862766434878,4,True
2024-03-27,0.9508887087804418,0.9490486936816304,-0.19350477945746514,6,True
2024-03-28,0.9490486936816304,0.943696339032211,-0.5639704985690552,2,True
2024-03-29,0.943696339032211,0.9415381412597464,-0.22869621118566386,6,True
2024-03-30,0.9415381412597464,0.936966379220617,-0.48556312684396863,2,True
2024-03-31,0.936966379220617,0.9369240721488095,-0.004515324428477907,0,True
2024-04-01,0.9369240721488095,0.9362604604176423,-0.07082876306563346,5,True
2024-04-02,0.9362604604176423,0.9222170369458853,-1.4999483653824974,5,True
2024-04-03,0.9222170369458853,0.9114533214149638,-1.167156439287631,3,True
2024-04-04,0.9114533214149638,0.9111686974952423,-0.031227481762818865,1,True
2024-04-05,0.9111686974952423,0.9081881039526042,-0.3271176403262799,5,True
2024-04-06,0.9081881039526042,0.9058506394541587,-0.2573766919289566,1,True
2024-04-07,0.9058506394541587,0.9128879788667079,0.7768763531248002,3,True
2024-04-08,0.9128879788667079,0.9108692240802568,-0.2211393767017511,1,True
2024-04-09,0.9108692240802568,0.9061205000469988,-0.521339826587397,3,True
2024-04-10,0.9061205000469988,0.9063158860983487,0.02156292141495264,4,True
2024-04-11,0.9063158860983487,0.9098809391908907,0.39335657106149835,1,True
2024-04-12,0.9098809391908907,0.9085685985428171,-0.144232128792654,9,True
2024-04-13,0.9085685985428171,0.8942246084159617,-1.5787459691938066,11,True
2024-04-14,0.8942246084159617,0.8743312878771878,-2.224644720302782,7,True
2024-04-15,0.8743312878771878,0.8784074898038745,0.4662079446548617,5,True
2024-04-16,0.8784074898038745,0.8725346048134222,-0.6685832097997779,1,True
2024-04-17,0.8725346048134222,0.8719744051401656,-0.06420371984861006,0,True
2024-04-18,0.8719744051401656,0.8760737400846283,0.4701210173484238,1,True
2024-04-19,0.8760737400846283,0.8783267374083442,0.2571698272223255,5,True
2024-04-20,0.8783267374083442,0.8772898842337635,-0.118048686259975,0,True
2024-04-21,0.8772898842337635,0.8772898842337635,0.0,0,False
2024-04-22,0.8772898842337635,0.8772898842337635,0.0,0,False
2024-04-23,0.8772898842337635,0.8820748932611173,0.5454307764568789,3,True
2024-04-24,0.8820748932611173,0.881555433141791,-0.05889070455297185,3,True
2024-04-25,0.881555433141791,0.8819581848571415,0.04568648779297302,2,True
2024-04-26,0.8819581848571415,0.8834821830003979,0.17279709734803195,2,True
2024-04-27,0.8834821830003979,0.8849384312807274,0.16483052045077606,6,True
2024-04-28,0.8849384312807274,0.8880283654750604,0.34916939813101067,3,True
2024-04-29,0.8880283654750604,0.8900098915461931,0.22313770011983536,2,True
2024-04-30,0.8900098915461931,0.8855802299145398,-0.4977092584845133,2,True
2024-05-01,0.8855802299145398,0.8795726104656031,-0.6783822906159975,6,True
2024-05-02,0.8795726104656031,0.8854442984794505,0.6675614888393522,3,True
2024-05-03,0.8854442984794505,0.8843747549277603,-0.12079173738279714,1,True
2024-05-04,0.8843747549277603,0.8848258557103138,0.05100787647318583,0,True
2024-05-05,0.8848258557103138,0.8829949885729461,-0.2069183586297818,1,True
2024-05-06,0.8829949885729461,0.8826169677131118,-0.04281121237678098,0,True
2024-05-07,0.8826169677131118,0.8853735040480604,0.3123139975532929,3,True
2024-05-08,0.8853735040480604,0.8881849595373125,0.31754457033079664,3,True
2024-05-09,0.8881849595373125,0.8851897316029709,-0.3372302021306339,1,True
2024-05-10,0.8851897316029709,0.8853727476677193,0.020675348822352113,2,True
2024-05-11,0.8853727476677193,0.8838259972629664,-0.1747004760229487,4,True
2024-05-12,0.8838259972629664,0.8811250444380289,-0.30559780242964685,0,True
2024-05-13,0.8811250444380289,0.8853893285685626,0.48395902005637925,5,True
2024-05-14,0.8853893285685626,0.8812975624027298,-0.4621431537296772,4,True
2024-05-15,0.8812975624027298,0.8825020533898603,0.136672451906783,3,True
2024-05-16,0.8825020533898603,0.8770088559637743,-0.6224571835255932,2,True
2024-05-17,0.8770088559637743,0.8773055657539559,0.033832017563328876,0,True
2024-05-18,0.8773055657539559,0.8802645056476318,0.33727586022243017,2,True
2024-05-19,0.8802645056476318,0.880015953971204,-0.02823602165407113,0,True
2024-05-20,0.880015953971204,0.8819799370770078,0.2231758523173477,2,True
2024-05-21,0.8819799370770078,0.8794336170032075,-0.2887049882607462,2,True
2024-05-22,0.8794336170032075,0.8815349165786044,0.23893782711619238,1,True
2024-05-23,0.8815349165786044,0.8738740073825053,-0.8690420597101789,5,True
2024-05-24,0.8738740073825053,0.8825799205206989,0.9962435161872119,3,True
2024-05-25,0.8825799205206989,0.882096744878669,-0.05474582310289744,0,True
2024-05-26,0.882096744878669,0.8845861059118096,0.2822095249294998,3,True
2024-05-27,0.8845861059118096,0.8952094104582882,1.2009350447041323,3,True
2024-05-28,0.8952094104582882,0.8996155950518964,0.4921959646684737,2,True
2024-05-29,0.8996155950518964,0.9004197420405451,0.08938784443841552,1,True
2024-05-30,0.9004197420405451,0.8900410767334226,-1.15264746234931,5,True
2024-05-31,0.8900410767334226,0.8898353782133679,-0.02311112660211556,1,True
2024-06-01,0.8898353782133679,0.8880243602647067,-0.20352280803865863,2,True
2024-06-02,0.8880243602647067,0.8923665479534286,0.48897168625279264,0,True
2024-06-03,0.8923665479534286,0.8864220415809176,-0.6661507410989587,5,True
2024-06-04,0.8864220415809176,0.8886930545516424,0.25619996617800567,5,True
2024-06-05,0.8886930545516424,0.8896186978257818,0.1041578157271017,0,True
2024-06-06,0.8896186978257818,0.8893519920142428,-0.029979789340184304,2,True
2024-06-07,0.8893519920142428,0.8877022502083227,-0.185499309692172,0,True
2024-06-08,0.8877022502083227,0.8970539049323514,1.0534675024011841,8,True
2024-06-09,0.8970539049323514,0.9007288542578135,0.40966872840704216,1,True
2024-06-10,0.9007288542578135,0.9015399116413275,0.09004456554047024,0,True
2024-06-11,0.9015399116413275,0.9003651236174173,-0.13030904219997197,2,True
2024-06-12,0.9003651236174173,0.9065569032298454,0.6876965188912676,3,True
2024-06-13,0.9065569032298454,0.9074274623545624,0.09602917606335026,3,True
2024-06-14,0.9074274623545624,0.8990312110126141,-0.9252807183245282,5,True
2024-06-15,0.8990312110126141,0.9016504214012242,0.2913369810220612,5,True
2024-06-16,0.9016504214012242,0.9021602789384237,0.05654714123097815,0,True
2024-06-17,0.9021602789384237,0.8942167227700223,-0.8805038698609713,4,True
2024-06-18,0.8942167227700223,0.8970073884943686,0.31207934869543763,5,True
2024-06-19,0.8970073884943686,0.904500647780132,0.8353620473896983,0,True
2024-06-20,0.904500647780132,0.9087024938644364,0.46454870923715585,1,True
2024-06-21,0.9087024938644364,0.9078322986352028,-0.09576239034327916,1,True
2024-06-22,0.9078322986352028,0.9099550240458648,0.23382351716867422,2,True
2024-06-23,0.9099550240458648,0.911410027197426,0.15989835905207972,2,True
2024-06-24,0.911410027197426,0.9116018548410582,0.021047348384128917,1,True
2024-06-25,0.9116018548410582,0.91571653536602,0.4513681606844955,0,True
2024-06-26,0.91571653536602,0.91571653536602,0.0,0,False
2024-06-27,0.91571653536602,0.9134375740581395,-0.2488719183136312,1,True
2024-06-28,0.9134375740581395,0.9125203033833434,-0.10041963466872472,2,True
2024-06-29,0.9125203033833434,0.9045386230720714,-0.87468522965225,5,True
2024-06-30,0.9045386230720714,0.9069220721531226,0.2634988733765997,0,True
2024-07-01,0.9069220721531226,0.9038086234940391,-0.3432983664949152,2,True
2024-07-02,0.9038086234940391,0.9064028578469256,0.28703359156472263,0,True
2024-07-03,0.9064028578469256,0.9041439773290334,-0.24921374622074444,1,True
2024-07-04,0.9041439773290334,0.8963672190157935,-0.860123886044506,5,True
2024-07-05,0.8963672190157935,0.8730397376227361,-2.602446954571902,9,True
2024-07-06,0.8730397376227361,0.8734008859706697,0.04136677087769325,3,True
2024-07-07,0.8734008859706697,0.879641713193212,0.7145432667619245,1,True
2024-07-08,0.879641713193212,0.8802083537561335,0.0644172001421417,2,True
2024-07-09,0.8802083537561335,0.8843894960828049,0.4750173420678294,2,True
2024-07-10,0.8843894960828049,0.8865824604727601,0.24796364041730357,1,True
2024-07-11,0.8865824604727601,0.8815783063510523,-0.5644318881561694,2,True
2024-07-12,0.8815783063510523,0.8815783063510523,0.0,0,False
2024-07-13,0.8815783063510523,0.8810556491734443,-0.05928652892689401,2,True
2024-07-14,0.8810556491734443,0.8904053423664475,1.061192128076649,1,True
2024-07-15,0.8904053423664475,0.8916884819024524,0.14410734919836354,0,True
2024-07-16,0.8916884819024524,0.8936290140116785,0.21762444492787747,2,True
2024-07-17,0.8936290140116785,0.8960889268424181,0.2752722653550199,1,True
2024-07-18,0.8960889268424181,0.8966849615095115,0.06651512469790788,0,True
2024-07-19,0.8966849615095115,0.8955020812942058,-0.13191703508825814,2,True
2024-07-20,0.8955020812942058,0.8960727830324944,0.06372980590549915,0,True
2024-07-21,0.8960727830324944,0.8959407845870451,-0.014730772761850641,1,True
2024-07-22,0.8959407845870451,0.8958795656371906,-0.006832923660538004,1,True
2024-07-23,0.8958795656371906,0.8929275169019744,-0.3295140159957355,3,True
2024-07-24,0.8929275169019744,0.8906670381156631,-0.25315367076536033,1,True
2024-07-25,0.8906670381156631,0.8876776206145012,-0.33563805251920487,3,True
2024-07-26,0.8876776206145012,0.8871092518054005,-0.0640287415049734,0,True
2024-07-27,0.8871092518054005,0.8889039840796558,0.20231242889223733,1,True
2024-07-28,0.8889039840796558,0.8830993574380819,-0.653009407712779,2,True
2024-07-29,0.8830993574380819,0.882758480968465,-0.03860001332192109,0,True
2024-07-30,0.882758480968465,0.8811627057253837,-0.1807714428674334,2,True
2024-07-31,0.8811627057253837,0.8770645333837879,-0.4650869033571037,4,True
2024-08-01,0.8770645333837879,0.8771458388905883,0.00927018522647316,1,True
2024-08-02,0.8771458388905883,0.8702132983702308,-0.790352095738811,4,True
2024-08-03,0.8702132983702308,0.8677269437943285,-0.285717832692145,7,True
2024-08-04,0.8677269437943285,0.853079932107262,-1.6879747473345974,4,True
2024-08-05,0.853079932107262,0.853079932107262,0.0,0,False
2024-08-06,0.853079932107262,0.853079932107262,0.0,0,False
2024-08-07,0.853079932107262,0.853079932107262,0.0,0,False
2024-08-08,0.853079932107262,0.853079932107262,0.0,0,False
2024-08-09,0.853079932107262,0.853079932107262,0.0,0,False
2024-08-10,0.853079932107262,0.853079932107262,0.0,0,False
2024-08-11,0.853079932107262,0.853079932107262,0.0,0,False
2024-08-12,0.853079932107262,0.853079932107262,0.0,0,False
2024-08-13,0.853079932107262,0.853079932107262,0.0,0,False
2024-08-14,0.853079932107262,0.853079932107262,0.0,0,False
2024-08-15,0.853079932107262,0.853079932107262,0.0,0,False
2024-08-16,0.853079932107262,0.853079932107262,0.0,0,False
2024-08-17,0.853079932107262,0.853079932107262,0.0,0,False
2024-08-18,0.853079932107262,0.853079932107262,0.0,0,False
2024-08-19,0.853079932107262,0.853079932107262,0.0,0,False
2024-08-20,0.853079932107262,0.853079932107262,0.0,0,False
2024-08-21,0.853079932107262,0.853079932107262,0.0,0,False
2024-08-22,0.853079932107262,0.853079932107262,0.0,0,False
2024-08-23,0.853079932107262,0.853079932107262,0.0,0,False
2024-08-24,0.853079932107262,0.853079932107262,0.0,0,False
2024-08-25,0.853079932107262,0.853079932107262,0.0,0,False
2024-08-26,0.853079932107262,0.853079932107262,0.0,0,False
2024-08-27,0.853079932107262,0.853079932107262,0.0,0,False
2024-08-28,0.853079932107262,0.853079932107262,0.0,0,False
2024-08-29,0.853079932107262,0.853079932107262,0.0,0,False
2024-08-30,0.853079932107262,0.853079932107262,0.0,0,False
2024-08-31,0.853079932107262,0.853079932107262,0.0,0,False
2024-09-01,0.853079932107262,0.853079932107262,0.0,0,False
2024-09-02,0.853079932107262,0.853079932107262,0.0,0,False
2024-09-03,0.853079932107262,0.853079932107262,0.0,0,False
2024-09-04,0.853079932107262,0.853079932107262,0.0,0,False
2024-09-05,0.853079932107262,0.853079932107262,0.0,0,False
2024-09-06,0.853079932107262,0.853079932107262,0.0,0,False
2024-09-07,0.853079932107262,0.853079932107262,0.0,0,False
2024-09-08,0.853079932107262,0.853079932107262,0.0,0,False
2024-09-09,0.853079932107262,0.853079932107262,0.0,0,False
2024-09-10,0.853079932107262,0.853079932107262,0.0,0,False
2024-09-11,0.853079932107262,0.853079932107262,0.0,0,False
2024-09-12,0.853079932107262,0.853079932107262,0.0,0,False
2024-09-13,0.853079932107262,0.853079932107262,0.0,0,False
2024-09-14,0.853079932107262,0.853079932107262,0.0,0,False
2024-09-15,0.853079932107262,0.853079932107262,0.0,0,False
2024-09-16,0.853079932107262,0.853079932107262,0.0,0,False
2024-09-17,0.853079932107262,0.853079932107262,0.0,0,False
2024-09-18,0.853079932107262,0.853079932107262,0.0,0,False
2024-09-19,0.853079932107262,0.853079932107262,0.0,0,False
2024-09-20,0.853079932107262,0.853079932107262,0.0,0,False
2024-09-21,0.853079932107262,0.853079932107262,0.0,0,False
2024-09-22,0.853079932107262,0.853079932107262,0.0,0,False
2024-09-23,0.853079932107262,0.853079932107262,0.0,0,False
2024-09-24,0.853079932107262,0.853079932107262,0.0,0,False
2024-09-25,0.853079932107262,0.853079932107262,0.0,0,False
2024-09-26,0.853079932107262,0.853079932107262,0.0,0,False
2024-09-27,0.853079932107262,0.853079932107262,0.0,0,False
2024-09-28,0.853079932107262,0.853079932107262,0.0,0,False
2024-09-29,0.853079932107262,0.853079932107262,0.0,0,False
2024-09-30,0.853079932107262,0.853079932107262,0.0,0,False
2024-10-01,0.853079932107262,0.853079932107262,0.0,0,False
2024-10-02,0.853079932107262,0.853079932107262,0.0,0,False
2024-10-03,0.853079932107262,0.853079932107262,0.0,0,False
2024-10-04,0.853079932107262,0.853079932107262,0.0,0,False
2024-10-05,0.853079932107262,0.853079932107262,0.0,0,False
2024-10-06,0.853079932107262,0.853079932107262,0.0,0,False
2024-10-07,0.853079932107262,0.853079932107262,0.0,0,False
2024-10-08,0.853079932107262,0.853079932107262,0.0,0,False
2024-10-09,0.853079932107262,0.853079932107262,0.0,0,False
2024-10-10,0.853079932107262,0.853079932107262,0.0,0,False
2024-10-11,0.853079932107262,0.853079932107262,0.0,0,False
2024-10-12,0.853079932107262,0.853079932107262,0.0,0,False
2024-10-13,0.853079932107262,0.853079932107262,0.0,0,False
2024-10-14,0.853079932107262,0.853079932107262,0.0,0,False
2024-10-15,0.853079932107262,0.853079932107262,0.0,0,False
2024-10-16,0.853079932107262,0.853079932107262,0.0,0,False
2024-10-17,0.853079932107262,0.853079932107262,0.0,0,False
2024-10-18,0.853079932107262,0.853079932107262,0.0,0,False
2024-10-19,0.853079932107262,0.853079932107262,0.0,0,False
2024-10-20,0.853079932107262,0.853079932107262,0.0,0,False
2024-10-21,0.853079932107262,0.853079932107262,0.0,0,False
2024-10-22,0.853079932107262,0.853079932107262,0.0,0,False
2024-10-23,0.853079932107262,0.853079932107262,0.0,0,False
2024-10-24,0.853079932107262,0.853079932107262,0.0,0,False
2024-10-25,0.853079932107262,0.853079932107262,0.0,0,False
2024-10-26,0.853079932107262,0.853079932107262,0.0,0,False
2024-10-27,0.853079932107262,0.853079932107262,0.0,0,False
2024-10-28,0.853079932107262,0.853079932107262,0.0,0,False
2024-10-29,0.853079932107262,0.853079932107262,0.0,0,False
2024-10-30,0.853079932107262,0.853079932107262,0.0,0,False
2024-10-31,0.853079932107262,0.853079932107262,0.0,0,False
2024-11-01,0.853079932107262,0.853079932107262,0.0,0,False
2024-11-02,0.853079932107262,0.853079932107262,0.0,0,False
2024-11-03,0.853079932107262,0.853079932107262,0.0,0,False
2024-11-04,0.853079932107262,0.853079932107262,0.0,0,False
2024-11-05,0.853079932107262,0.853079932107262,0.0,0,False
2024-11-06,0.853079932107262,0.853079932107262,0.0,0,False
2024-11-07,0.853079932107262,0.853079932107262,0.0,0,False
2024-11-08,0.853079932107262,0.853079932107262,0.0,0,False
2024-11-09,0.853079932107262,0.853079932107262,0.0,0,False
2024-11-10,0.853079932107262,0.853079932107262,0.0,0,False
2024-11-11,0.853079932107262,0.853079932107262,0.0,0,False
2024-11-12,0.853079932107262,0.853079932107262,0.0,0,False
2024-11-13,0.853079932107262,0.853079932107262,0.0,0,False
2024-11-14,0.853079932107262,0.853079932107262,0.0,0,False
2024-11-15,0.853079932107262,0.853079932107262,0.0,0,False
2024-11-16,0.853079932107262,0.853079932107262,0.0,0,False
2024-11-17,0.853079932107262,0.853079932107262,0.0,0,False
2024-11-18,0.853079932107262,0.853079932107262,0.0,0,False
2024-11-19,0.853079932107262,0.853079932107262,0.0,0,False
2024-11-20,0.853079932107262,0.853079932107262,0.0,0,False
2024-11-21,0.853079932107262,0.853079932107262,0.0,0,False
2024-11-22,0.853079932107262,0.853079932107262,0.0,0,False
2024-11-23,0.853079932107262,0.853079932107262,0.0,0,False
2024-11-24,0.853079932107262,0.853079932107262,0.0,0,False
2024-11-25,0.853079932107262,0.853079932107262,0.0,0,False
2024-11-26,0.853079932107262,0.853079932107262,0.0,0,False
2024-11-27,0.853079932107262,0.853079932107262,0.0,0,False
2024-11-28,0.853079932107262,0.853079932107262,0.0,0,False
2024-11-29,0.853079932107262,0.853079932107262,0.0,0,False
2024-11-30,0.853079932107262,0.853079932107262,0.0,0,False
2024-12-01,0.853079932107262,0.853079932107262,0.0,0,False
2024-12-02,0.853079932107262,0.853079932107262,0.0,0,False
2024-12-03,0.853079932107262,0.853079932107262,0.0,0,False
2024-12-04,0.853079932107262,0.853079932107262,0.0,0,False
2024-12-05,0.853079932107262,0.853079932107262,0.0,0,False
2024-12-06,0.853079932107262,0.853079932107262,0.0,0,False
2024-12-07,0.853079932107262,0.853079932107262,0.0,0,False
2024-12-08,0.853079932107262,0.853079932107262,0.0,0,False
2024-12-09,0.853079932107262,0.853079932107262,0.0,0,False
2024-12-10,0.853079932107262,0.853079932107262,0.0,0,False
2024-12-11,0.853079932107262,0.853079932107262,0.0,0,False
2024-12-12,0.853079932107262,0.853079932107262,0.0,0,False
2024-12-13,0.853079932107262,0.853079932107262,0.0,0,False
2024-12-14,0.853079932107262,0.853079932107262,0.0,0,False
2024-12-15,0.853079932107262,0.853079932107262,0.0,0,False
2024-12-16,0.853079932107262,0.853079932107262,0.0,0,False
2024-12-17,0.853079932107262,0.853079932107262,0.0,0,False
2024-12-18,0.853079932107262,0.853079932107262,0.0,0,False
2024-12-19,0.853079932107262,0.853079932107262,0.0,0,False
2024-12-20,0.853079932107262,0.853079932107262,0.0,0,False
2024-12-21,0.853079932107262,0.853079932107262,0.0,0,False
2024-12-22,0.853079932107262,0.853079932107262,0.0,0,False
2024-12-23,0.853079932107262,0.853079932107262,0.0,0,False
2024-12-24,0.853079932107262,0.853079932107262,0.0,0,False
2024-12-25,0.853079932107262,0.853079932107262,0.0,0,False
2024-12-26,0.853079932107262,0.853079932107262,0.0,0,False
2024-12-27,0.853079932107262,0.853079932107262,0.0,0,False
2024-12-28,0.853079932107262,0.853079932107262,0.0,0,False
2024-12-29,0.853079932107262,0.853079932107262,0.0,0,False
2024-12-30,0.853079932107262,0.853079932107262,0.0,0,False
2024-12-31,0.853079932107262,0.853079932107262,0.0,0,False
