day,start_equity,end_equity,return_pct,entries,active
2024-01-02,1.0,1.0,0.0,0,False
2024-01-03,1.0,1.0092932468531264,0.929324685312638,4,True
2024-01-04,1.0092932468531264,1.0091592655182418,-0.013274767794435594,1,True
2024-01-05,1.0091592655182418,1.0091592655182418,0.0,0,False
2024-01-06,1.0091592655182418,1.0091592655182418,0.0,0,False
2024-01-07,1.0091592655182418,1.0091592655182418,0.0,0,False
2024-01-08,1.0091592655182418,1.005953314974643,-0.31768529043356697,1,True
2024-01-09,1.005953314974643,1.005953314974643,0.0,0,False
2024-01-10,1.005953314974643,1.0042852151357338,-0.16582278860040045,1,True
2024-01-11,1.0042852151357338,1.0042852151357338,0.0,0,False
2024-01-12,1.0042852151357338,1.0042852151357338,0.0,0,False
2024-01-13,1.0042852151357338,1.0042852151357338,0.0,0,False
2024-01-14,1.0042852151357338,1.0042852151357338,0.0,0,False
2024-01-15,1.0042852151357338,1.0042852151357338,0.0,0,False
2024-01-16,1.0042852151357338,1.0042852151357338,0.0,0,False
2024-01-17,1.0042852151357338,1.0042852151357338,0.0,0,False
2024-01-18,1.0042852151357338,1.0042852151357338,0.0,0,False
2024-01-19,1.0042852151357338,1.0042852151357338,0.0,0,False
2024-01-20,1.0042852151357338,1.0042852151357338,0.0,0,False
2024-01-21,1.0042852151357338,1.0042852151357338,0.0,0,False
2024-01-22,1.0042852151357338,1.0042852151357338,0.0,0,False
2024-01-23,1.0042852151357338,0.9942872659357572,-0.9955288646388394,2,True
2024-01-24,0.9942872659357572,0.9942872659357572,0.0,0,False
2024-01-25,0.9942872659357572,0.9942872659357572,0.0,0,False
2024-01-26,0.9942872659357572,0.9942872659357572,0.0,0,False
2024-01-27,0.9942872659357572,0.9942872659357572,0.0,0,False
2024-01-28,0.9942872659357572,0.9913606835355214,-0.2943397245947277,2,True
2024-01-29,0.9913606835355214,0.9913606835355214,0.0,0,False
2024-01-30,0.9913606835355214,0.9913606835355214,0.0,0,False
2024-01-31,0.9913606835355214,0.9913606835355214,0.0,0,False
2024-02-01,0.9913606835355214,0.9913606835355214,0.0,0,False
2024-02-02,0.9913606835355214,0.9913606835355214,0.0,0,False
2024-02-03,0.9913606835355214,0.9913606835355214,0.0,0,False
2024-02-04,0.9913606835355214,0.9913606835355214,0.0,0,False
2024-02-05,0.9913606835355214,0.9913606835355214,0.0,0,False
2024-02-06,0.9913606835355214,0.9846312545312046,-0.6788073317894217,2,True
2024-02-07,0.9846312545312046,0.9821997298737666,-0.24694774274616194,0,True
2024-02-08,0.9821997298737666,0.9821997298737666,0.0,0,False
2024-02-09,0.9821997298737666,0.9821997298737666,0.0,0,False
2024-02-10,0.9821997298737666,0.9821997298737666,0.0,0,False
2024-02-11,0.9821997298737666,0.9821997298737666,0.0,0,False
2024-02-12,0.9821997298737666,0.9821997298737666,0.0,0,False
2024-02-13,0.9821997298737666,0.9821997298737666,0.0,0,False
2024-02-14,0.9821997298737666,0.9821997298737666,0.0,0,False
2024-02-15,0.9821997298737666,0.9974841997779295,1.5561468242439203,1,True
2024-02-16,0.9974841997779295,0.9937923451104341,-0.3701166061895744,0,True
2024-02-17,0.9937923451104341,0.9937923451104341,0.0,0,False
2024-02-18,0.9937923451104341,0.9937923451104341,0.0,0,False
2024-02-19,0.9937923451104341,0.9937923451104341,0.0,0,False
2024-02-20,0.9937923451104341,0.9937923451104341,0.0,0,False
2024-02-21,0.9937923451104341,1.0077814500099969,1.4076486872122373,5,True
2024-02-22,1.0077814500099969,1.0213885101959697,1.3501995086174556,1,True
2024-02-23,1.0213885101959697,1.0213885101959697,0.0,0,False
2024-02-24,1.0213885101959697,1.0213885101959697,0.0,0,False
2024-02-25,1.0213885101959697,1.0213885101959697,0.0,0,False
2024-02-26,1.0213885101959697,1.0201302140247566,-0.12319466673573753,1,True
2024-02-27,1.0201302140247566,1.018928387375073,-0.11781110226526392,1,True
2024-02-28,1.018928387375073,1.018928387375073,0.0,0,False
2024-02-29,1.018928387375073,1.0264767156753691,0.7408104822500761,2,True
2024-03-01,1.0264767156753691,1.0264767156753691,0.0,0,False
2024-03-02,1.0264767156753691,1.0264767156753691,0.0,0,False
2024-03-03,1.0264767156753691,1.0414789508586992,1.4615270813483017,4,True
2024-03-04,1.0414789508586992,1.0437448747841422,0.217567904140048,0,True
2024-03-05,1.0437448747841422,1.042741015127553,-0.09617864296549428,1,True
2024-03-06,1.042741015127553,1.049878430408614,0.6844859056577945,1,True
2024-03-07,1.049878430408614,1.050373849652095,0.047188248575413816,2,True
2024-03-08,1.050373849652095,1.051300586950924,0.08822928133025432,0,True
2024-03-09,1.051300586950924,1.051300586950924,0.0,0,False
2024-03-10,1.051300586950924,1.051300586950924,0.0,0,False
2024-03-11,1.051300586950924,1.051300586950924,0.0,0,False
2024-03-12,1.051300586950924,1.0522014012771213,0.08568570562772493,1,True
2024-03-13,1.0522014012771213,1.0522014012771213,0.0,0,False
2024-03-14,1.0522014012771213,1.0522014012771213,0.0,0,False
2024-03-15,1.0522014012771213,1.0522014012771213,0.0,0,False
2024-03-16,1.0522014012771213,1.0522014012771213,0.0,0,False
2024-03-17,1.0522014012771213,1.049444308086352,-0.2620309369881779,1,True
2024-03-18,1.049444308086352,1.048700446132657,-0.07088150823852946,1,True
2024-03-19,1.048700446132657,1.0397574125654838,-0.8527729343639434,1,True
2024-03-20,1.0397574125654838,1.0397574125654838,0.0,0,False
2024-03-21,1.0397574125654838,1.0293991411743686,-0.9962200091997775,2,True
2024-03-22,1.0293991411743686,1.0293991411743686,0.0,0,False
2024-03-23,1.0293991411743686,1.0306410304999736,0.12064215676226286,1,True
2024-03-24,1.0306410304999736,1.0306410304999736,0.0,0,False
2024-03-25,1.0306410304999736,1.0306410304999736,0.0,0,False
2024-03-26,1.0306410304999736,1.0341117254905017,0.33675109837656425,1,True
2024-03-27,1.0341117254905017,1.0310063776150884,-0.3002913320550915,2,True
2024-03-28,1.0310063776150884,1.0310063776150884,0.0,0,False
2024-03-29,1.0310063776150884,1.0258579745033596,-0.49935705767776284,1,True
2024-03-30,1.0258579745033596,1.0258579745033596,0.0,0,False
2024-03-31,1.0258579745033596,1.0258579745033596,0.0,0,False
2024-04-01,1.0258579745033596,1.0258579745033596,0.0,0,False
2024-04-02,1.0258579745033596,1.0258579745033596,0.0,0,False
2024-04-03,1.0258579745033596,1.0258579745033596,0.0,0,False
2024-04-04,1.0258579745033596,1.0258579745033596,0.0,0,False
2024-04-05,1.0258579745033596,1.0248071466715476,-0.10243404622561902,2,True
2024-04-06,1.0248071466715476,1.0230354865602032,-0.17287741572632465,0,True
2024-04-07,1.0230354865602032,1.0256940801640881,0.2598730580523734,1,True
2024-04-08,1.0256940801640881,1.0256940801640881,0.0,0,False
2024-04-09,1.0256940801640881,1.0232837094239058,-0.23499899110237532,1,True
2024-04-10,1.0232837094239058,1.0156006424375286,-0.7508247141648217,1,True
2024-04-11,1.0156006424375286,1.0156006424375286,0.0,0,False
2024-04-12,1.0156006424375286,1.0192539490371257,0.3597188153434905,1,True
2024-04-13,1.0192539490371257,0.9961456129377381,-2.2671814145255764,8,True
2024-04-14,0.9961456129377381,0.9760466674339507,-2.017671437061641,5,True
2024-04-15,0.9760466674339507,0.9777721244573653,0.17678017670514912,1,True
2024-04-16,0.9777721244573653,0.974366704597619,-0.3482835902727577,0,True
2024-04-17,0.974366704597619,0.9716884336940016,-0.2748729909365477,1,True
2024-04-18,0.9716884336940016,0.9714859387001981,-0.020839498215874386,0,True
2024-04-19,0.9714859387001981,0.9714859387001981,0.0,0,False
2024-04-20,0.9714859387001981,0.9714859387001981,0.0,0,False
2024-04-21,0.9714859387001981,0.9714859387001981,0.0,0,False
2024-04-22,0.9714859387001981,0.9714859387001981,0.0,0,False
2024-04-23,0.9714859387001981,0.9714859387001981,0.0,0,False
2024-04-24,0.9714859387001981,0.9714859387001981,0.0,0,False
2024-04-25,0.9714859387001981,0.9782571401667474,0.696994284406105,1,True
2024-04-26,0.9782571401667474,0.9753081618503285,-0.3014522660081176,0,True
2024-04-27,0.9753081618503285,0.9704353765595786,-0.4996149403185046,1,True
2024-04-28,0.9704353765595786,0.9704353765595786,0.0,0,False
2024-04-29,0.9704353765595786,0.9805298487949621,1.0402003553467765,1,True
2024-04-30,0.9805298487949621,0.9808810957525359,0.03582215860185034,0,True
2024-05-01,0.9808810957525359,0.9808810957525359,0.0,0,False
2024-05-02,0.9808810957525359,0.9808810957525359,0.0,0,False
2024-05-03,0.9808810957525359,0.9808810957525359,0.0,0,False
2024-05-04,0.9808810957525359,0.9808810957525359,0.0,0,False
2024-05-05,0.9808810957525359,0.9808810957525359,0.0,0,False
2024-05-06,0.9808810957525359,0.9808810957525359,0.0,0,False
2024-05-07,0.9808810957525359,0.9781432649633487,-0.2791195386518064,1,True
2024-05-08,0.9781432649633487,0.9781499674302881,0.0006852234411436342,0,True
2024-05-09,0.9781499674302881,0.9754287741008122,-0.27819796760049087,1,True
2024-05-10,0.9754287741008122,0.9754287741008122,0.0,0,False
2024-05-11,0.9754287741008122,0.9756112827062553,0.018710602997273895,1,True
2024-05-12,0.9756112827062553,0.9733322712772888,-0.23359830594053,0,True
2024-05-13,0.9733322712772888,0.9767403397382843,0.35014440202656427,1,True
2024-05-14,0.9767403397382843,0.9767403397382843,0.0,0,False
2024-05-15,0.9767403397382843,0.9767403397382843,0.0,0,False
2024-05-16,0.9767403397382843,0.9767403397382843,0.0,0,False
2024-05-17,0.9767403397382843,0.9767403397382843,0.0,0,False
2024-05-18,0.9767403397382843,0.9767403397382843,0.0,0,False
2024-05-19,0.9767403397382843,0.9767403397382843,0.0,0,False
2024-05-20,0.9767403397382843,0.9767403397382843,0.0,0,False
2024-05-21,0.9767403397382843,0.9767403397382843,0.0,0,False
2024-05-22,0.9767403397382843,0.9767403397382843,0.0,0,False
2024-05-23,0.9767403397382843,0.9834206384497961,0.6839380375445181,1,True
2024-05-24,0.9834206384497961,0.9848162288624587,0.14191184912109023,1,True
2024-05-25,0.9848162288624587,0.9848162288624587,0.0,0,False
2024-05-26,0.9848162288624587,0.9848162288624587,0.0,0,False
2024-05-27,0.9848162288624587,0.9848162288624587,0.0,0,False
2024-05-28,0.9848162288624587,0.9848162288624587,0.0,0,False
2024-05-29,0.9848162288624587,0.9848162288624587,0.0,0,False
2024-05-30,0.9848162288624587,0.9848162288624587,0.0,0,False
2024-05-31,0.9848162288624587,0.9848162288624587,0.0,0,False
2024-06-01,0.9848162288624587,0.9848162288624587,0.0,0,False
2024-06-02,0.9848162288624587,0.9848162288624587,0.0,0,False
2024-06-03,0.9848162288624587,0.9761573533653812,-0.8792376936232138,3,True
2024-06-04,0.9761573533653812,0.9771621032768508,0.10292909314320031,1,True
2024-06-05,0.9771621032768508,0.9771621032768508,0.0,0,False
2024-06-06,0.9771621032768508,0.9722824504368929,-0.49936984084772984,1,True
2024-06-07,0.9722824504368929,0.9722824504368929,0.0,0,False
2024-06-08,0.9722824504368929,1.0015313056238428,3.008267317157376,5,True
2024-06-09,1.0015313056238428,1.0015313056238428,0.0,0,False
2024-06-10,1.0015313056238428,1.0015313056238428,0.0,0,False
2024-06-11,1.0015313056238428,1.0015313056238428,0.0,0,False
2024-06-12,1.0015313056238428,1.0015313056238428,0.0,0,False
2024-06-13,1.0015313056238428,0.9949580378481448,-0.6563217483854467,2,True
2024-06-14,0.9949580378481448,0.9899908983381538,-0.4992310550838708,1,True
2024-06-15,0.9899908983381538,0.9991071014780171,0.9208370657918241,1,True
2024-06-16,0.9991071014780171,0.9991071014780171,0.0,0,False
2024-06-17,0.9991071014780171,0.9991071014780171,0.0,0,False
2024-06-18,0.9991071014780171,1.0084529840501202,0.9354234954668472,4,True
2024-06-19,1.0084529840501202,1.0084529840501202,0.0,0,False
2024-06-20,1.0084529840501202,1.0084529840501202,0.0,0,False
2024-06-21,1.0084529840501202,1.0084529840501202,0.0,0,False
2024-06-22,1.0084529840501202,1.0084529840501202,0.0,0,False
2024-06-23,1.0084529840501202,1.01525021484354,0.6740255521006988,1,True
2024-06-24,1.01525021484354,1.0155360066652666,0.02814989029777948,1,True
2024-06-25,1.0155360066652666,1.0261499993956402,1.045161634911107,0,True
2024-06-26,1.0261499993956402,1.0261499993956402,0.0,0,False
2024-06-27,1.0261499993956402,1.0264014665320709,0.024505884771119923,1,True
2024-06-28,1.0264014665320709,1.0246931458297401,-0.16643786647174696,0,True
2024-06-29,1.0246931458297401,1.0144894164913707,-0.9957838968569499,2,True
2024-06-30,1.0144894164913707,1.0144894164913707,0.0,0,False
2024-07-01,1.0144894164913707,1.0144894164913707,0.0,0,False
2024-07-02,1.0144894164913707,1.0144894164913707,0.0,0,False
2024-07-03,1.0144894164913707,1.0144894164913707,0.0,0,False
2024-07-04,1.0144894164913707,1.0144894164913707,0.0,0,False
2024-07-05,1.0144894164913707,1.0340257895896134,1.9257345400220727,5,True
2024-07-06,1.0340257895896134,1.0340257895896134,0.0,0,False
2024-07-07,1.0340257895896134,1.0308340417663189,-0.3086719746672184,1,True
2024-07-08,1.0308340417663189,1.0308340417663189,0.0,0,False
2024-07-09,1.0308340417663189,1.0308340417663189,0.0,0,False
2024-07-10,1.0308340417663189,1.0308340417663189,0.0,0,False
2024-07-11,1.0308340417663189,1.0308340417663189,0.0,0,False
2024-07-12,1.0308340417663189,1.0308340417663189,0.0,0,False
2024-07-13,1.0308340417663189,1.0308340417663189,0.0,0,False
2024-07-14,1.0308340417663189,1.0308340417663189,0.0,0,False
2024-07-15,1.0308340417663189,1.0308340417663189,0.0,0,False
2024-07-16,1.0308340417663189,1.0294848896255195,-0.13087966502227655,1,True
2024-07-17,1.0294848896255195,1.0243447123913516,-0.4992960349362363,1,True
2024-07-18,1.0243447123913516,1.0243447123913516,0.0,0,False
2024-07-19,1.0243447123913516,1.0243447123913516,0.0,0,False
2024-07-20,1.0243447123913516,1.0252159444461424,0.08505262381419687,1,True
2024-07-21,1.0252159444461424,1.0252159444461424,0.0,0,False
2024-07-22,1.0252159444461424,1.0252159444461424,0.0,0,False
2024-07-23,1.0252159444461424,1.0212810725451058,-0.3838090816235096,1,True
2024-07-24,1.0212810725451058,1.0212810725451058,0.0,0,False
2024-07-25,1.0212810725451058,1.0212810725451058,0.0,0,False
2024-07-26,1.0212810725451058,1.0212810725451058,0.0,0,False
2024-07-27,1.0212810725451058,1.0212810725451058,0.0,0,False
2024-07-28,1.0212810725451058,1.0212810725451058,0.0,0,False
2024-07-29,1.0212810725451058,1.0212810725451058,0.0,0,False
2024-07-30,1.0212810725451058,1.0212810725451058,0.0,0,False
2024-07-31,1.0212810725451058,1.0161821336846433,-0.49926890819151915,1,True
2024-08-01,1.0161821336846433,1.0161821336846433,0.0,0,False
2024-08-02,1.0161821336846433,1.0161821336846433,0.0,0,False
2024-08-03,1.0161821336846433,1.0111096520507799,-0.4991705193114093,1,True
2024-08-04,1.0111096520507799,1.0111096520507799,0.0,0,False
2024-08-05,1.0111096520507799,0.9924561412383268,-1.8448553798907086,4,True
2024-08-06,0.9924561412383268,0.9924561412383268,0.0,0,False
2024-08-07,0.9924561412383268,0.9924561412383268,0.0,0,False
2024-08-08,0.9924561412383268,0.9924561412383268,0.0,0,False
2024-08-09,0.9924561412383268,0.9924561412383268,0.0,0,False
2024-08-10,0.9924561412383268,0.9924561412383268,0.0,0,False
2024-08-11,0.9924561412383268,0.9924561412383268,0.0,0,False
2024-08-12,0.9924561412383268,0.9924561412383268,0.0,0,False
2024-08-13,0.9924561412383268,0.9924561412383268,0.0,0,False
2024-08-14,0.9924561412383268,0.9924561412383268,0.0,0,False
2024-08-15,0.9924561412383268,0.9924561412383268,0.0,0,False
2024-08-16,0.9924561412383268,0.9924561412383268,0.0,0,False
2024-08-17,0.9924561412383268,0.9924561412383268,0.0,0,False
2024-08-18,0.9924561412383268,0.9924561412383268,0.0,0,False
2024-08-19,0.9924561412383268,0.9924561412383268,0.0,0,False
2024-08-20,0.9924561412383268,0.9924561412383268,0.0,0,False
2024-08-21,0.9924561412383268,0.9924561412383268,0.0,0,False
2024-08-22,0.9924561412383268,0.9924561412383268,0.0,0,False
2024-08-23,0.9924561412383268,0.9924561412383268,0.0,0,False
2024-08-24,0.9924561412383268,0.9924561412383268,0.0,0,False
2024-08-25,0.9924561412383268,0.9924561412383268,0.0,0,False
2024-08-26,0.9924561412383268,0.9924561412383268,0.0,0,False
2024-08-27,0.9924561412383268,0.9924561412383268,0.0,0,False
2024-08-28,0.9924561412383268,0.9924561412383268,0.0,0,False
2024-08-29,0.9924561412383268,0.9875033676612929,-0.49904206052412414,1,True
2024-08-30,0.9875033676612929,0.9875033676612929,0.0,0,False
2024-08-31,0.9875033676612929,0.9875033676612929,0.0,0,False
2024-09-01,0.9875033676612929,0.9825820352254798,-0.4983610787544168,1,True
2024-09-02,0.9825820352254798,0.9825820352254798,0.0,0,False
2024-09-03,0.9825820352254798,0.9825820352254798,0.0,0,False
2024-09-04,0.9825820352254798,0.9825820352254798,0.0,0,False
2024-09-05,0.9825820352254798,0.9825820352254798,0.0,0,False
2024-09-06,0.9825820352254798,0.9825820352254798,0.0,0,False
2024-09-07,0.9825820352254798,0.9825820352254798,0.0,0,False
2024-09-08,0.9825820352254798,0.9825820352254798,0.0,0,False
2024-09-09,0.9825820352254798,0.9825820352254798,0.0,0,False
2024-09-10,0.9825820352254798,0.9825820352254798,0.0,0,False
2024-09-11,0.9825820352254798,0.9825820352254798,0.0,0,False
2024-09-12,0.9825820352254798,0.9825820352254798,0.0,0,False
2024-09-13,0.9825820352254798,0.9825820352254798,0.0,0,False
2024-09-14,0.9825820352254798,0.9825820352254798,0.0,0,False
2024-09-15,0.9825820352254798,0.9825820352254798,0.0,0,False
2024-09-16,0.9825820352254798,0.9825820352254798,0.0,0,False
2024-09-17,0.9825820352254798,0.9825820352254798,0.0,0,False
2024-09-18,0.9825820352254798,0.9825820352254798,0.0,0,False
2024-09-19,0.9825820352254798,0.9819792541189626,-0.06134664434190862,1,True
2024-09-20,0.9819792541189626,0.9844650844784966,0.253144895791535,1,True
2024-09-21,0.9844650844784966,0.9786065043059825,-0.5951028903800615,1,True
2024-09-22,0.9786065043059825,0.9889911961467702,1.0611713487590713,1,True
2024-09-23,0.9889911961467702,0.985072790695197,-0.3962022581029845,0,True
2024-09-24,0.985072790695197,0.985072790695197,0.0,0,False
2024-09-25,0.985072790695197,0.985072790695197,0.0,0,False
2024-09-26,0.985072790695197,0.985072790695197,0.0,0,False
2024-09-27,0.985072790695197,0.985072790695197,0.0,0,False
2024-09-28,0.985072790695197,0.985072790695197,0.0,0,False
2024-09-29,0.985072790695197,0.985072790695197,0.0,0,False
2024-09-30,0.985072790695197,0.985072790695197,0.0,0,False
2024-10-01,0.985072790695197,0.985072790695197,0.0,0,False
2024-10-02,0.985072790695197,0.985072790695197,0.0,0,False
2024-10-03,0.985072790695197,0.9908290658245896,0.5843502311468907,1,True
2024-10-04,0.9908290658245896,0.9889506417073561,-0.18958104702653245,0,True
2024-10-05,0.9889506417073561,0.9889506417073561,0.0,0,False
2024-10-06,0.9889506417073561,0.9889506417073561,0.0,0,False
2024-10-07,0.9889506417073561,0.9889506417073561,0.0,0,False
2024-10-08,0.9889506417073561,0.9889506417073561,0.0,0,False
2024-10-09,0.9889506417073561,0.9889506417073561,0.0,0,False
2024-10-10,0.9889506417073561,0.9889506417073561,0.0,0,False
2024-10-11,0.9889506417073561,0.9878740096189592,-0.10886610948936948,1,True
2024-10-12,0.9878740096189592,0.9885645237666704,0.06989900948781713,0,True
2024-10-13,0.9885645237666704,0.9885645237666704,0.0,0,False
2024-10-14,0.9885645237666704,0.9885645237666704,0.0,0,False
2024-10-15,0.9885645237666704,0.9885645237666704,0.0,0,False
2024-10-16,0.9885645237666704,0.9885645237666704,0.0,0,False
2024-10-17,0.9885645237666704,0.9885645237666704,0.0,0,False
2024-10-18,0.9885645237666704,0.9889335858110846,0.037333126522476334,1,True
2024-10-19,0.9889335858110846,0.9850829125578102,-0.3893763250154114,1,True
2024-10-20,0.9850829125578102,0.9850829125578102,0.0,0,False
2024-10-21,0.9850829125578102,0.9946017126827696,0.9662943092011878,1,True
2024-10-22,0.9946017126827696,0.9946017126827696,0.0,0,False
2024-10-23,0.9946017126827696,0.9896351939138602,-0.4993474981571322,1,True
2024-10-24,0.9896351939138602,0.9846938250279743,-0.4993121623275698,1,True
2024-10-25,0.9846938250279743,0.9872966723156481,0.26433061947959136,1,True
2024-10-26,0.9872966723156481,0.9965699732869602,0.9392618481699255,2,True
2024-10-27,0.9965699732869602,0.9965699732869602,0.0,0,False
2024-10-28,0.9965699732869602,0.9965699732869602,0.0,0,False
2024-10-29,0.9965699732869602,0.9965699732869602,0.0,0,False
2024-10-30,0.9965699732869602,0.9965699732869602,0.0,0,False
2024-10-31,0.9965699732869602,0.9965699732869602,0.0,0,False
2024-11-01,0.9965699732869602,0.9965699732869602,0.0,0,False
2024-11-02,0.9965699732869602,0.9965699732869602,0.0,0,False
2024-11-03,0.9965699732869602,0.9965699732869602,0.0,0,False
2024-11-04,0.9965699732869602,0.9965699732869602,0.0,0,False
2024-11-05,0.9965699732869602,0.9965699732869602,0.0,0,False
2024-11-06,0.9965699732869602,0.9965699732869602,0.0,0,False
2024-11-07,0.9965699732869602,0.9965699732869602,0.0,0,False
2024-11-08,0.9965699732869602,0.9965699732869602,0.0,0,False
2024-11-09,0.9965699732869602,0.9948965068696026,-0.1679226208108564,1,True
2024-11-10,0.9948965068696026,0.9974091434020079,0.2525525534621931,0,True
2024-11-11,0.9974091434020079,0.9963475608298036,-0.1064340124839247,1,True
2024-11-12,0.9963475608298036,0.9975476827875761,0.12045213989111403,0,True
2024-11-13,0.9975476827875761,0.9975476827875761,0.0,0,False
2024-11-14,0.9975476827875761,0.9975476827875761,0.0,0,False
2024-11-15,0.9975476827875761,0.9975476827875761,0.0,0,False
2024-11-16,0.9975476827875761,0.9975476827875761,0.0,0,False
2024-11-17,0.9975476827875761,0.9975476827875761,0.0,0,False
2024-11-18,0.9975476827875761,0.9975476827875761,0.0,0,False
2024-11-19,0.9975476827875761,0.9975476827875761,0.0,0,False
2024-11-20,0.9975476827875761,0.9975476827875761,0.0,0,False
2024-11-21,0.9975476827875761,0.9975476827875761,0.0,0,False
2024-11-22,0.9975476827875761,0.9975476827875761,0.0,0,False
2024-11-23,0.9975476827875761,1.000963942187371,0.34246577469343453,1,True
2024-11-24,1.000963942187371,1.0122415422209132,1.1266739547977744,4,True
2024-11-25,1.0122415422209132,1.0122584045669671,0.0016658421286397385,1,True
2024-11-26,1.0122584045669671,1.0122584045669671,0.0,0,False
2024-11-27,1.0122584045669671,1.0122584045669671,0.0,0,False
2024-11-28,1.0122584045669671,1.0122584045669671,0.0,0,False
2024-11-29,1.0122584045669671,1.0122584045669671,0.0,0,False
2024-11-30,1.0122584045669671,1.0122584045669671,0.0,0,False
2024-12-01,1.0122584045669671,1.0122584045669671,0.0,0,False
2024-12-02,1.0122584045669671,1.0122584045669671,0.0,0,False
2024-12-03,1.0122584045669671,1.0122584045669671,0.0,0,False
2024-12-04,1.0122584045669671,1.0122584045669671,0.0,0,False
2024-12-05,1.0122584045669671,1.0162068064245142,0.39005868854564696,1,True
2024-12-06,1.0162068064245142,1.0162068064245142,0.0,0,False
2024-12-07,1.0162068064245142,1.0162068064245142,0.0,0,False
2024-12-08,1.0162068064245142,1.0162068064245142,0.0,0,False
2024-12-09,1.0162068064245142,1.0140881336587422,-0.20848834630684543,1,True
2024-12-10,1.0140881336587422,1.0140881336587422,0.0,0,False
2024-12-11,1.0140881336587422,1.0140881336587422,0.0,0,False
2024-12-12,1.0140881336587422,1.0140881336587422,0.0,0,False
2024-12-13,1.0140881336587422,1.0140881336587422,0.0,0,False
2024-12-14,1.0140881336587422,1.0140881336587422,0.0,0,False
2024-12-15,1.0140881336587422,1.0076794856491222,-0.6319616408978268,2,True
2024-12-16,1.0076794856491222,1.0047372138682926,-0.291984884353802,0,True
2024-12-17,1.0047372138682926,1.0047372138682926,0.0,0,False
2024-12-18,1.0047372138682926,1.0047372138682926,0.0,0,False
2024-12-19,1.0047372138682926,1.0047372138682926,0.0,0,False
2024-12-20,1.0047372138682926,1.006650875537287,0.1904638986772067,2,True
2024-12-21,1.006650875537287,1.006650875537287,0.0,0,False
2024-12-22,1.006650875537287,1.006650875537287,0.0,0,False
2024-12-23,1.006650875537287,1.006650875537287,0.0,0,False
2024-12-24,1.006650875537287,1.006650875537287,0.0,0,False
2024-12-25,1.006650875537287,1.0134324110603956,0.6736730367903565,1,True
2024-12-26,1.0134324110603956,1.0123885387301244,-0.10300364571713683,0,True
2024-12-27,1.0123885387301244,1.0123885387301244,0.0,0,False
2024-12-28,1.0123885387301244,1.0123885387301244,0.0,0,False
2024-12-29,1.0123885387301244,1.0123885387301244,0.0,0,False
2024-12-30,1.0123885387301244,1.0123885387301244,0.0,0,False
2024-12-31,1.0123885387301244,1.0123885387301244,0.0,0,False
