day,start_equity,end_equity,return_pct,entries,active
2024-01-02,1.0,1.0,0.0,0,False
2024-01-03,1.0,0.9927723563112387,-0.7227643688761276,6,True
2024-01-04,0.9927723563112387,0.9977689116012648,0.5032931525804418,2,True
2024-01-05,0.9977689116012648,0.995757222950537,-0.20161869420237677,1,True
2024-01-06,0.995757222950537,0.9954222019823338,-0.0336448443939541,2,True
2024-01-07,0.9954222019823338,0.9935288530021682,-0.19020562093100546,1,True
2024-01-08,0.9935288530021682,0.9978691551718779,0.4368571840258628,3,True
2024-01-09,0.9978691551718779,1.012956550762744,1.5119613140329502,0,True
2024-01-10,1.012956550762744,1.012956550762744,0.0,0,False
2024-01-11,1.012956550762744,1.0136299754245826,0.06648110043134814,1,True
2024-01-12,1.0136299754245826,1.0115968543850082,-0.20057822764393274,2,True
2024-01-13,1.0115968543850082,1.015227801835794,0.35893225992613687,4,True
2024-01-14,1.015227801835794,1.0200533019068463,0.47531204940669536,0,True
2024-01-15,1.0200533019068463,1.0200533019068463,0.0,0,False
2024-01-16,1.0200533019068463,1.0196007073083293,-0.04436970084513714,1,True
2024-01-17,1.0196007073083293,1.0238519314748011,0.41694990362401985,0,True
2024-01-18,1.0238519314748011,1.0238519314748011,0.0,0,False
2024-01-19,1.0238519314748011,1.0238519314748011,0.0,0,False
2024-01-20,1.0238519314748011,1.0372287590534452,1.306519738589107,6,True
2024-01-21,1.0372287590534452,1.0393862387326005,0.2080042286066286,0,True
2024-01-22,1.0393862387326005,1.0393862387326005,0.0,0,False
2024-01-23,1.0393862387326005,1.0197585678704524,-1.8883904876479396,8,True
2024-01-24,1.0197585678704524,1.033149595606326,1.3131566782358828,0,True
2024-01-25,1.033149595606326,1.027993126820218,-0.499101853984818,1,True
2024-01-26,1.027993126820218,1.027993126820218,0.0,0,False
2024-01-27,1.027993126820218,1.027993126820218,0.0,0,False
2024-01-28,1.027993126820218,1.026954195162327,-0.10106406655699951,1,True
2024-01-29,1.026954195162327,1.026954195162327,0.0,0,False
2024-01-30,1.026954195162327,1.026954195162327,0.0,0,False
2024-01-31,1.026954195162327,1.021824128502069,-0.49954191573725604,1,True
2024-02-01,1.021824128502069,1.021824128502069,0.0,0,False
2024-02-02,1.021824128502069,1.0213391001314012,-0.04746691305664852,2,True
2024-02-03,1.0213391001314012,1.0293449771844536,0.7838608207619169,1,True
2024-02-04,1.0293449771844536,1.0275963996501918,-0.1698728388459858,1,True
2024-02-05,1.0275963996501918,1.0275963996501918,0.0,0,False
2024-02-06,1.0275963996501918,1.0224661218591353,-0.49925026915264015,1,True
2024-02-07,1.0224661218591353,1.0215641922293262,-0.0882111994252921,3,True
2024-02-08,1.0215641922293262,1.0331084981962622,1.130061728352394,0,True
2024-02-09,1.0331084981962622,1.0331084981962622,0.0,0,False
2024-02-10,1.0331084981962622,1.0331084981962622,0.0,0,False
2024-02-11,1.0331084981962622,1.0331084981962622,0.0,0,False
2024-02-12,1.0331084981962622,1.0331084981962622,0.0,0,False
2024-02-13,1.0331084981962622,1.0331084981962622,0.0,0,False
2024-02-14,1.0331084981962622,1.0342742497116202,0.11283921460265578,1,True
2024-02-15,1.0342742497116202,1.0317649602250707,-0.24261355121710793,0,True
2024-02-16,1.0317649602250707,1.03678040642145,0.4861035594080798,1,True
2024-02-17,1.03678040642145,1.032645109209137,-0.39885950647797763,2,True
2024-02-18,1.032645109209137,1.0330167714768705,0.03599128726983203,0,True
2024-02-19,1.0330167714768705,1.0330167714768705,0.0,0,False
2024-02-20,1.0330167714768705,1.0341555621974259,0.11023932543972048,6,True
2024-02-21,1.0341555621974259,1.0191425245208459,-1.4517194729078864,5,True
2024-02-22,1.0191425245208459,1.0425061553004527,2.2924792379349856,2,True
2024-02-23,1.0425061553004527,1.0488066443481567,0.6043598894519997,1,True
2024-02-24,1.0488066443481567,1.055596880186237,0.647424944785735,2,True
2024-02-25,1.055596880186237,1.0533335986638752,-0.21440775023534586,1,True
2024-02-26,1.0533335986638752,1.058574196327286,0.49752496930302037,0,True
2024-02-27,1.058574196327286,1.0576191813106377,-0.09021710712029396,1,True
2024-02-28,1.0576191813106377,1.0575069143401175,-0.0106150656591808,1,True
2024-02-29,1.0575069143401175,1.0773472322251225,1.876140724563058,5,True
2024-03-01,1.0773472322251225,1.0730412075306182,-0.3996877297963497,1,True
2024-03-02,1.0730412075306182,1.0724921187245933,-0.051171269301808486,1,True
2024-03-03,1.0724921187245933,1.0748690186964216,0.22162400360152823,6,True
2024-03-04,1.0748690186964216,1.1024363497514889,2.5647153816471757,0,True
2024-03-05,1.1024363497514889,1.094647049001995,-0.7065533308339922,5,True
2024-03-06,1.094647049001995,1.0710301453668762,-2.1574902756692826,4,True
2024-03-07,1.0710301453668762,1.0723240474706395,0.12080912095335794,0,True
2024-03-08,1.0723240474706395,1.0729240198813101,0.055950662683157404,2,True
2024-03-09,1.0729240198813101,1.0700397127944388,-0.2688267792895993,3,True
2024-03-10,1.0700397127944388,1.0822761420718001,1.143549078697803,2,True
2024-03-11,1.0822761420718001,1.074904259222477,-0.6811462031502624,0,True
2024-03-12,1.074904259222477,1.0708975947619892,-0.3727461702855206,1,True
2024-03-13,1.0708975947619892,1.0749488741403237,0.37830688930018397,2,True
2024-03-14,1.0749488741403237,1.0839229700138888,0.8348393202180837,1,True
2024-03-15,1.0839229700138888,1.0682025860672468,-1.4503229824939123,10,True
2024-03-16,1.0682025860672468,1.0783623649077756,0.9511097401414759,1,True
2024-03-17,1.0783623649077756,1.062540798563477,-1.4671845809132722,4,True
2024-03-18,1.062540798563477,1.0638270280644682,0.12105224596836717,0,True
2024-03-19,1.0638270280644682,1.0474720885305981,-1.5373683035320385,8,True
2024-03-20,1.0474720885305981,1.044971201212204,-0.23875455449150484,0,True
2024-03-21,1.044971201212204,1.0477724737998586,0.26807175015013396,2,True
2024-03-22,1.0477724737998586,1.0485923612242762,0.07825052145569167,0,True
2024-03-23,1.0485923612242762,1.0501960897537668,0.1529410845238388,1,True
2024-03-24,1.0501960897537668,1.0475647864081432,-0.25055352722180846,2,True
2024-03-25,1.0475647864081432,1.0556576092798189,0.7725367420399865,2,True
2024-03-26,1.0556576092798189,1.069527274173551,1.3138412276679556,2,True
2024-03-27,1.069527274173551,1.0632121503190413,-0.5904593559233562,3,True
2024-03-28,1.0632121503190413,1.0588884776810235,-0.40666132687821044,0,True
2024-03-29,1.0588884776810235,1.047291456764362,-1.0952070176510897,4,True
2024-03-30,1.047291456764362,1.0472054778037503,-0.008209649764301385,0,True
2024-03-31,1.0472054778037503,1.0472054778037503,0.0,0,False
2024-04-01,1.0472054778037503,1.0454345327051096,-0.169111519771159,4,True
2024-04-02,1.0454345327051096,1.0178688578542563,-2.636767199522849,5,True
2024-04-03,1.0178688578542563,1.0007956746811082,-1.6773460590138956,1,True
2024-04-04,1.0007956746811082,1.0002129565233417,-0.05822548723065646,1,True
2024-04-05,1.0002129565233417,0.9856466332406061,-1.4563221949620564,3,True
2024-04-06,0.9856466332406061,0.9852228075321788,-0.04299976220014656,1,True
2024-04-07,0.9852228075321788,0.9999894809389329,1.4988156276793951,1,True
2024-04-08,0.9999894809389329,0.9922137797293568,-0.7775783003512449,0,True
2024-04-09,0.9922137797293568,0.9872641357758087,-0.49884853996868816,1,True
2024-04-10,0.9872641357758087,0.976134220332531,-1.1273493120999123,5,True
2024-04-11,0.976134220332531,0.9849756173544367,0.9057562820504073,1,True
2024-04-12,0.9849756173544367,0.9813712042730144,-0.36593932051876,3,True
2024-04-13,0.9813712042730144,0.9548239393521821,-2.7051196127665156,7,True
2024-04-14,0.9548239393521821,0.9093015417261093,-4.767622150001638,13,True
2024-04-15,0.9093015417261093,0.9180251471872447,0.9593743176301572,0,True
2024-04-16,0.9180251471872447,0.9180251471872447,0.0,0,False
2024-04-17,0.9180251471872447,0.9180251471872447,0.0,0,False
2024-04-18,0.9180251471872447,0.9180251471872447,0.0,0,False
2024-04-19,0.9180251471872447,0.9225226059864217,0.48990583895842654,4,True
2024-04-20,0.9225226059864217,0.9197270101329686,-0.3030381949788441,0,True
2024-04-21,0.9197270101329686,0.9197270101329686,0.0,0,False
2024-04-22,0.9197270101329686,0.9197270101329686,0.0,0,False
2024-04-23,0.9197270101329686,0.9214275106214802,0.18489187223780235,1,True
2024-04-24,0.9214275106214802,0.9185860424675283,-0.30837674382387936,1,True
2024-04-25,0.9185860424675283,0.9159360542507031,-0.28848557394870467,0,True
2024-04-26,0.9159360542507031,0.9159360542507031,0.0,0,False
2024-04-27,0.9159360542507031,0.92295866233209,0.7667137950074343,3,True
2024-04-28,0.92295866233209,0.9252981511140465,0.2534770924675245,1,True
2024-04-29,0.9252981511140465,0.9278263774499361,0.2732336958466641,2,True
2024-04-30,0.9278263774499361,0.9241199224618065,-0.3994772166659555,2,True
2024-05-01,0.9241199224618065,0.9188651940772995,-0.5686197491023393,3,True
2024-05-02,0.9188651940772995,0.9219527177927902,0.336014873062096,1,True
2024-05-03,0.9219527177927902,0.9198136512349372,-0.23201477869430054,1,True
2024-05-04,0.9198136512349372,0.9205105081602067,0.07576066351417943,0,True
2024-05-05,0.9205105081602067,0.9175677621907439,-0.3196862983502968,1,True
2024-05-06,0.9175677621907439,0.9188620012898093,0.14105106482549257,0,True
2024-05-07,0.9188620012898093,0.9235258197290673,0.5075646215330964,2,True
2024-05-08,0.9235258197290673,0.925659075841958,0.23099041383773944,2,True
2024-05-09,0.925659075841958,0.9229587590384796,-0.2917182874291213,1,True
2024-05-10,0.9229587590384796,0.9229587590384796,0.0,0,False
2024-05-11,0.9229587590384796,0.9161016217262997,-0.7429516481671894,4,True
2024-05-12,0.9161016217262997,0.9120416121958871,-0.4431833143971442,0,True
2024-05-13,0.9120416121958871,0.9129039144856321,0.09454637575898595,3,True
2024-05-14,0.9129039144856321,0.9043964025362843,-0.931917567046614,3,True
2024-05-15,0.9043964025362843,0.9093935286797573,0.552537154002275,1,True
2024-05-16,0.9093935286797573,0.9181238615610887,0.9600170449866718,0,True
2024-05-17,0.9181238615610887,0.9181238615610887,0.0,0,False
2024-05-18,0.9181238615610887,0.9230893249379192,0.5408271786322638,2,True
2024-05-19,0.9230893249379192,0.9224438536075081,-0.06992512132608653,0,True
2024-05-20,0.9224438536075081,0.919855409670947,-0.2806072073046173,1,True
2024-05-21,0.919855409670947,0.9146245712314349,-0.5686587679452071,2,True
2024-05-22,0.9146245712314349,0.9176281974329545,0.32839990264810215,1,True
2024-05-23,0.9176281974329545,0.9131892854943403,-0.4837375258336607,1,True
2024-05-24,0.9131892854943403,0.9159068985865084,0.29759581450816697,2,True
2024-05-25,0.9159068985865084,0.9154638188206511,-0.04837607037802005,0,True
2024-05-26,0.9154638188206511,0.9167421402603535,0.13963647862667017,2,True
2024-05-27,0.9167421402603535,0.92914123893533,1.3525175870561679,2,True
2024-05-28,0.92914123893533,0.9350913508307597,0.6403883119263654,1,True
2024-05-29,0.9350913508307597,0.9345424855131895,-0.05869643827659532,0,True
2024-05-30,0.9345424855131895,0.930390268042446,-0.44430483740538484,3,True
2024-05-31,0.930390268042446,0.9276361098930852,-0.29602181406686023,0,True
2024-06-01,0.9276361098930852,0.9255484461910122,-0.2250520090592012,2,True
2024-06-02,0.9255484461910122,0.9338820649066335,0.9003978938020296,0,True
2024-06-03,0.9338820649066335,0.9347482516363647,0.09275119014280353,1,True
2024-06-04,0.9347482516363647,0.9362617074279022,0.161910523917852,3,True
2024-06-05,0.9362617074279022,0.9364449763328239,0.019574538130506802,0,True
2024-06-06,0.9364449763328239,0.9374331422789748,0.10552311893654576,1,True
2024-06-07,0.9374331422789748,0.936789498209148,-0.0686602639482059,0,True
2024-06-08,0.936789498209148,0.9542273941047201,1.861452965571031,5,True
2024-06-09,0.9542273941047201,0.9542273941047201,0.0,0,False
2024-06-10,0.9542273941047201,0.9542273941047201,0.0,0,False
2024-06-11,0.9542273941047201,0.9542902424263427,0.006586304481603911,1,True
2024-06-12,0.9542902424263427,0.9635825660343472,0.9737418654075514,1,True
2024-06-13,0.9635825660343472,0.9582582050077717,-0.5525588791511771,1,True
2024-06-14,0.9582582050077717,0.9513741340313906,-0.7183941593618015,4,True
2024-06-15,0.9513741340313906,0.9592842339710058,0.8314394575871686,4,True
2024-06-16,0.9592842339710058,0.9595886184399647,0.03173037335335582,0,True
2024-06-17,0.9595886184399647,0.9500403947287329,-0.9950330305870669,2,True
2024-06-18,0.9500403947287329,0.9518018897517787,0.1854126448537663,5,True
2024-06-19,0.9518018897517787,0.9571056157196971,0.5572300312727485,0,True
2024-06-20,0.9571056157196971,0.9606670055646459,0.37209998420819623,1,True
2024-06-21,0.9606670055646459,0.9591198616149965,-0.16104893169928136,1,True
2024-06-22,0.9591198616149965,0.9597516142071592,0.0658679501328363,0,True
2024-06-23,0.9597516142071592,0.9599837938050857,0.02419163401130575,2,True
2024-06-24,0.9599837938050857,0.9599837938050857,0.0,0,False
2024-06-25,0.9599837938050857,0.9599837938050857,0.0,0,False
2024-06-26,0.9599837938050857,0.9599837938050857,0.0,0,False
2024-06-27,0.9599837938050857,0.9551998703294733,-0.4983337746411687,1,True
2024-06-28,0.9551998703294733,0.9548962706595409,-0.03178388935790588,1,True
2024-06-29,0.9548962706595409,0.9432702235754457,-1.2175193726607803,3,True
2024-06-30,0.9432702235754457,0.9393914875735297,-0.41120093743801656,0,True
2024-07-01,0.9393914875735297,0.9332807422498918,-0.65050039354968,2,True
2024-07-02,0.9332807422498918,0.9372538615056004,0.4257153368589339,0,True
2024-07-03,0.9372538615056004,0.932571698376627,-0.4995618925967449,1,True
2024-07-04,0.932571698376627,0.9199328804420052,-1.3552650114326714,4,True
2024-07-05,0.9199328804420052,0.891348779336987,-3.1071942000034047,12,True
2024-07-06,0.891348779336987,0.898811730378249,0.8372649645420838,0,True
2024-07-07,0.898811730378249,0.898811730378249,0.0,0,False
2024-07-08,0.898811730378249,0.8998532853765235,0.11588133121451794,2,True
2024-07-09,0.8998532853765235,0.9008110140819977,0.10643165069663674,1,True
2024-07-10,0.9008110140819977,0.9039365424643685,0.34696826898326094,1,True
2024-07-11,0.9039365424643685,0.8940572070648701,-1.0929235555147132,2,True
2024-07-12,0.8940572070648701,0.8940572070648701,0.0,0,False
2024-07-13,0.8940572070648701,0.8940572070648701,0.0,0,False
2024-07-14,0.8940572070648701,0.8946379963887312,0.06496109189340071,1,True
2024-07-15,0.8946379963887312,0.8965361730686918,0.21217259803660848,0,True
2024-07-16,0.8965361730686918,0.8947373687438025,-0.20063934718130838,1,True
2024-07-17,0.8947373687438025,0.8947373687438025,0.0,0,False
2024-07-18,0.8947373687438025,0.8947373687438025,0.0,0,False
2024-07-19,0.8947373687438025,0.8916980129160228,-0.3396925102219561,2,True
2024-07-20,0.8916980129160228,0.8933112910691376,0.1809220307488646,1,True
2024-07-21,0.8933112910691376,0.8929951242538506,-0.03539268096662829,1,True
2024-07-22,0.8929951242538506,0.8927379121429744,-0.028803305179425642,1,True
2024-07-23,0.8927379121429744,0.8894486720104214,-0.3684440962809843,3,True
2024-07-24,0.8894486720104214,0.8860115419499054,-0.3864337728164857,1,True
2024-07-25,0.8860115419499054,0.8851822228856524,-0.09360138384064687,0,True
2024-07-26,0.8851822228856524,0.8851822228856524,0.0,0,False
2024-07-27,0.8851822228856524,0.8851822228856524,0.0,0,False
2024-07-28,0.8851822228856524,0.8826890673374763,-0.28165449821715427,1,True
2024-07-29,0.8826890673374763,0.8826890673374763,0.0,0,False
2024-07-30,0.8826890673374763,0.8801117327281491,-0.2919866921090808,2,True
2024-07-31,0.8801117327281491,0.8683282581567208,-1.3388612074176298,4,True
2024-08-01,0.8683282581567208,0.8657259599805006,-0.29969060108031575,0,True
2024-08-02,0.8657259599805006,0.85874321425956,-0.8065769127563072,4,True
2024-08-03,0.85874321425956,0.8596566731663358,0.10637160115010147,5,True
2024-08-04,0.8596566731663358,0.8372283917702329,-2.6089812475361573,2,True
2024-08-05,0.8372283917702329,0.8206661611748999,-1.9782213262397708,8,True
2024-08-06,0.8206661611748999,0.8265334795978377,0.7149458209094295,0,True
2024-08-07,0.8265334795978377,0.8265334795978377,0.0,0,False
2024-08-08,0.8265334795978377,0.8265334795978377,0.0,0,False
2024-08-09,0.8265334795978377,0.8265334795978377,0.0,0,False
2024-08-10,0.8265334795978377,0.8265334795978377,0.0,0,False
2024-08-11,0.8265334795978377,0.8232249231643973,-0.40029309339656427,1,True
2024-08-12,0.8232249231643973,0.8232063371852648,-0.002257703649333198,1,True
2024-08-13,0.8232063371852648,0.8182902000315102,-0.5971937935468352,0,True
2024-08-14,0.8182902000315102,0.8182902000315102,0.0,0,False
2024-08-15,0.8182902000315102,0.8182902000315102,0.0,0,False
2024-08-16,0.8182902000315102,0.8182902000315102,0.0,0,False
2024-08-17,0.8182902000315102,0.8360334254187446,2.168329204792041,1,True
2024-08-18,0.8360334254187446,0.8352543075027614,-0.09319219690204772,0,True
2024-08-19,0.8352543075027614,0.8347559494523525,-0.05966542715581946,1,True
2024-08-20,0.8347559494523525,0.8273277266216851,-0.8898676116703141,2,True
2024-08-21,0.8273277266216851,0.8302393284421181,0.35192847123863835,0,True
2024-08-22,0.8302393284421181,0.8302393284421181,0.0,0,False
2024-08-23,0.8302393284421181,0.8302393284421181,0.0,0,False
2024-08-24,0.8302393284421181,0.8288231973136752,-0.17056902509066107,1,True
2024-08-25,0.8288231973136752,0.8264538606414167,-0.2858675625800333,2,True
2024-08-26,0.8264538606414167,0.827243383366436,0.09553137357318775,2,True
2024-08-27,0.827243383366436,0.8213117294183253,-0.7170385484344455,0,True
2024-08-28,0.8213117294183253,0.8229113829554406,0.1947681349014907,4,True
2024-08-29,0.8229113829554406,0.8133864436831182,-1.1574684066362195,2,True
2024-08-30,0.8133864436831182,0.8142120778746418,0.10150577230978453,0,True
2024-08-31,0.8142120778746418,0.8142120778746418,0.0,0,False
2024-09-01,0.8142120778746418,0.8117260662258258,-0.30532728712466817,1,True
2024-09-02,0.8117260662258258,0.8130861561840942,0.16755528926060137,0,True
2024-09-03,0.8130861561840942,0.8130861561840942,0.0,0,False
2024-09-04,0.8130861561840942,0.8130861561840942,0.0,0,False
2024-09-05,0.8130861561840942,0.8130861561840942,0.0,0,False
2024-09-06,0.8130861561840942,0.8128727642919699,-0.02624468397368629,1,True
2024-09-07,0.8128727642919699,0.8140048835929086,0.13927386310264023,0,True
2024-09-08,0.8140048835929086,0.8140048835929086,0.0,0,False
2024-09-09,0.8140048835929086,0.8140048835929086,0.0,0,False
2024-09-10,0.8140048835929086,0.8140048835929086,0.0,0,False
2024-09-11,0.8140048835929086,0.8099441608290977,-0.49885729750015484,1,True
2024-09-12,0.8099441608290977,0.8099441608290977,0.0,0,False
2024-09-13,0.8099441608290977,0.8097403352780985,-0.025165383103764594,1,True
2024-09-14,0.8097403352780985,0.8111731622528028,0.17694894428250674,0,True
2024-09-15,0.8111731622528028,0.8128319420140508,0.20449144996874669,1,True
2024-09-16,0.8128319420140508,0.8130327826410186,0.02470875178330889,0,True
2024-09-17,0.8130327826410186,0.8130327826410186,0.0,0,False
2024-09-18,0.8130327826410186,0.8130327826410186,0.0,0,False
2024-09-19,0.8130327826410186,0.8130327826410186,0.0,0,False
2024-09-20,0.8130327826410186,0.8130327826410186,0.0,0,False
2024-09-21,0.8130327826410186,0.8130327826410186,0.0,0,False
2024-09-22,0.8130327826410186,0.8129910151713837,-0.005137242990282953,1,True
2024-09-23,0.8129910151713837,0.812105361168498,-0.10893773564016884,0,True
2024-09-24,0.812105361168498,0.812105361168498,0.0,0,False
2024-09-25,0.812105361168498,0.812105361168498,0.0,0,False
2024-09-26,0.812105361168498,0.812105361168498,0.0,0,False
2024-09-27,0.812105361168498,0.812105361168498,0.0,0,False
2024-09-28,0.812105361168498,0.812105361168498,0.0,0,False
2024-09-29,0.812105361168498,0.812105361168498,0.0,0,False
2024-09-30,0.812105361168498,0.8104151317122654,-0.2081293311252841,1,True
2024-10-01,0.8104151317122654,0.8115289636503927,0.1374396768448749,0,True
2024-10-02,0.8115289636503927,0.7935674302543656,-2.213295421426875,7,True
2024-10-03,0.7935674302543656,0.783730820285538,-1.2395430550463327,1,True
2024-10-04,0.783730820285538,0.783730820285538,0.0,0,False
2024-10-05,0.783730820285538,0.783730820285538,0.0,0,False
2024-10-06,0.783730820285538,0.783730820285538,0.0,0,False
2024-10-07,0.783730820285538,0.783730820285538,0.0,0,False
2024-10-08,0.783730820285538,0.783730820285538,0.0,0,False
2024-10-09,0.783730820285538,0.783730820285538,0.0,0,False
2024-10-10,0.783730820285538,0.783730820285538,0.0,0,False
2024-10-11,0.783730820285538,0.783730820285538,0.0,0,False
2024-10-12,0.783730820285538,0.783730820285538,0.0,0,False
2024-10-13,0.783730820285538,0.783730820285538,0.0,0,False
2024-10-14,0.783730820285538,0.783730820285538,0.0,0,False
2024-10-15,0.783730820285538,0.7837981585344677,0.008592012357655499,1,True
2024-10-16,0.7837981585344677,0.783566650791304,-0.029536653109329958,3,True
2024-10-17,0.783566650791304,0.7813096779107725,-0.2880384046784368,2,True
2024-10-18,0.7813096779107725,0.7868061094728944,0.7034895019884191,1,True
2024-10-19,0.7868061094728944,0.7860292380514903,-0.09873733973985166,1,True
2024-10-20,0.7860292380514903,0.7873030304236697,0.16205407006704142,2,True
2024-10-21,0.7873030304236697,0.784414284573003,-0.3669166431522819,0,True
2024-10-22,0.784414284573003,0.784414284573003,0.0,0,False
2024-10-23,0.784414284573003,0.784414284573003,0.0,0,False
2024-10-24,0.784414284573003,0.7839534343264126,-0.05875087382444244,1,True
2024-10-25,0.7839534343264126,0.7836697614668715,-0.036184911899117544,0,True
2024-10-26,0.7836697614668715,0.7667949963697662,-2.1533005261705096,9,True
2024-10-27,0.7667949963697662,0.7729166109701123,0.7983378385784556,0,True
2024-10-28,0.7729166109701123,0.7729166109701123,0.0,0,False
2024-10-29,0.7729166109701123,0.7835994756606339,1.3821497091533796,2,True
2024-10-30,0.7835994756606339,0.7855986138157559,0.25512244676231255,0,True
2024-10-31,0.7855986138157559,0.7855986138157559,0.0,0,False
2024-11-01,0.7855986138157559,0.7847048971345606,-0.11376250740240401,2,True
2024-11-02,0.7847048971345606,0.7817837035177488,-0.37226652050711406,0,True
2024-11-03,0.7817837035177488,0.7763786635940971,-0.691372805461532,2,True
2024-11-04,0.7763786635940971,0.7838439708444754,0.9615549216434038,3,True
2024-11-05,0.7838439708444754,0.7852335389228833,0.17727610724755927,1,True
2024-11-06,0.7852335389228833,0.786738872090385,0.19170515431199409,1,True
2024-11-07,0.786738872090385,0.7874187988197567,0.08642343139411146,1,True
2024-11-08,0.7874187988197567,0.7830963323253197,-0.5489412369778179,2,True
2024-11-09,0.7830963323253197,0.78401275664643,0.11702574552852063,2,True
2024-11-10,0.78401275664643,0.7868262800559126,0.35886194269558747,1,True
2024-11-11,0.7868262800559126,0.786509235294864,-0.04029412452085657,2,True
2024-11-12,0.786509235294864,0.7837296739235258,-0.3534047976304078,4,True
2024-11-13,0.7837296739235258,0.7800988977329428,-0.46326894481441006,0,True
2024-11-14,0.7800988977329428,0.7749360739446842,-0.6618165726502534,4,True
2024-11-15,0.7749360739446842,0.7842748110323092,1.2050977366542925,2,True
2024-11-16,0.7842748110323092,0.7878570920537522,0.4567634929812048,0,True
2024-11-17,0.7878570920537522,0.7820160827232011,-0.7413792919379603,4,True
2024-11-18,0.7820160827232011,0.7871409201143311,0.655336572271481,1,True
2024-11-19,0.7871409201143311,0.784624889337136,-0.31964172016741843,1,True
2024-11-20,0.784624889337136,0.7859021041512635,0.16278030833389856,1,True
2024-11-21,0.7859021041512635,0.7960227596327005,1.2877755929113999,3,True
2024-11-22,0.7960227596327005,0.7924993649471198,-0.4426248675611366,0,True
2024-11-23,0.7924993649471198,0.7924993649471198,0.0,0,False
2024-11-24,0.7924993649471198,0.7949716552112793,0.3119611665965749,8,True
2024-11-25,0.7949716552112793,0.8030515294409203,1.0163726186556366,0,True
2024-11-26,0.8030515294409203,0.7988142575728064,-0.5276463231523643,2,True
2024-11-27,0.7988142575728064,0.8016585029624114,0.3560584156631297,0,True
2024-11-28,0.8016585029624114,0.799088542583989,-0.32058044278523434,2,True
2024-11-29,0.799088542583989,0.8061458635968218,0.8831713429417798,2,True
2024-11-30,0.8061458635968218,0.809591979626721,0.4274804580058911,0,True
2024-12-01,0.809591979626721,0.810079873935037,0.060264222051809035,1,True
2024-12-02,0.810079873935037,0.81270783099193,0.3244071531030013,6,True
2024-12-03,0.81270783099193,0.8254495025110077,1.5678046935423406,5,True
2024-12-04,0.8254495025110077,0.8654092034185051,4.840962504179913,1,True
2024-12-05,0.8654092034185051,0.8727539431952088,0.8487013712924263,5,True
2024-12-06,0.8727539431952088,0.8728365276401943,0.009462511814395391,1,True
2024-12-07,0.8728365276401943,0.8739575250554791,0.12843154242359045,1,True
2024-12-08,0.8739575250554791,0.8732766918208852,-0.07790232535049846,0,True
2024-12-09,0.8732766918208852,0.8732766918208852,0.0,0,False
2024-12-10,0.8732766918208852,0.8516823946849843,-2.4727898200138876,7,True
2024-12-11,0.8516823946849843,0.8639636573598304,1.4420002986428537,3,True
2024-12-12,0.8639636573598304,0.8695252953312461,0.6437351761312993,0,True
2024-12-13,0.8695252953312461,0.8695252953312461,0.0,0,False
2024-12-14,0.8695252953312461,0.8695252953312461,0.0,0,False
2024-12-15,0.8695252953312461,0.8644523068615182,-0.5834204590673076,2,True
2024-12-16,0.8644523068615182,0.8646386580051756,0.021557134173644243,0,True
2024-12-17,0.8646386580051756,0.8646386580051756,0.0,0,False
2024-12-18,0.8646386580051756,0.8603333956659396,-0.4979261914067945,2,True
2024-12-19,0.8603333956659396,0.8450270931078031,-1.7791129154400287,5,True
2024-12-20,0.8450270931078031,0.8118323254125474,-3.9282489243242513,10,True
2024-12-21,0.8118323254125474,0.8161572732297969,0.5327390499080931,1,True
2024-12-22,0.8161572732297969,0.8182058259196499,0.2509997468681746,0,True
2024-12-23,0.8182058259196499,0.816547532145431,-0.2026744031497163,1,True
2024-12-24,0.816547532145431,0.8241935487769062,0.9363835331650305,0,True
2024-12-25,0.8241935487769062,0.8241935487769062,0.0,0,False
2024-12-26,0.8241935487769062,0.8241935487769062,0.0,0,False
2024-12-27,0.8241935487769062,0.8241935487769062,0.0,0,False
2024-12-28,0.8241935487769062,0.8200813599217585,-0.4989348510735403,1,True
2024-12-29,0.8200813599217585,0.8457651443853511,3.1318580958897835,3,True
2024-12-30,0.8457651443853511,0.8430392452973694,-0.3222997667943317,0,True
2024-12-31,0.8430392452973694,0.8430392452973694,0.0,0,False
