day,start_equity,end_equity,return_pct,entries,active
2024-01-02,1.0,1.0,0.0,0,False
2024-01-03,1.0,0.9927723563112387,-0.7227643688761276,6,True
2024-01-04,0.9927723563112387,0.9968664596171334,0.412390945403307,2,True
2024-01-05,0.9968664596171334,0.9948472889226079,-0.2025517736147897,1,True
2024-01-06,0.9948472889226079,0.9951934961451258,0.03480003678684174,2,True
2024-01-07,0.9951934961451258,0.9913402695394926,-0.38718366031917917,1,True
2024-01-08,0.9913402695394926,0.9956710107251172,0.4368571840258628,3,True
2024-01-09,0.9956710107251172,1.010860801737868,1.5255833351709658,0,True
2024-01-10,1.010860801737868,1.010860801737868,0.0,0,False
2024-01-11,1.010860801737868,1.0115328331226925,0.06648110043134814,1,True
2024-01-12,1.0115328331226925,1.0042846788910493,-0.7165515536720068,2,True
2024-01-13,1.0042846788910493,1.0089896689730842,0.46849167182658746,4,True
2024-01-14,1.0089896689730842,1.0119184551951599,0.29026919820265284,0,True
2024-01-15,1.0119184551951599,1.0119184551951599,0.0,0,False
2024-01-16,1.0119184551951599,1.011469470003793,-0.04436970084514824,1,True
2024-01-17,1.011469470003793,1.0131716266716677,0.16828552105170314,0,True
2024-01-18,1.0131716266716677,1.0131716266716677,0.0,0,False
2024-01-19,1.0131716266716677,1.0131716266716677,0.0,0,False
2024-01-20,1.0131716266716677,1.025800648538642,1.2464839652548632,6,True
2024-01-21,1.025800648538642,1.0280894411373034,0.22312255328771347,0,True
2024-01-22,1.0280894411373034,1.0280894411373034,0.0,0,False
2024-01-23,1.0280894411373034,1.006146806427225,-2.134311844094494,8,True
2024-01-24,1.006146806427225,1.0186187183716189,1.239571786614424,0,True
2024-01-25,1.0186187183716189,1.0170291268855873,-0.15605363001504058,1,True
2024-01-26,1.0170291268855873,1.0170291268855873,0.0,0,False
2024-01-27,1.0170291268855873,1.0170291268855873,0.0,0,False
2024-01-28,1.0170291268855873,1.0160012758918877,-0.10106406655698841,1,True
2024-01-29,1.0160012758918877,1.0160012758918877,0.0,0,False
2024-01-30,1.0160012758918877,1.0160012758918877,0.0,0,False
2024-01-31,1.0160012758918877,1.0115440290212647,-0.4387048497267121,1,True
2024-02-01,1.0115440290212647,1.0115440290212647,0.0,0,False
2024-02-02,1.0115440290212647,1.0110638802964795,-0.04746691305664852,2,True
2024-02-03,1.0110638802964795,1.0189892139269987,0.7838608207619169,1,True
2024-02-04,1.0189892139269987,1.0172582280217666,-0.1698728388459747,1,True
2024-02-05,1.0172582280217666,1.0172582280217666,0.0,0,False
2024-02-06,1.0172582280217666,1.0121795635803905,-0.49925026915264015,1,True
2024-02-07,1.0121795635803905,1.0098340427052857,-0.23172972064443575,3,True
2024-02-08,1.0098340427052857,1.018281362590417,0.8365057551933397,0,True
2024-02-09,1.018281362590417,1.018281362590417,0.0,0,False
2024-02-10,1.018281362590417,1.018281362590417,0.0,0,False
2024-02-11,1.018281362590417,1.018281362590417,0.0,0,False
2024-02-12,1.018281362590417,1.018281362590417,0.0,0,False
2024-02-13,1.018281362590417,1.018281362590417,0.0,0,False
2024-02-14,1.018281362590417,1.019430383282409,0.11283921460263358,1,True
2024-02-15,1.019430383282409,1.0200857905097551,0.06429151397624455,0,True
2024-02-16,1.0200857905097551,1.0250444638464393,0.486103559408102,1,True
2024-02-17,1.0250444638464393,1.0216757084789185,-0.3286448038438916,2,True
2024-02-18,1.0216757084789185,1.0231309012375553,0.14243196217351706,0,True
2024-02-19,1.0231309012375553,1.0231309012375553,0.0,0,False
2024-02-20,1.0231309012375553,1.0244331572392058,0.1272814651649412,7,True
2024-02-21,1.0244331572392058,1.0156872106069945,-0.853735216437268,6,True
2024-02-22,1.0156872106069945,1.0400938312268706,2.402966224738634,3,True
2024-02-23,1.0400938312268706,1.0405501303281186,0.04387095544156061,1,True
2024-02-24,1.0405501303281186,1.0367272452716332,-0.36739076235374757,3,True
2024-02-25,1.0367272452716332,1.0331455697611356,-0.3454790569875632,1,True
2024-02-26,1.0331455697611356,1.038285726939945,0.49752496930299817,0,True
2024-02-27,1.038285726939945,1.037349015593457,-0.09021710712028286,1,True
2024-02-28,1.037349015593457,1.037238900314337,-0.0106150656591808,1,True
2024-02-29,1.037238900314337,1.0608319036847824,2.2745968516313386,5,True
2024-03-01,1.0608319036847824,1.0574922245774654,-0.3148169936930345,1,True
2024-03-02,1.0574922245774654,1.0569510923833811,-0.051171269301808486,1,True
2024-03-03,1.0569510923833811,1.0609356935118106,0.37699011403113936,6,True
2024-03-04,1.0609356935118106,1.076949240284609,1.5093795854668413,0,True
2024-03-05,1.076949240284609,1.0693283902862596,-0.7076331653602774,5,True
2024-03-06,1.0693283902862596,1.0546589267546809,-1.371838965918759,5,True
2024-03-07,1.0546589267546809,1.0538967059774584,-0.07227177980353439,0,True
2024-03-08,1.0538967059774584,1.0544863681684489,0.055950662683157404,2,True
2024-03-09,1.0544863681684489,1.045064182569088,-0.893533182010342,3,True
2024-03-10,1.045064182569088,1.0429053069008887,-0.20657828525825206,2,True
2024-03-11,1.0429053069008887,1.0390700983542742,-0.36774273956005077,0,True
2024-03-12,1.0390700983542742,1.0351970043560765,-0.3727461702855317,1,True
2024-03-13,1.0351970043560765,1.0391852571983362,0.3852651065910484,2,True
2024-03-14,1.0391852571983362,1.0340797722624597,-0.4912968982682564,1,True
2024-03-15,1.0340797722624597,1.0182745486602678,-1.5284336882068317,11,True
2024-03-16,1.0182745486602678,1.02688421999711,0.8455157155965232,1,True
2024-03-17,1.02688421999711,1.0119332746164313,-1.4559523936126584,4,True
2024-03-18,1.0119332746164313,1.0119332746164313,0.0,0,False
2024-03-19,1.0119332746164313,1.002218665773333,-0.9600048824148666,10,True
2024-03-20,1.002218665773333,0.9997992617020528,-0.24140481053736007,0,True
2024-03-21,0.9997992617020528,1.001292660829873,0.14936989704090742,2,True
2024-03-22,1.001292660829873,1.001292660829873,0.0,0,False
2024-03-23,1.001292660829873,1.0028240486846038,0.15294108452386102,1,True
2024-03-24,1.0028240486846038,0.9992759676669412,-0.3538089281281853,2,True
2024-03-25,0.9992759676669412,1.0069994246529177,0.772905307030336,2,True
2024-03-26,1.0069994246529177,1.0202297981944528,1.3138412215176087,2,True
2024-03-27,1.0202297981944528,1.0140780470417463,-0.6029770120019595,3,True
2024-03-28,1.0140780470417463,1.0128462606287707,-0.12146860062388631,0,True
2024-03-29,1.0128462606287707,1.0006479663668315,-1.2043579303305685,4,True
2024-03-30,1.0006479663668315,0.9997564615826345,-0.08909274931461209,0,True
2024-03-31,0.9997564615826345,0.9997564615826345,0.0,0,False
2024-04-01,0.9997564615826345,0.9975341991219052,-0.22228037988486493,4,True
2024-04-02,0.9975341991219052,0.9851595027343906,-1.2405285351026252,5,True
2024-04-03,0.9851595027343906,0.983332216045152,-0.1854813037043046,1,True
2024-04-04,0.983332216045152,0.9827596660712635,-0.05822548723066756,1,True
2024-04-05,0.9827596660712635,0.9742910556165133,-0.8617173401717637,3,True
2024-04-06,0.9742910556165133,0.9738721127794608,-0.042999762200157665,1,True
2024-04-07,0.9738721127794608,0.9884686601994109,1.4988156276793951,1,True
2024-04-08,0.9884686601994109,0.9830376338071414,-0.5494384001182073,0,True
2024-04-09,0.9830376338071414,0.9781337649235518,-0.49884853996868816,1,True
2024-04-10,0.9781337649235518,0.9671067806532694,-1.12734931209989,5,True
2024-04-11,0.9671067806532694,0.9654347244152499,-0.17289261862997174,1,True
2024-04-12,0.9654347244152499,0.9633715591940968,-0.21370323326652674,3,True
2024-04-13,0.9633715591940968,0.9419299809331421,-2.225681052790429,7,True
2024-04-14,0.9419299809331421,0.9017294045984316,-4.267894339119016,13,True
2024-04-15,0.9017294045984316,0.9078817444723295,0.6822822725446764,0,True
2024-04-16,0.9078817444723295,0.9078817444723295,0.0,0,False
2024-04-17,0.9078817444723295,0.9078817444723295,0.0,0,False
2024-04-18,0.9078817444723295,0.9078817444723295,0.0,0,False
2024-04-19,0.9078817444723295,0.9112982935360001,0.3763209343587315,4,True
2024-04-20,0.9112982935360001,0.9090211039691701,-0.24988410304095376,0,True
2024-04-21,0.9090211039691701,0.9090211039691701,0.0,0,False
2024-04-22,0.9090211039691701,0.9090211039691701,0.0,0,False
2024-04-23,0.9090211039691701,0.9107018101073355,0.18489187223780235,1,True
2024-04-24,0.9107018101073355,0.9077692999063232,-0.3220055311701553,1,True
2024-04-25,0.9077692999063232,0.9077692999063232,0.0,0,False
2024-04-26,0.9077692999063232,0.9077692999063232,0.0,0,False
2024-04-27,0.9077692999063232,0.9143115275200042,0.7206927590915679,3,True
2024-04-28,0.9143115275200042,0.9170866109704277,0.303516183149366,1,True
2024-04-29,0.9170866109704277,0.9189794990312112,0.20640232210789033,2,True
2024-04-30,0.9189794990312112,0.9182111470143244,-0.08360926633258492,2,True
2024-05-01,0.9182111470143244,0.9148290121472689,-0.3683395565445835,3,True
2024-05-02,0.9148290121472689,0.9159689627241754,0.124608048254915,1,True
2024-05-03,0.9159689627241754,0.9142751145632921,-0.1849241873704499,1,True
2024-05-04,0.9142751145632921,0.9145462883418244,0.0296599758883076,0,True
2024-05-05,0.9145462883418244,0.9125423716723663,-0.21911593705020715,1,True
2024-05-06,0.9125423716723663,0.9125423716723663,0.0,0,False
2024-05-07,0.9125423716723663,0.9171741139074743,0.5075646215330964,2,True
2024-05-08,0.9171741139074743,0.9190047370579294,0.19959385275889474,2,True
2024-05-09,0.9190047370579294,0.9143384428111738,-0.5077551897821664,1,True
2024-05-10,0.9143384428111738,0.9143384428111738,0.0,0,False
2024-05-11,0.9143384428111738,0.9072007991723792,-0.7806347523625523,4,True
2024-05-12,0.9072007991723792,0.9042916937345132,-0.3206683063462723,0,True
2024-05-13,0.9042916937345132,0.906038313619916,0.19314784128887652,3,True
2024-05-14,0.906038313619916,0.9051518788562597,-0.09783634426172583,3,True
2024-05-15,0.9051518788562597,0.9103651322256388,0.5759534384402354,2,True
2024-05-16,0.9103651322256388,0.9191047885366975,0.9600165913310255,0,True
2024-05-17,0.9191047885366975,0.9191047885366975,0.0,0,False
2024-05-18,0.9191047885366975,0.9240755570332146,0.5408271786322638,2,True
2024-05-19,0.9240755570332146,0.9234939257297025,-0.062941963899521,0,True
2024-05-20,0.9234939257297025,0.9198280037519093,-0.39696221877112414,1,True
2024-05-21,0.9198280037519093,0.9145831623291716,-0.5701980589136735,2,True
2024-05-22,0.9145831623291716,0.9167959093681618,0.2419404959692173,1,True
2024-05-23,0.9167959093681618,0.9122190174056812,-0.49922691797729124,1,True
2024-05-24,0.9122190174056812,0.914933743020628,0.29759581450816697,2,True
2024-05-25,0.914933743020628,0.9144911340291921,-0.04837607037802005,0,True
2024-05-26,0.9144911340291921,0.9157680972461036,0.13963647862667017,2,True
2024-05-27,0.9157680972461036,0.918758650041756,0.32656223826159625,2,True
2024-05-28,0.918758650041756,0.9234880396900461,0.514758652675007,1,True
2024-05-29,0.9234880396900461,0.9229453088384922,-0.05876966763272984,0,True
2024-05-30,0.9229453088384922,0.9228597980140752,-0.009264993667346122,3,True
2024-05-31,0.9228597980140752,0.9184860734694681,-0.473931636638536,0,True
2024-06-01,0.9184860734694681,0.9164190021081959,-0.2250520090592123,2,True
2024-06-02,0.9164190021081959,0.9246704195015797,0.9003978938020296,0,True
2024-06-03,0.9246704195015797,0.925528062320566,0.09275119014280353,1,True
2024-06-04,0.925528062320566,0.9239342656639303,-0.17220403373178206,3,True
2024-06-05,0.9239342656639303,0.9230006198962579,-0.10105110313248789,0,True
2024-06-06,0.9230006198962579,0.923974598938176,0.10552311893654576,1,True
2024-06-07,0.923974598938176,0.9228634459524616,-0.12025795806414052,0,True
2024-06-08,0.9228634459524616,0.9400421149353145,1.8614529655710088,5,True
2024-06-09,0.9400421149353145,0.9400421149353145,0.0,0,False
2024-06-10,0.9400421149353145,0.9400421149353145,0.0,0,False
2024-06-11,0.9400421149353145,0.9401040289712594,0.006586304481603911,1,True
2024-06-12,0.9401040289712594,0.9377017164425175,-0.25553688259061236,1,True
2024-06-13,0.9377017164425175,0.9330282855675759,-0.4983920571961731,1,True
2024-06-14,0.9330282855675759,0.9268901213829627,-0.657875466324076,4,True
2024-06-15,0.9268901213829627,0.9352778330507396,0.9049305278237441,4,True
2024-06-16,0.9352778330507396,0.9355746014220642,0.03173050411731104,0,True
2024-06-17,0.9355746014220642,0.9286013737686171,-0.7453417015434005,2,True
2024-06-18,0.9286013737686171,0.9302643403844029,0.17908293728199354,5,True
2024-06-19,0.9302643403844029,0.9302643403844029,0.0,0,False
2024-06-20,0.9302643403844029,0.9343242559713614,0.4364260147046828,1,True
2024-06-21,0.9343242559713614,0.9328779288451374,-0.15479926984451886,1,True
2024-06-22,0.9328779288451374,0.9353658991513222,0.2666983781323573,0,True
2024-06-23,0.9353658991513222,0.9355921794463113,0.02419163401130575,2,True
2024-06-24,0.9355921794463113,0.9355921794463113,0.0,0,False
2024-06-25,0.9355921794463113,0.9355921794463113,0.0,0,False
2024-06-26,0.9355921794463113,0.9355921794463113,0.0,0,False
2024-06-27,0.9355921794463113,0.930929807623229,-0.4983337746411687,1,True
2024-06-28,0.930929807623229,0.9306339219231742,-0.03178388935791698,1,True
2024-06-29,0.9306339219231742,0.9200233912842218,-1.1401401119169874,3,True
2024-06-30,0.9200233912842218,0.9177345532812331,-0.24878041413640695,0,True
2024-07-01,0.9177345532812331,0.9117646864003972,-0.6505003935496911,2,True
2024-07-02,0.9117646864003972,0.9156462085064674,0.4257153368589339,0,True
2024-07-03,0.9156462085064674,0.9127011496257565,-0.3216372058717498,1,True
2024-07-04,0.9127011496257565,0.9046627355527632,-0.8807279443319826,4,True
2024-07-05,0.9046627355527632,0.875974588845525,-3.171142745225297,15,True
2024-07-06,0.875974588845525,0.8822682445973691,0.7184746945843035,0,True
2024-07-07,0.8822682445973691,0.8822682445973691,0.0,0,False
2024-07-08,0.8822682445973691,0.8810044527648286,-0.14324349088605803,2,True
2024-07-09,0.8810044527648286,0.8808621555414314,-0.016151703087385894,1,True
2024-07-10,0.8808621555414314,0.8839207987204533,0.3472328967455418,1,True
2024-07-11,0.8839207987204533,0.8742602200991436,-1.0929235555147132,2,True
2024-07-12,0.8742602200991436,0.8742602200991436,0.0,0,False
2024-07-13,0.8742602200991436,0.8742602200991436,0.0,0,False
2024-07-14,0.8742602200991436,0.8748281490841097,0.06496109189340071,1,True
2024-07-15,0.8748281490841097,0.8759934575637526,0.13320427341791952,0,True
2024-07-16,0.8759934575637526,0.8741799039706373,-0.20702821207809752,1,True
2024-07-17,0.8741799039706373,0.8741799039706373,0.0,0,False
2024-07-18,0.8741799039706373,0.8741799039706373,0.0,0,False
2024-07-19,0.8741799039706373,0.8712103803109836,-0.339692510221945,2,True
2024-07-20,0.8712103803109836,0.8727865918231371,0.1809220307488646,1,True
2024-07-21,0.8727865918231371,0.8724776892491736,-0.03539268096663939,1,True
2024-07-22,0.8724776892491736,0.8723245738586607,-0.017549490651691535,1,True
2024-07-23,0.8723245738586607,0.8693529832045674,-0.34065194804138166,3,True
2024-07-24,0.8693529832045674,0.8683498343186912,-0.11539028510358929,1,True
2024-07-25,0.8683498343186912,0.867604827216492,-0.08579573263622908,0,True
2024-07-26,0.867604827216492,0.867604827216492,0.0,0,False
2024-07-27,0.867604827216492,0.867604827216492,0.0,0,False
2024-07-28,0.867604827216492,0.8655085630738838,-0.24161508521496344,1,True
2024-07-29,0.8655085630738838,0.8655085630738838,0.0,0,False
2024-07-30,0.8655085630738838,0.8620329579359393,-0.4015679666531269,2,True
2024-07-31,0.8620329579359393,0.851057628646287,-1.2731913772684234,4,True
2024-08-01,0.851057628646287,0.84924956645957,-0.21244885491397136,0,True
2024-08-02,0.84924956645957,0.8447346671127188,-0.5316339890137689,4,True
2024-08-03,0.8447346671127188,0.8416299876639265,-0.3675330928946119,6,True
2024-08-04,0.8416299876639265,0.8284811130149865,-1.5623106165022382,3,True
2024-08-05,0.8284811130149865,0.8140363686112077,-1.7435212676378264,8,True
2024-08-06,0.8140363686112077,0.8157554006703485,0.21117386463624932,0,True
2024-08-07,0.8157554006703485,0.8157554006703485,0.0,0,False
2024-08-08,0.8157554006703485,0.8157554006703485,0.0,0,False
2024-08-09,0.8157554006703485,0.8157554006703485,0.0,0,False
2024-08-10,0.8157554006703485,0.8157554006703485,0.0,0,False
2024-08-11,0.8157554006703485,0.8147316938264668,-0.12549188678866452,1,True
2024-08-12,0.8147316938264668,0.8155297070653306,0.09794798028732732,1,True
2024-08-13,0.8155297070653306,0.8124750174887165,-0.3745650894320329,0,True
2024-08-14,0.8124750174887165,0.8124750174887165,0.0,0,False
2024-08-15,0.8124750174887165,0.8124750174887165,0.0,0,False
2024-08-16,0.8124750174887165,0.8124750174887165,0.0,0,False
2024-08-17,0.8124750174887165,0.8285512848954723,1.9786783668063856,1,True
2024-08-18,0.8285512848954723,0.8285512848954723,0.0,0,False
2024-08-19,0.8285512848954723,0.8280569262321342,-0.059665427155830564,1,True
2024-08-20,0.8280569262321342,0.821741625714297,-0.7626650194900719,2,True
2024-08-21,0.821741625714297,0.821741625714297,0.0,0,False
2024-08-22,0.821741625714297,0.821741625714297,0.0,0,False
2024-08-23,0.821741625714297,0.821741625714297,0.0,0,False
2024-08-24,0.821741625714297,0.820339989034552,-0.17056902509066107,1,True
2024-08-25,0.820339989034552,0.8172846226611807,-0.3724512292722748,2,True
2024-08-26,0.8172846226611807,0.8190173117982722,0.2120055962205214,2,True
2024-08-27,0.8190173117982722,0.8132651966223902,-0.7023191198794576,0,True
2024-08-28,0.8132651966223902,0.813664288675475,0.04907280610830789,4,True
2024-08-29,0.813664288675475,0.8122028104069735,-0.1796168627334782,3,True
2024-08-30,0.8122028104069735,0.8139802986045515,0.21884782652836776,0,True
2024-08-31,0.8139802986045515,0.8139802986045515,0.0,0,False
2024-09-01,0.8139802986045515,0.8109883477739275,-0.36757042347993485,1,True
2024-09-02,0.8109883477739275,0.8109883477739275,0.0,0,False
2024-09-03,0.8109883477739275,0.8109883477739275,0.0,0,False
2024-09-04,0.8109883477739275,0.8109883477739275,0.0,0,False
2024-09-05,0.8109883477739275,0.8109883477739275,0.0,0,False
2024-09-06,0.8109883477739275,0.8107755064449909,-0.026244683973675187,1,True
2024-09-07,0.8107755064449909,0.8089631148418103,-0.2235380310299906,0,True
2024-09-08,0.8089631148418103,0.8089631148418103,0.0,0,False
2024-09-09,0.8089631148418103,0.8089631148418103,0.0,0,False
2024-09-10,0.8089631148418103,0.8089631148418103,0.0,0,False
2024-09-11,0.8089631148418103,0.8049275433093374,-0.49885729750015484,1,True
2024-09-12,0.8049275433093374,0.8049275433093374,0.0,0,False
2024-09-13,0.8049275433093374,0.8025290049085089,-0.2979819016960539,1,True
2024-09-14,0.8025290049085089,0.8025290049085089,0.0,0,False
2024-09-15,0.8025290049085089,0.8041701081070659,0.20449144996872448,1,True
2024-09-16,0.8041701081070659,0.8043688085029939,0.024708751783331095,0,True
2024-09-17,0.8043688085029939,0.8043688085029939,0.0,0,False
2024-09-18,0.8043688085029939,0.8043688085029939,0.0,0,False
2024-09-19,0.8043688085029939,0.8043688085029939,0.0,0,False
2024-09-20,0.8043688085029939,0.8043688085029939,0.0,0,False
2024-09-21,0.8043688085029939,0.8043688085029939,0.0,0,False
2024-09-22,0.8043688085029939,0.8020741466501146,-0.28527484266201997,1,True
2024-09-23,0.8020741466501146,0.8020741466501146,0.0,0,False
2024-09-24,0.8020741466501146,0.8020741466501146,0.0,0,False
2024-09-25,0.8020741466501146,0.8020741466501146,0.0,0,False
2024-09-26,0.8020741466501146,0.8020741466501146,0.0,0,False
2024-09-27,0.8020741466501146,0.8020741466501146,0.0,0,False
2024-09-28,0.8020741466501146,0.8020741466501146,0.0,0,False
2024-09-29,0.8020741466501146,0.8020741466501146,0.0,0,False
2024-09-30,0.8020741466501146,0.8004047950935629,-0.2081293311252841,1,True
2024-10-01,0.8004047950935629,0.8015048688573903,0.1374396768448527,0,True
2024-10-02,0.8015048688573903,0.7866666253076189,-1.8512979928524298,7,True
2024-10-03,0.7866666253076189,0.7802024259515574,-0.8217203003284546,1,True
2024-10-04,0.7802024259515574,0.7802024259515574,0.0,0,False
2024-10-05,0.7802024259515574,0.7802024259515574,0.0,0,False
2024-10-06,0.7802024259515574,0.7802024259515574,0.0,0,False
2024-10-07,0.7802024259515574,0.7802024259515574,0.0,0,False
2024-10-08,0.7802024259515574,0.7802024259515574,0.0,0,False
2024-10-09,0.7802024259515574,0.7802024259515574,0.0,0,False
2024-10-10,0.7802024259515574,0.7802024259515574,0.0,0,False
2024-10-11,0.7802024259515574,0.7802024259515574,0.0,0,False
2024-10-12,0.7802024259515574,0.7802024259515574,0.0,0,False
2024-10-13,0.7802024259515574,0.7802024259515574,0.0,0,False
2024-10-14,0.7802024259515574,0.7802024259515574,0.0,0,False
2024-10-15,0.7802024259515574,0.78026946104041,0.008592012357655499,1,True
2024-10-16,0.78026946104041,0.7806794464284744,0.05254407721120291,3,True
2024-10-17,0.7806794464284744,0.780352490596454,-0.04188093250261371,2,True
2024-10-18,0.780352490596454,0.7840854406347222,0.47836715884830294,1,True
2024-10-19,0.7840854406347222,0.7833182821700072,-0.09784118221783933,1,True
2024-10-20,0.7833182821700072,0.784587681327843,0.16205407006704142,2,True
2024-10-21,0.784587681327843,0.7835776936322415,-0.12872846714749864,0,True
2024-10-22,0.7835776936322415,0.7835776936322415,0.0,0,False
2024-10-23,0.7835776936322415,0.7835776936322415,0.0,0,False
2024-10-24,0.7835776936322415,0.7827758744147061,-0.10232797896767565,1,True
2024-10-25,0.7827758744147061,0.7827758744147061,0.0,0,False
2024-10-26,0.7827758744147061,0.7697814260816275,-1.6600471166532516,9,True
2024-10-27,0.7697814260816275,0.7680945219941773,-0.21914065867202348,1,True
2024-10-28,0.7680945219941773,0.7680945219941773,0.0,0,False
2024-10-29,0.7680945219941773,0.7787107381959429,1.3821497091534019,2,True
2024-10-30,0.7787107381959429,0.7806974040844291,0.25512244676229034,0,True
2024-10-31,0.7806974040844291,0.7806974040844291,0.0,0,False
2024-11-01,0.7806974040844291,0.7802186522766014,-0.06132360698563044,2,True
2024-11-02,0.7802186522766014,0.7788882142502606,-0.17052117665461441,0,True
2024-11-03,0.7788882142502606,0.7769264243379552,-0.2518705350027295,2,True
2024-11-04,0.7769264243379552,0.7843844099921479,0.9599346116394347,3,True
2024-11-05,0.7843844099921479,0.7851201992189512,0.09380467248332192,1,True
2024-11-06,0.7851201992189512,0.7857876980996005,0.08501868647798894,1,True
2024-11-07,0.7857876980996005,0.7864669952950849,0.0864479295269227,1,True
2024-11-08,0.7864669952950849,0.784308332195061,-0.2744759936447072,2,True
2024-11-09,0.784308332195061,0.7830686201281949,-0.1580643754474087,2,True
2024-11-10,0.7830686201281949,0.7851866494983306,0.2704781312510063,1,True
2024-11-11,0.7851866494983306,0.7859672618650178,0.0994174273321935,2,True
2024-11-12,0.7859672618650178,0.7780354932815525,-1.0091728966730718,4,True
2024-11-13,0.7780354932815525,0.7764112843867989,-0.20875768634964764,0,True
2024-11-14,0.7764112843867989,0.7779522421890744,0.19847184517580718,4,True
2024-11-15,0.7779522421890744,0.7831312953052072,0.6657289272101741,3,True
2024-11-16,0.7831312953052072,0.778697290719047,-0.566189170671838,0,True
2024-11-17,0.778697290719047,0.7757488163760881,-0.3786419161977972,6,True
2024-11-18,0.7757488163760881,0.7767936667744263,0.13468926748987364,1,True
2024-11-19,0.7767936667744263,0.774199810817882,-0.33391826780914124,1,True
2024-11-20,0.774199810817882,0.7756077394990825,0.1818559836268996,1,True
2024-11-21,0.7756077394990825,0.7868200339219926,1.4456140458515065,3,True
2024-11-22,0.7868200339219926,0.782867780054863,-0.5023072236009507,0,True
2024-11-23,0.782867780054863,0.782867780054863,0.0,0,False
2024-11-24,0.782867780054863,0.7919651329490836,1.1620548355666172,9,True
2024-11-25,0.7919651329490836,0.7959084569488568,0.49791636471283596,0,True
2024-11-26,0.7959084569488568,0.791367100181147,-0.5705878267859177,2,True
2024-11-27,0.791367100181147,0.791367100181147,0.0,0,False
2024-11-28,0.791367100181147,0.7904683282694475,-0.11357205922432057,2,True
2024-11-29,0.7904683282694475,0.7974495180197543,0.883171342941802,2,True
2024-11-30,0.7974495180197543,0.7998495640220226,0.3009652583687128,0,True
2024-12-01,0.7998495640220226,0.8003315871393654,0.06026422205183124,1,True
2024-12-02,0.8003315871393654,0.8006552337200382,0.040439061243313645,9,True
2024-12-03,0.8006552337200382,0.7961757800960004,-0.559473470650429,5,True
2024-12-04,0.7961757800960004,0.8336732773225728,4.709700817833351,1,True
2024-12-05,0.8336732773225728,0.8358848788621065,0.2652839667161233,6,True
2024-12-06,0.8358848788621065,0.8327664833488709,-0.3730651902066562,1,True
2024-12-07,0.8327664833488709,0.832170670256374,-0.07154623828049544,1,True
2024-12-08,0.832170670256374,0.8311296443213153,-0.12509764790652467,0,True
2024-12-09,0.8311296443213153,0.8311296443213153,0.0,0,False
2024-12-10,0.8311296443213153,0.8105775550854203,-2.4727898200138765,7,True
2024-12-11,0.8105775550854203,0.8254858296191391,1.8392163020289454,4,True
2024-12-12,0.8254858296191391,0.8316367070815075,0.7451221137504405,0,True
2024-12-13,0.8316367070815075,0.8316367070815075,0.0,0,False
2024-12-14,0.8316367070815075,0.8316367070815075,0.0,0,False
2024-12-15,0.8316367070815075,0.8267847683872802,-0.5834204590673187,2,True
2024-12-16,0.8267847683872802,0.8252018600687695,-0.19145349298080871,0,True
2024-12-17,0.8252018600687695,0.8252018600687695,0.0,0,False
2024-12-18,0.8252018600687695,0.8210929638755111,-0.4979261914067834,2,True
2024-12-19,0.8210929638755111,0.8051277669090414,-1.944383604399058,6,True
2024-12-20,0.8051277669090414,0.7745072290394083,-3.8031898945912856,10,True
2024-12-21,0.7745072290394083,0.7746960819686807,0.024383623830948054,1,True
2024-12-22,0.7746960819686807,0.7766405671734197,0.2509997468681746,0,True
2024-12-23,0.7766405671734197,0.7748043622952269,-0.2364291740355129,1,True
2024-12-24,0.7748043622952269,0.7748043622952269,0.0,0,False
2024-12-25,0.7748043622952269,0.7748043622952269,0.0,0,False
2024-12-26,0.7748043622952269,0.7748043622952269,0.0,0,False
2024-12-27,0.7748043622952269,0.7748043622952269,0.0,0,False
2024-12-28,0.7748043622952269,0.7709385933040979,-0.4989348510735403,1,True
2024-12-29,0.7709385933040979,0.7948996881351162,3.108041942526918,3,True
2024-12-30,0.7948996881351162,0.7937677037879111,-0.14240593676176916,0,True
2024-12-31,0.7937677037879111,0.7937677037879111,0.0,0,False
