day,start_equity,end_equity,return_pct,entries,active
2024-01-02,1.0,1.0,0.0,0,False
2024-01-03,1.0,1.0051857611110393,0.51857611110393,3,True
2024-01-04,1.0051857611110393,1.0072211380248393,0.20248763885695187,0,True
2024-01-05,1.0072211380248393,1.0072211380248393,0.0,0,False
2024-01-06,1.0072211380248393,1.0072211380248393,0.0,0,False
2024-01-07,1.0072211380248393,1.0072211380248393,0.0,0,False
2024-01-08,1.0072211380248393,1.0072211380248393,0.0,0,False
2024-01-09,1.0072211380248393,1.0072211380248393,0.0,0,False
2024-01-10,1.0072211380248393,1.0072211380248393,0.0,0,False
2024-01-11,1.0072211380248393,1.0072211380248393,0.0,0,False
2024-01-12,1.0072211380248393,1.0072211380248393,0.0,0,False
2024-01-13,1.0072211380248393,1.0072211380248393,0.0,0,False
2024-01-14,1.0072211380248393,1.0072211380248393,0.0,0,False
2024-01-15,1.0072211380248393,1.0072211380248393,0.0,0,False
2024-01-16,1.0072211380248393,1.0072211380248393,0.0,0,False
2024-01-17,1.0072211380248393,1.0072211380248393,0.0,0,False
2024-01-18,1.0072211380248393,1.0072211380248393,0.0,0,False
2024-01-19,1.0072211380248393,1.0072211380248393,0.0,0,False
2024-01-20,1.0072211380248393,1.0072211380248393,0.0,0,False
2024-01-21,1.0072211380248393,1.0072211380248393,0.0,0,False
2024-01-22,1.0072211380248393,1.0072211380248393,0.0,0,False
2024-01-23,1.0072211380248393,0.9971898162574625,-0.9959403539770983,2,True
2024-01-24,0.9971898162574625,0.9971898162574625,0.0,0,False
2024-01-25,0.9971898162574625,0.9971898162574625,0.0,0,False
2024-01-26,0.9971898162574625,0.9971898162574625,0.0,0,False
2024-01-27,0.9971898162574625,0.9971898162574625,0.0,0,False
2024-01-28,0.9971898162574625,0.9962795142797645,-0.09128673025508016,1,True
2024-01-29,0.9962795142797645,0.9962795142797645,0.0,0,False
2024-01-30,0.9962795142797645,0.9962795142797645,0.0,0,False
2024-01-31,0.9962795142797645,0.9962795142797645,0.0,0,False
2024-02-01,0.9962795142797645,0.9962795142797645,0.0,0,False
2024-02-02,0.9962795142797645,0.9962795142797645,0.0,0,False
2024-02-03,0.9962795142797645,0.9962795142797645,0.0,0,False
2024-02-04,0.9962795142797645,0.9962795142797645,0.0,0,False
2024-02-05,0.9962795142797645,0.9962795142797645,0.0,0,False
2024-02-06,0.9962795142797645,0.9913058575078851,-0.49922302933980145,1,True
2024-02-07,0.9913058575078851,0.9913058575078851,0.0,0,False
2024-02-08,0.9913058575078851,0.9913058575078851,0.0,0,False
2024-02-09,0.9913058575078851,0.9913058575078851,0.0,0,False
2024-02-10,0.9913058575078851,0.9913058575078851,0.0,0,False
2024-02-11,0.9913058575078851,0.9913058575078851,0.0,0,False
2024-02-12,0.9913058575078851,0.9913058575078851,0.0,0,False
2024-02-13,0.9913058575078851,0.9913058575078851,0.0,0,False
2024-02-14,0.9913058575078851,0.9913058575078851,0.0,0,False
2024-02-15,0.9913058575078851,0.9913058575078851,0.0,0,False
2024-02-16,0.9913058575078851,0.9913058575078851,0.0,0,False
2024-02-17,0.9913058575078851,0.9913058575078851,0.0,0,False
2024-02-18,0.9913058575078851,0.9913058575078851,0.0,0,False
2024-02-19,0.9913058575078851,0.9913058575078851,0.0,0,False
2024-02-20,0.9913058575078851,0.9913058575078851,0.0,0,False
2024-02-21,0.9913058575078851,0.9961195531214748,0.4855913618518448,1,True
2024-02-22,0.9961195531214748,0.9961195531214748,0.0,0,False
2024-02-23,0.9961195531214748,0.9961195531214748,0.0,0,False
2024-02-24,0.9961195531214748,0.9961195531214748,0.0,0,False
2024-02-25,0.9961195531214748,0.9961195531214748,0.0,0,False
2024-02-26,0.9961195531214748,0.9961195531214748,0.0,0,False
2024-02-27,0.9961195531214748,0.9953246245272183,-0.07980252889981942,1,True
2024-02-28,0.9953246245272183,0.9953246245272183,0.0,0,False
2024-02-29,0.9953246245272183,0.9953246245272183,0.0,0,False
2024-03-01,0.9953246245272183,0.9953246245272183,0.0,0,False
2024-03-02,0.9953246245272183,0.9953246245272183,0.0,0,False
2024-03-03,0.9953246245272183,1.0073193302537709,1.2051048905024508,4,True
2024-03-04,1.0073193302537709,1.0095101119901135,0.21748631943663277,0,True
2024-03-05,1.0095101119901135,1.0081066842768343,-0.1390206691949447,1,True
2024-03-06,1.0081066842768343,1.0081066842768343,0.0,0,False
2024-03-07,1.0081066842768343,1.0081066842768343,0.0,0,False
2024-03-08,1.0081066842768343,1.0081066842768343,0.0,0,False
2024-03-09,1.0081066842768343,1.0081066842768343,0.0,0,False
2024-03-10,1.0081066842768343,1.0081066842768343,0.0,0,False
2024-03-11,1.0081066842768343,1.0081066842768343,0.0,0,False
2024-03-12,1.0081066842768343,1.0081066842768343,0.0,0,False
2024-03-13,1.0081066842768343,1.0081066842768343,0.0,0,False
2024-03-14,1.0081066842768343,1.0081066842768343,0.0,0,False
2024-03-15,1.0081066842768343,1.0081066842768343,0.0,0,False
2024-03-16,1.0081066842768343,1.0081066842768343,0.0,0,False
2024-03-17,1.0081066842768343,1.0081066842768343,0.0,0,False
2024-03-18,1.0081066842768343,1.0081066842768343,0.0,0,False
2024-03-19,1.0081066842768343,1.0081066842768343,0.0,0,False
2024-03-20,1.0081066842768343,1.0081066842768343,0.0,0,False
2024-03-21,1.0081066842768343,1.0081066842768343,0.0,0,False
2024-03-22,1.0081066842768343,1.0081066842768343,0.0,0,False
2024-03-23,1.0081066842768343,1.0081066842768343,0.0,0,False
2024-03-24,1.0081066842768343,1.0081066842768343,0.0,0,False
2024-03-25,1.0081066842768343,1.0081066842768343,0.0,0,False
2024-03-26,1.0081066842768343,1.0081066842768343,0.0,0,False
2024-03-27,1.0081066842768343,1.0030671751241158,-0.4998983967985038,1,True
2024-03-28,1.0030671751241158,1.0030671751241158,0.0,0,False
2024-03-29,1.0030671751241158,0.9980558278324464,-0.4996023612326206,1,True
2024-03-30,0.9980558278324464,0.9980558278324464,0.0,0,False
2024-03-31,0.9980558278324464,0.9980558278324464,0.0,0,False
2024-04-01,0.9980558278324464,0.9980558278324464,0.0,0,False
2024-04-02,0.9980558278324464,0.9980558278324464,0.0,0,False
2024-04-03,0.9980558278324464,0.9980558278324464,0.0,0,False
2024-04-04,0.9980558278324464,0.9980558278324464,0.0,0,False
2024-04-05,0.9980558278324464,0.9979966309694743,-0.005931217605392725,1,True
2024-04-06,0.9979966309694743,0.9978530849894416,-0.014383413288010516,0,True
2024-04-07,0.9978530849894416,0.9978530849894416,0.0,0,False
2024-04-08,0.9978530849894416,0.9978530849894416,0.0,0,False
2024-04-09,0.9978530849894416,0.9978530849894416,0.0,0,False
2024-04-10,0.9978530849894416,0.9928707146948244,-0.4993090034561498,1,True
2024-04-11,0.9928707146948244,0.9928707146948244,0.0,0,False
2024-04-12,0.9928707146948244,0.9945253551820945,0.16665215951894297,1,True
2024-04-13,0.9945253551820945,0.9755422022331919,-1.9087651058858013,4,True
2024-04-14,0.9755422022331919,0.9755422022331919,0.0,0,False
2024-04-15,0.9755422022331919,0.9755422022331919,0.0,0,False
2024-04-16,0.9755422022331919,0.9755422022331919,0.0,0,False
2024-04-17,0.9755422022331919,0.9755422022331919,0.0,0,False
2024-04-18,0.9755422022331919,0.9755422022331919,0.0,0,False
2024-04-19,0.9755422022331919,0.9755422022331919,0.0,0,False
2024-04-20,0.9755422022331919,0.9755422022331919,0.0,0,False
2024-04-21,0.9755422022331919,0.9755422022331919,0.0,0,False
2024-04-22,0.9755422022331919,0.9755422022331919,0.0,0,False
2024-04-23,0.9755422022331919,0.9755422022331919,0.0,0,False
2024-04-24,0.9755422022331919,0.9755422022331919,0.0,0,False
2024-04-25,0.9755422022331919,0.9755422022331919,0.0,0,False
2024-04-26,0.9755422022331919,0.9755422022331919,0.0,0,False
2024-04-27,0.9755422022331919,0.9755422022331919,0.0,0,False
2024-04-28,0.9755422022331919,0.9755422022331919,0.0,0,False
2024-04-29,0.9755422022331919,0.9836425977968609,0.8303480408254682,1,True
2024-04-30,0.9836425977968609,0.9839200753499328,0.028209184280281185,0,True
2024-05-01,0.9839200753499328,0.9839200753499328,0.0,0,False
2024-05-02,0.9839200753499328,0.9839200753499328,0.0,0,False
2024-05-03,0.9839200753499328,0.9839200753499328,0.0,0,False
2024-05-04,0.9839200753499328,0.9839200753499328,0.0,0,False
2024-05-05,0.9839200753499328,0.9839200753499328,0.0,0,False
2024-05-06,0.9839200753499328,0.9839200753499328,0.0,0,False
2024-05-07,0.9839200753499328,0.9839200753499328,0.0,0,False
2024-05-08,0.9839200753499328,0.9839200753499328,0.0,0,False
2024-05-09,0.9839200753499328,0.9818963348764242,-0.20568138858115814,1,True
2024-05-10,0.9818963348764242,0.9818963348764242,0.0,0,False
2024-05-11,0.9818963348764242,0.9821609730053614,0.02695173813542784,1,True
2024-05-12,0.9821609730053614,0.9791955156361812,-0.3019319083821914,0,True
2024-05-13,0.9791955156361812,0.9791955156361812,0.0,0,False
2024-05-14,0.9791955156361812,0.9791955156361812,0.0,0,False
2024-05-15,0.9791955156361812,0.9791955156361812,0.0,0,False
2024-05-16,0.9791955156361812,0.9791955156361812,0.0,0,False
2024-05-17,0.9791955156361812,0.9791955156361812,0.0,0,False
2024-05-18,0.9791955156361812,0.9791955156361812,0.0,0,False
2024-05-19,0.9791955156361812,0.9791955156361812,0.0,0,False
2024-05-20,0.9791955156361812,0.9791955156361812,0.0,0,False
2024-05-21,0.9791955156361812,0.9791955156361812,0.0,0,False
2024-05-22,0.9791955156361812,0.9791955156361812,0.0,0,False
2024-05-23,0.9791955156361812,0.9791955156361812,0.0,0,False
2024-05-24,0.9791955156361812,0.9814452446745464,0.229752792209581,1,True
2024-05-25,0.9814452446745464,0.9814452446745464,0.0,0,False
2024-05-26,0.9814452446745464,0.9814452446745464,0.0,0,False
2024-05-27,0.9814452446745464,0.9814452446745464,0.0,0,False
2024-05-28,0.9814452446745464,0.9814452446745464,0.0,0,False
2024-05-29,0.9814452446745464,0.9814452446745464,0.0,0,False
2024-05-30,0.9814452446745464,0.9814452446745464,0.0,0,False
2024-05-31,0.9814452446745464,0.9814452446745464,0.0,0,False
2024-06-01,0.9814452446745464,0.9814452446745464,0.0,0,False
2024-06-02,0.9814452446745464,0.9814452446745464,0.0,0,False
2024-06-03,0.9814452446745464,0.9825445194381809,0.11200571500034062,1,True
2024-06-04,0.9825445194381809,0.9822241740833314,-0.03260364782581293,1,True
2024-06-05,0.9822241740833314,0.9822241740833314,0.0,0,False
2024-06-06,0.9822241740833314,0.9822241740833314,0.0,0,False
2024-06-07,0.9822241740833314,0.9822241740833314,0.0,0,False
2024-06-08,0.9822241740833314,1.00703631762627,2.5261181915110953,4,True
2024-06-09,1.00703631762627,1.00703631762627,0.0,0,False
2024-06-10,1.00703631762627,1.00703631762627,0.0,0,False
2024-06-11,1.00703631762627,1.00703631762627,0.0,0,False
2024-06-12,1.00703631762627,1.00703631762627,0.0,0,False
2024-06-13,1.00703631762627,1.00703631762627,0.0,0,False
2024-06-14,1.00703631762627,1.006733801847372,-0.030040205462611436,1,True
2024-06-15,1.006733801847372,1.0144093021584872,0.7624160723550322,1,True
2024-06-16,1.0144093021584872,1.0144093021584872,0.0,0,False
2024-06-17,1.0144093021584872,1.0144093021584872,0.0,0,False
2024-06-18,1.0144093021584872,1.0202471655542678,0.5754938744507276,4,True
2024-06-19,1.0202471655542678,1.0202471655542678,0.0,0,False
2024-06-20,1.0202471655542678,1.0202471655542678,0.0,0,False
2024-06-21,1.0202471655542678,1.0202471655542678,0.0,0,False
2024-06-22,1.0202471655542678,1.0202471655542678,0.0,0,False
2024-06-23,1.0202471655542678,1.0261084163540113,0.5744932206265263,1,True
2024-06-24,1.0261084163540113,1.0261084163540113,0.0,0,False
2024-06-25,1.0261084163540113,1.0261084163540113,0.0,0,False
2024-06-26,1.0261084163540113,1.0261084163540113,0.0,0,False
2024-06-27,1.0261084163540113,1.0261084163540113,0.0,0,False
2024-06-28,1.0261084163540113,1.0261084163540113,0.0,0,False
2024-06-29,1.0261084163540113,1.0158863344349645,-0.9961990132941412,2,True
2024-06-30,1.0158863344349645,1.0158863344349645,0.0,0,False
2024-07-01,1.0158863344349645,1.0158863344349645,0.0,0,False
2024-07-02,1.0158863344349645,1.0158863344349645,0.0,0,False
2024-07-03,1.0158863344349645,1.0158863344349645,0.0,0,False
2024-07-04,1.0158863344349645,1.0158863344349645,0.0,0,False
2024-07-05,1.0158863344349645,1.0158863344349645,0.0,0,False
2024-07-06,1.0158863344349645,1.0158863344349645,0.0,0,False
2024-07-07,1.0158863344349645,1.0158863344349645,0.0,0,False
2024-07-08,1.0158863344349645,1.0158863344349645,0.0,0,False
2024-07-09,1.0158863344349645,1.0158863344349645,0.0,0,False
2024-07-10,1.0158863344349645,1.0158863344349645,0.0,0,False
2024-07-11,1.0158863344349645,1.0158863344349645,0.0,0,False
2024-07-12,1.0158863344349645,1.0158863344349645,0.0,0,False
2024-07-13,1.0158863344349645,1.0158863344349645,0.0,0,False
2024-07-14,1.0158863344349645,1.0158863344349645,0.0,0,False
2024-07-15,1.0158863344349645,1.0158863344349645,0.0,0,False
2024-07-16,1.0158863344349645,1.0138927906473196,-0.1962368938404513,1,True
2024-07-17,1.0138927906473196,1.0138927906473196,0.0,0,False
2024-07-18,1.0138927906473196,1.0138927906473196,0.0,0,False
2024-07-19,1.0138927906473196,1.0138927906473196,0.0,0,False
2024-07-20,1.0138927906473196,1.0150064302530593,0.10983800417680989,1,True
2024-07-21,1.0150064302530593,1.0150064302530593,0.0,0,False
2024-07-22,1.0150064302530593,1.0150064302530593,0.0,0,False
2024-07-23,1.0150064302530593,1.011018882863305,-0.3928593229463595,1,True
2024-07-24,1.011018882863305,1.011018882863305,0.0,0,False
2024-07-25,1.011018882863305,1.011018882863305,0.0,0,False
2024-07-26,1.011018882863305,1.011018882863305,0.0,0,False
2024-07-27,1.011018882863305,1.011018882863305,0.0,0,False
2024-07-28,1.011018882863305,1.011018882863305,0.0,0,False
2024-07-29,1.011018882863305,1.011018882863305,0.0,0,False
2024-07-30,1.011018882863305,1.011018882863305,0.0,0,False
2024-07-31,1.011018882863305,1.0059684194038292,-0.49954195169653604,1,True
2024-08-01,1.0059684194038292,1.0059684194038292,0.0,0,False
2024-08-02,1.0059684194038292,1.0059684194038292,0.0,0,False
2024-08-03,1.0059684194038292,1.0009446290112216,-0.4993984200403534,1,True
2024-08-04,1.0009446290112216,1.0009446290112216,0.0,0,False
2024-08-05,1.0009446290112216,1.0009446290112216,0.0,0,False
2024-08-06,1.0009446290112216,1.0009446290112216,0.0,0,False
2024-08-07,1.0009446290112216,1.0009446290112216,0.0,0,False
2024-08-08,1.0009446290112216,1.0009446290112216,0.0,0,False
2024-08-09,1.0009446290112216,1.0009446290112216,0.0,0,False
2024-08-10,1.0009446290112216,1.0009446290112216,0.0,0,False
2024-08-11,1.0009446290112216,1.0009446290112216,0.0,0,False
2024-08-12,1.0009446290112216,1.0009446290112216,0.0,0,False
2024-08-13,1.0009446290112216,1.0009446290112216,0.0,0,False
2024-08-14,1.0009446290112216,1.0009446290112216,0.0,0,False
2024-08-15,1.0009446290112216,1.0009446290112216,0.0,0,False
2024-08-16,1.0009446290112216,1.0009446290112216,0.0,0,False
2024-08-17,1.0009446290112216,1.0009446290112216,0.0,0,False
2024-08-18,1.0009446290112216,1.0009446290112216,0.0,0,False
2024-08-19,1.0009446290112216,1.0009446290112216,0.0,0,False
2024-08-20,1.0009446290112216,1.0009446290112216,0.0,0,False
2024-08-21,1.0009446290112216,1.0009446290112216,0.0,0,False
2024-08-22,1.0009446290112216,1.0009446290112216,0.0,0,False
2024-08-23,1.0009446290112216,1.0009446290112216,0.0,0,False
2024-08-24,1.0009446290112216,1.0009446290112216,0.0,0,False
2024-08-25,1.0009446290112216,1.0009446290112216,0.0,0,False
2024-08-26,1.0009446290112216,1.0009446290112216,0.0,0,False
2024-08-27,1.0009446290112216,1.0009446290112216,0.0,0,False
2024-08-28,1.0009446290112216,1.0009446290112216,0.0,0,False
2024-08-29,1.0009446290112216,0.9959472856624939,-0.499262716826232,1,True
2024-08-30,0.9959472856624939,0.9959472856624939,0.0,0,False
2024-08-31,0.9959472856624939,0.9959472856624939,0.0,0,False
2024-09-01,0.9959472856624939,0.9923583275842945,-0.36035622867449657,1,True
2024-09-02,0.9923583275842945,0.9923583275842945,0.0,0,False
2024-09-03,0.9923583275842945,0.9923583275842945,0.0,0,False
2024-09-04,0.9923583275842945,0.9923583275842945,0.0,0,False
2024-09-05,0.9923583275842945,0.9923583275842945,0.0,0,False
2024-09-06,0.9923583275842945,0.9923583275842945,0.0,0,False
2024-09-07,0.9923583275842945,0.9923583275842945,0.0,0,False
2024-09-08,0.9923583275842945,0.9923583275842945,0.0,0,False
2024-09-09,0.9923583275842945,0.9923583275842945,0.0,0,False
2024-09-10,0.9923583275842945,0.9923583275842945,0.0,0,False
2024-09-11,0.9923583275842945,0.9923583275842945,0.0,0,False
2024-09-12,0.9923583275842945,0.9923583275842945,0.0,0,False
2024-09-13,0.9923583275842945,0.9923583275842945,0.0,0,False
2024-09-14,0.9923583275842945,0.9923583275842945,0.0,0,False
2024-09-15,0.9923583275842945,0.9923583275842945,0.0,0,False
2024-09-16,0.9923583275842945,0.9923583275842945,0.0,0,False
2024-09-17,0.9923583275842945,0.9923583275842945,0.0,0,False
2024-09-18,0.9923583275842945,0.9923583275842945,0.0,0,False
2024-09-19,0.9923583275842945,0.9923583275842945,0.0,0,False
2024-09-20,0.9923583275842945,0.9923583275842945,0.0,0,False
2024-09-21,0.9923583275842945,0.9923583275842945,0.0,0,False
2024-09-22,0.9923583275842945,0.9923583275842945,0.0,0,False
2024-09-23,0.9923583275842945,0.9923583275842945,0.0,0,False
2024-09-24,0.9923583275842945,0.9923583275842945,0.0,0,False
2024-09-25,0.9923583275842945,0.9923583275842945,0.0,0,False
2024-09-26,0.9923583275842945,0.9923583275842945,0.0,0,False
2024-09-27,0.9923583275842945,0.9923583275842945,0.0,0,False
2024-09-28,0.9923583275842945,0.9923583275842945,0.0,0,False
2024-09-29,0.9923583275842945,0.9923583275842945,0.0,0,False
2024-09-30,0.9923583275842945,0.9923583275842945,0.0,0,False
2024-10-01,0.9923583275842945,0.9923583275842945,0.0,0,False
2024-10-02,0.9923583275842945,0.9923583275842945,0.0,0,False
2024-10-03,0.9923583275842945,0.9923583275842945,0.0,0,False
2024-10-04,0.9923583275842945,0.9923583275842945,0.0,0,False
2024-10-05,0.9923583275842945,0.9923583275842945,0.0,0,False
2024-10-06,0.9923583275842945,0.9923583275842945,0.0,0,False
2024-10-07,0.9923583275842945,0.9923583275842945,0.0,0,False
2024-10-08,0.9923583275842945,0.9923583275842945,0.0,0,False
2024-10-09,0.9923583275842945,0.9923583275842945,0.0,0,False
2024-10-10,0.9923583275842945,0.9923583275842945,0.0,0,False
2024-10-11,0.9923583275842945,0.9923583275842945,0.0,0,False
2024-10-12,0.9923583275842945,0.9923583275842945,0.0,0,False
2024-10-13,0.9923583275842945,0.9923583275842945,0.0,0,False
2024-10-14,0.9923583275842945,0.9923583275842945,0.0,0,False
2024-10-15,0.9923583275842945,0.9923583275842945,0.0,0,False
2024-10-16,0.9923583275842945,0.9923583275842945,0.0,0,False
2024-10-17,0.9923583275842945,0.9923583275842945,0.0,0,False
2024-10-18,0.9923583275842945,0.9923583275842945,0.0,0,False
2024-10-19,0.9923583275842945,0.9923583275842945,0.0,0,False
2024-10-20,0.9923583275842945,0.9923583275842945,0.0,0,False
2024-10-21,0.9923583275842945,0.9923583275842945,0.0,0,False
2024-10-22,0.9923583275842945,0.9923583275842945,0.0,0,False
2024-10-23,0.9923583275842945,0.9923583275842945,0.0,0,False
2024-10-24,0.9923583275842945,0.9923583275842945,0.0,0,False
2024-10-25,0.9923583275842945,0.9923583275842945,0.0,0,False
2024-10-26,0.9923583275842945,0.9923583275842945,0.0,0,False
2024-10-27,0.9923583275842945,0.9923583275842945,0.0,0,False
2024-10-28,0.9923583275842945,0.9923583275842945,0.0,0,False
2024-10-29,0.9923583275842945,0.9923583275842945,0.0,0,False
2024-10-30,0.9923583275842945,0.9923583275842945,0.0,0,False
2024-10-31,0.9923583275842945,0.9923583275842945,0.0,0,False
2024-11-01,0.9923583275842945,0.9923583275842945,0.0,0,False
2024-11-02,0.9923583275842945,0.9923583275842945,0.0,0,False
2024-11-03,0.9923583275842945,0.9923583275842945,0.0,0,False
2024-11-04,0.9923583275842945,0.9923583275842945,0.0,0,False
2024-11-05,0.9923583275842945,0.9923583275842945,0.0,0,False
2024-11-06,0.9923583275842945,0.9923583275842945,0.0,0,False
2024-11-07,0.9923583275842945,0.9923583275842945,0.0,0,False
2024-11-08,0.9923583275842945,0.9923583275842945,0.0,0,False
2024-11-09,0.9923583275842945,0.9911737539621227,-0.11936954517784981,1,True
2024-11-10,0.9911737539621227,0.9931356236839615,0.19793398624574632,0,True
2024-11-11,0.9931356236839615,0.9931356236839615,0.0,0,False
2024-11-12,0.9931356236839615,0.9931356236839615,0.0,0,False
2024-11-13,0.9931356236839615,0.9931356236839615,0.0,0,False
2024-11-14,0.9931356236839615,0.9931356236839615,0.0,0,False
2024-11-15,0.9931356236839615,0.9931356236839615,0.0,0,False
2024-11-16,0.9931356236839615,0.9931356236839615,0.0,0,False
2024-11-17,0.9931356236839615,0.9931356236839615,0.0,0,False
2024-11-18,0.9931356236839615,0.9931356236839615,0.0,0,False
2024-11-19,0.9931356236839615,0.9931356236839615,0.0,0,False
2024-11-20,0.9931356236839615,0.9931356236839615,0.0,0,False
2024-11-21,0.9931356236839615,0.9931356236839615,0.0,0,False
2024-11-22,0.9931356236839615,0.9931356236839615,0.0,0,False
2024-11-23,0.9931356236839615,0.9931356236839615,0.0,0,False
2024-11-24,0.9931356236839615,0.9994416961544259,0.634965891876127,2,True
2024-11-25,0.9994416961544259,0.9994416961544259,0.0,0,False
2024-11-26,0.9994416961544259,0.9994416961544259,0.0,0,False
2024-11-27,0.9994416961544259,0.9994416961544259,0.0,0,False
2024-11-28,0.9994416961544259,0.9994416961544259,0.0,0,False
2024-11-29,0.9994416961544259,0.9994416961544259,0.0,0,False
2024-11-30,0.9994416961544259,0.9994416961544259,0.0,0,False
2024-12-01,0.9994416961544259,0.9994416961544259,0.0,0,False
2024-12-02,0.9994416961544259,0.9994416961544259,0.0,0,False
2024-12-03,0.9994416961544259,0.9994416961544259,0.0,0,False
2024-12-04,0.9994416961544259,0.9994416961544259,0.0,0,False
2024-12-05,0.9994416961544259,0.9994416961544259,0.0,0,False
2024-12-06,0.9994416961544259,0.9994416961544259,0.0,0,False
2024-12-07,0.9994416961544259,0.9994416961544259,0.0,0,False
2024-12-08,0.9994416961544259,0.9994416961544259,0.0,0,False
2024-12-09,0.9994416961544259,0.9994416961544259,0.0,0,False
2024-12-10,0.9994416961544259,0.9994416961544259,0.0,0,False
2024-12-11,0.9994416961544259,0.9994416961544259,0.0,0,False
2024-12-12,0.9994416961544259,0.9994416961544259,0.0,0,False
2024-12-13,0.9994416961544259,0.9994416961544259,0.0,0,False
2024-12-14,0.9994416961544259,0.9994416961544259,0.0,0,False
2024-12-15,0.9994416961544259,0.9944521659669828,-0.49923174174555385,1,True
2024-12-16,0.9944521659669828,0.9944521659669828,0.0,0,False
2024-12-17,0.9944521659669828,0.9944521659669828,0.0,0,False
2024-12-18,0.9944521659669828,0.9944521659669828,0.0,0,False
2024-12-19,0.9944521659669828,0.9944521659669828,0.0,0,False
2024-12-20,0.9944521659669828,0.994873146301712,0.0423328893169872,1,True
2024-12-21,0.994873146301712,0.994873146301712,0.0,0,False
2024-12-22,0.994873146301712,0.994873146301712,0.0,0,False
2024-12-23,0.994873146301712,0.994873146301712,0.0,0,False
2024-12-24,0.994873146301712,0.994873146301712,0.0,0,False
2024-12-25,0.994873146301712,0.994873146301712,0.0,0,False
2024-12-26,0.994873146301712,0.994873146301712,0.0,0,False
2024-12-27,0.994873146301712,0.994873146301712,0.0,0,False
2024-12-28,0.994873146301712,0.994873146301712,0.0,0,False
2024-12-29,0.994873146301712,0.994873146301712,0.0,0,False
2024-12-30,0.994873146301712,0.994873146301712,0.0,0,False
2024-12-31,0.994873146301712,0.994873146301712,0.0,0,False
