day,start_equity,end_equity,return_pct,entries,active
2021-09-02,1.0,1.0,0.0,0,False
2021-09-03,1.0,1.0,0.0,0,False
2021-09-04,1.0,1.0,0.0,0,False
2021-09-05,1.0,1.0,0.0,0,False
2021-09-06,1.0,1.0,0.0,0,False
2021-09-07,1.0,1.0,0.0,0,False
2021-09-08,1.0,1.0,0.0,0,False
2021-09-09,1.0,1.0,0.0,0,False
2021-09-10,1.0,1.0,0.0,0,False
2021-09-11,1.0,1.0,0.0,0,False
2021-09-12,1.0,1.0,0.0,0,False
2021-09-13,1.0,1.0,0.0,0,False
2021-09-14,1.0,1.0,0.0,0,False
2021-09-15,1.0,1.0,0.0,0,False
2021-09-16,1.0,1.0,0.0,0,False
2021-09-17,1.0,1.0,0.0,0,False
2021-09-18,1.0,1.0,0.0,0,False
2021-09-19,1.0,1.0,0.0,0,False
2021-09-20,1.0,1.0,0.0,0,False
2021-09-21,1.0,1.0,0.0,0,False
2021-09-22,1.0,1.0,0.0,0,False
2021-09-23,1.0,1.0,0.0,0,False
2021-09-24,1.0,1.0,0.0,0,False
2021-09-25,1.0,1.0,0.0,0,False
2021-09-26,1.0,1.0,0.0,0,False
2021-09-27,1.0,1.0,0.0,0,False
2021-09-28,1.0,1.0,0.0,0,False
2021-09-29,1.0,1.0,0.0,0,False
2021-09-30,1.0,1.0,0.0,0,False
2021-10-01,1.0,1.0,0.0,0,False
2021-10-02,1.0,1.0,0.0,0,False
2021-10-03,1.0,1.0,0.0,0,False
2021-10-04,1.0,1.0,0.0,0,False
2021-10-05,1.0,0.9993927768733932,-0.06072231266067707,1,True
2021-10-06,0.9993927768733932,1.0048928803354615,0.5503445281319186,3,True
2021-10-07,1.0048928803354615,0.9930123369091602,-1.1822696387634113,2,True
2021-10-08,0.9930123369091602,0.9924437638359527,-0.057257402760702014,1,True
2021-10-09,0.9924437638359527,0.9932669777091012,0.0829481632255602,2,True
2021-10-10,0.9932669777091012,0.9985805075718627,0.5349548492004308,1,True
2021-10-11,0.9985805075718627,0.9953550049959239,-0.32300876609157037,0,True
2021-10-12,0.9953550049959239,0.9953550049959239,0.0,0,False
2021-10-13,0.9953550049959239,1.011790123208174,1.6511815512815442,4,True
2021-10-14,1.011790123208174,1.0308931265713568,1.8880401107900902,0,True
2021-10-15,1.0308931265713568,1.0302481193863047,-0.06256780343442125,4,True
2021-10-16,1.0302481193863047,1.0481091096017725,1.7336590942876207,2,True
2021-10-17,1.0481091096017725,1.0478577172269716,-0.023985324857678236,0,True
2021-10-18,1.0478577172269716,1.0464212985337944,-0.13708146340503102,1,True
2021-10-19,1.0464212985337944,1.0491010743780322,0.25608957386404896,0,True
2021-10-20,1.0491010743780322,1.0491010743780322,0.0,0,False
2021-10-21,1.0491010743780322,1.0491010743780322,0.0,0,False
2021-10-22,1.0491010743780322,1.0491010743780322,0.0,0,False
2021-10-23,1.0491010743780322,1.0491010743780322,0.0,0,False
2021-10-24,1.0491010743780322,1.0491010743780322,0.0,0,False
2021-10-25,1.0491010743780322,1.061720992879342,1.2029268494259782,2,True
2021-10-26,1.061720992879342,1.066712490066725,0.4701326639352077,0,True
2021-10-27,1.066712490066725,1.069093140275462,0.22317636953776976,7,True
2021-10-28,1.069093140275462,1.0692308610444026,0.012882017829163317,1,True
2021-10-29,1.0692308610444026,1.0636069047172163,-0.5259814818376007,0,True
2021-10-30,1.0636069047172163,1.0651071162394268,0.14104943429351646,1,True
2021-10-31,1.0651071162394268,1.0578408972600373,-0.6822054672814826,1,True
2021-11-01,1.0578408972600373,1.0688045740445826,1.0364202039212955,2,True
2021-11-02,1.0688045740445826,1.0720634175036101,0.3049054558865949,1,True
2021-11-03,1.0720634175036101,1.0702073020144716,-0.17313485926613303,1,True
2021-11-04,1.0702073020144716,1.0955213265971409,2.365338428827779,1,True
2021-11-05,1.0955213265971409,1.0731764686531196,-2.0396552218136965,3,True
2021-11-06,1.0731764686531196,1.0624468275994143,-0.9998021170899651,2,True
2021-11-07,1.0624468275994143,1.0629672974055395,0.048987845095371796,0,True
2021-11-08,1.0629672974055395,1.0629672974055395,0.0,0,False
2021-11-09,1.0629672974055395,1.0629672974055395,0.0,0,False
2021-11-10,1.0629672974055395,1.0629672974055395,0.0,0,False
2021-11-11,1.0629672974055395,1.0442001243610695,-1.7655456654476986,13,True
2021-11-12,1.0442001243610695,1.0424495209322473,-0.1676501839044775,1,True
2021-11-13,1.0424495209322473,1.0409015280383267,-0.14849571733087652,1,True
2021-11-14,1.0409015280383267,1.0413343697013309,0.041583343990270194,0,True
2021-11-15,1.0413343697013309,1.0413343697013309,0.0,0,False
2021-11-16,1.0413343697013309,1.0574527657754396,1.5478597982636177,7,True
2021-11-17,1.0574527657754396,1.0430454574169785,-1.3624540806696062,0,True
2021-11-18,1.0430454574169785,1.0334941061736307,-0.915717639670377,4,True
2021-11-19,1.0334941061736307,1.055583923388091,2.1373916970116813,4,True
2021-11-20,1.055583923388091,1.0560441624105537,0.04360041984965424,0,True
2021-11-21,1.0560441624105537,1.0519740286427055,-0.38541321591679667,1,True
2021-11-22,1.0519740286427055,1.0365100839088295,-1.4699930143549422,4,True
2021-11-23,1.0365100839088295,1.0335650900795732,-0.284125921684264,0,True
2021-11-24,1.0335650900795732,1.028657475497536,-0.4748239495646511,2,True
2021-11-25,1.028657475497536,1.0271490300838324,-0.14664214761808125,4,True
2021-11-26,1.0271490300838324,1.0051749333579036,-2.139328966132137,9,True
2021-11-27,1.0051749333579036,1.0142294530460063,0.9007904383225185,0,True
2021-11-28,1.0142294530460063,1.0040310160667316,-1.005535478056374,7,True
2021-11-29,1.0040310160667316,0.9992023946070825,-0.48092353546658195,1,True
2021-11-30,0.9992023946070825,0.9887622449605036,-1.0448483413297183,3,True
2021-12-01,0.9887622449605036,0.9828342147979919,-0.5995405055892356,1,True
2021-12-02,0.9828342147979919,0.9767110633652379,-0.623009592112389,5,True
2021-12-03,0.9767110633652379,0.9589749749691963,-1.8158992010321229,2,True
2021-12-04,0.9589749749691963,0.8891503927600805,-7.281168334070309,18,True
2021-12-05,0.8891503927600805,0.8821203033204028,-0.7906524584502472,3,True
2021-12-06,0.8821203033204028,0.8649830785660476,-1.942731018643229,11,True
2021-12-07,0.8649830785660476,0.8852879793234852,2.347433292116974,0,True
2021-12-08,0.8852879793234852,0.8904786920855533,0.586330423918624,2,True
2021-12-09,0.8904786920855533,0.9026431405615758,1.366057221148398,2,True
2021-12-10,0.9026431405615758,0.8856094710837578,-1.8870878991248508,3,True
2021-12-11,0.8856094710837578,0.8767832316394935,-0.9966288451571437,2,True
2021-12-12,0.8767832316394935,0.8767832316394935,0.0,0,False
2021-12-13,0.8767832316394935,0.8680332840394795,-0.9979601895045875,2,True
2021-12-14,0.8680332840394795,0.8674671357596492,-0.06522195522223884,1,True
2021-12-15,0.8674671357596492,0.8643314740735151,-0.361473254360023,1,True
2021-12-16,0.8643314740735151,0.8651437315981144,0.09397523391936335,0,True
2021-12-17,0.8651437315981144,0.8609065244773111,-0.4897691523437664,4,True
2021-12-18,0.8609065244773111,0.8616072512923751,0.08139406487708278,1,True
2021-12-19,0.8616072512923751,0.8570413333048176,-0.5299303111375719,1,True
2021-12-20,0.8570413333048176,0.8570413333048176,0.0,0,False
2021-12-21,0.8570413333048176,0.8540307608968195,-0.3512750541901033,1,True
2021-12-22,0.8540307608968195,0.8545347827219164,0.059016823301272225,0,True
2021-12-23,0.8545347827219164,0.8545347827219164,0.0,0,False
2021-12-24,0.8545347827219164,0.8545347827219164,0.0,0,False
2021-12-25,0.8545347827219164,0.8563414991337444,0.21142690132203157,1,True
2021-12-26,0.8563414991337444,0.855968679281602,-0.04353635232199338,0,True
2021-12-27,0.855968679281602,0.855968679281602,0.0,0,False
2021-12-28,0.855968679281602,0.8577465360035638,0.20770114199200052,1,True
2021-12-29,0.8577465360035638,0.8575351190183883,-0.024647955579104597,0,True
2021-12-30,0.8575351190183883,0.8575351190183883,0.0,0,False
2021-12-31,0.8575351190183883,0.8575351190183883,0.0,0,False
2022-01-01,0.8575351190183883,0.8575351190183883,0.0,0,False
2022-01-02,0.8575351190183883,0.8575351190183883,0.0,0,False
2022-01-03,0.8575351190183883,0.8575351190183883,0.0,0,False
2022-01-04,0.8575351190183883,0.8575351190183883,0.0,0,False
2022-01-05,0.8575351190183883,0.8589675902474544,0.1670451970183784,1,True
2022-01-06,0.8589675902474544,0.8353612640117811,-2.748220829714043,8,True
2022-01-07,0.8353612640117811,0.8386829366390806,0.3976330685178331,5,True
2022-01-08,0.8386829366390806,0.835750837732382,-0.34960755472724925,0,True
2022-01-09,0.835750837732382,0.8363147296796816,0.06747129908113436,1,True
2022-01-10,0.8363147296796816,0.8379225136241292,0.19224627851088805,0,True
2022-01-11,0.8379225136241292,0.8379225136241292,0.0,0,False
2022-01-12,0.8379225136241292,0.8379225136241292,0.0,0,False
2022-01-13,0.8379225136241292,0.8379225136241292,0.0,0,False
2022-01-14,0.8379225136241292,0.8379225136241292,0.0,0,False
2022-01-15,0.8379225136241292,0.838305750939205,0.04573660557445347,1,True
2022-01-16,0.838305750939205,0.8371947206155927,-0.13253282854942539,0,True
2022-01-17,0.8371947206155927,0.8394444582253437,0.2687233393082966,1,True
2022-01-18,0.8394444582253437,0.8461027837292278,0.7931823765875201,0,True
2022-01-19,0.8461027837292278,0.8418764088171179,-0.49951081516148577,1,True
2022-01-20,0.8418764088171179,0.8418764088171179,0.0,0,False
2022-01-21,0.8418764088171179,0.8087537770228735,-3.9343817509726264,8,True
2022-01-22,0.8087537770228735,0.7762181838050648,-4.022929368883621,17,True
2022-01-23,0.7762181838050648,0.791182018010566,1.9277871245102274,0,True
2022-01-24,0.791182018010566,0.7800820099244763,-1.4029651626816242,5,True
2022-01-25,0.7800820099244763,0.7904114134110504,1.324143276624734,0,True
2022-01-26,0.7904114134110504,0.7911615670441434,0.09490673089547208,1,True
2022-01-27,0.7911615670441434,0.7882403812594589,-0.36922746331047307,7,True
2022-01-28,0.7882403812594589,0.7751391491934055,-1.6620858785641124,0,True
2022-01-29,0.7751391491934055,0.7751391491934055,0.0,0,False
2022-01-30,0.7751391491934055,0.7820812178971418,0.8955899996742511,1,True
2022-01-31,0.7820812178971418,0.7807698385734436,-0.16767815077112225,0,True
2022-02-01,0.7807698385734436,0.7807698385734436,0.0,0,False
2022-02-02,0.7807698385734436,0.78020549573709,-0.07228030700888732,1,True
2022-02-03,0.78020549573709,0.7792162112314434,-0.12679794119009324,4,True
2022-02-04,0.7792162112314434,0.787536294022505,1.0677502176081433,0,True
2022-02-05,0.787536294022505,0.787536294022505,0.0,0,False
2022-02-06,0.787536294022505,0.787536294022505,0.0,0,False
2022-02-07,0.787536294022505,0.787536294022505,0.0,0,False
2022-02-08,0.787536294022505,0.7831173082065142,-0.5611151955194349,3,True
2022-02-09,0.7831173082065142,0.790300842547692,0.917299907165825,2,True
2022-02-10,0.790300842547692,0.7914308655544599,0.14298643578880554,5,True
2022-02-11,0.7914308655544599,0.7816832569512097,-1.2316437262553825,0,True
2022-02-12,0.7816832569512097,0.7624345877247156,-2.46246405501499,5,True
2022-02-13,0.7624345877247156,0.7624345877247156,0.0,0,False
2022-02-14,0.7624345877247156,0.7624345877247156,0.0,0,False
2022-02-15,0.7624345877247156,0.7624345877247156,0.0,0,False
2022-02-16,0.7624345877247156,0.7624345877247156,0.0,0,False
2022-02-17,0.7624345877247156,0.7624345877247156,0.0,0,False
2022-02-18,0.7624345877247156,0.7624345877247156,0.0,0,False
2022-02-19,0.7624345877247156,0.7624345877247156,0.0,0,False
2022-02-20,0.7624345877247156,0.7624345877247156,0.0,0,False
2022-02-21,0.7624345877247156,0.7624345877247156,0.0,0,False
2022-02-22,0.7624345877247156,0.7548459967264354,-0.9953104332433793,2,True
2022-02-23,0.7548459967264354,0.7548459967264354,0.0,0,False
2022-02-24,0.7548459967264354,0.7384645068674942,-2.170176424063097,9,True
2022-02-25,0.7384645068674942,0.7570265499870429,2.513599901813479,0,True
2022-02-26,0.7570265499870429,0.7570265499870429,0.0,0,False
2022-02-27,0.7570265499870429,0.7570265499870429,0.0,0,False
2022-02-28,0.7570265499870429,0.7613799607976691,0.575067124224482,2,True
2022-03-01,0.7613799607976691,0.7676240186251772,0.820097474192294,0,True
2022-03-02,0.7676240186251772,0.7676240186251772,0.0,0,False
2022-03-03,0.7676240186251772,0.7676240186251772,0.0,0,False
2022-03-04,0.7676240186251772,0.7757690194355561,1.0610664352278532,3,True
2022-03-05,0.7757690194355561,0.7677178025819497,-1.0378368627641854,2,True
2022-03-06,0.7677178025819497,0.7627624286388544,-0.6454681559330377,4,True
2022-03-07,0.7627624286388544,0.7544287200401472,-1.0925693618101584,0,True
2022-03-08,0.7544287200401472,0.7506698325839628,-0.4982428897967073,1,True
2022-03-09,0.7506698325839628,0.7601403192905074,1.261604808860528,2,True
2022-03-10,0.7601403192905074,0.7564850246396461,-0.4808710389514803,3,True
2022-03-11,0.7564850246396461,0.7505929160920941,-0.7788797339853049,1,True
2022-03-12,0.7505929160920941,0.7500697709543211,-0.06969758527654024,0,True
2022-03-13,0.7500697709543211,0.7500697709543211,0.0,0,False
2022-03-14,0.7500697709543211,0.7463290063781208,-0.49872221506019887,1,True
2022-03-15,0.7463290063781208,0.7471238723701055,0.1065034301483303,1,True
2022-03-16,0.7471238723701055,0.7503781536013132,0.4355745213821427,1,True
2022-03-17,0.7503781536013132,0.7516299061532924,0.1668162307193466,1,True
2022-03-18,0.7516299061532924,0.7507019851003228,-0.12345451469839563,0,True
2022-03-19,0.7507019851003228,0.7507019851003228,0.0,0,False
2022-03-20,0.7507019851003228,0.7469548931469115,-0.4991450705849054,1,True
2022-03-21,0.7469548931469115,0.7477502069189628,0.10647413643687376,3,True
2022-03-22,0.7477502069189628,0.7438915629821925,-0.5160338173184176,0,True
2022-03-23,0.7438915629821925,0.7431950289402403,-0.09363381393383552,2,True
2022-03-24,0.7431950289402403,0.7393223533960769,-0.5210846942404368,0,True
2022-03-25,0.7393223533960769,0.7393223533960769,0.0,0,False
2022-03-26,0.7393223533960769,0.740496086808185,0.15875800409883567,1,True
2022-03-27,0.740496086808185,0.7391186355492428,-0.18601735829280042,1,True
2022-03-28,0.7391186355492428,0.7388135543890806,-0.04127634529679236,1,True
2022-03-29,0.7388135543890806,0.7404749399894961,0.22487210616883857,1,True
2022-03-30,0.7404749399894961,0.7434715727409698,0.40469063700063757,5,True
2022-03-31,0.7434715727409698,0.7473374655499205,0.5199785641700316,5,True
2022-04-01,0.7473374655499205,0.7582041561278989,1.4540540356801523,7,True
2022-04-02,0.7582041561278989,0.7661834432313603,1.052392952342962,0,True
2022-04-03,0.7661834432313603,0.7608909035504945,-0.6907666470244656,2,True
2022-04-04,0.7608909035504945,0.760143364600825,-0.09824522098783595,0,True
2022-04-05,0.760143364600825,0.7516284047762669,-1.1201781428467172,6,True
2022-04-06,0.7516284047762669,0.7213406340390569,-4.029620294382785,12,True
2022-04-07,0.7213406340390569,0.7226694993755756,0.18422161095761336,2,True
2022-04-08,0.7226694993755756,0.7273794724628345,0.6517464887239033,0,True
2022-04-09,0.7273794724628345,0.7273794724628345,0.0,0,False
2022-04-10,0.7273794724628345,0.7273794724628345,0.0,0,False
2022-04-11,0.7273794724628345,0.7199049594571748,-1.027594713437785,6,True
2022-04-12,0.7199049594571748,0.7093159796905629,-1.4708857922851704,0,True
2022-04-13,0.7093159796905629,0.7102226297746567,0.12782033819247474,1,True
2022-04-14,0.7102226297746567,0.7102431395139635,0.002887790172678706,0,True
2022-04-15,0.7102431395139635,0.7113216737384983,0.15185422632493228,1,True
2022-04-16,0.7113216737384983,0.7110407595435726,-0.0394918649742948,0,True
2022-04-17,0.7110407595435726,0.7149012778682502,0.5429391034004416,1,True
2022-04-18,0.7149012778682502,0.7282998781529926,1.8741888844702403,6,True
2022-04-19,0.7282998781529926,0.738597794886879,1.4139665600387819,1,True
2022-04-20,0.738597794886879,0.7380765700918995,-0.0705695032652165,0,True
2022-04-21,0.7380765700918995,0.7367227437752377,-0.18342626924103822,3,True
2022-04-22,0.7367227437752377,0.7324558236123838,-0.5791758431385796,1,True
2022-04-23,0.7324558236123838,0.7324926307020316,0.005025161717786553,2,True
2022-04-24,0.7324926307020316,0.7329486945588286,0.062261903762750315,0,True
2022-04-25,0.7329486945588286,0.7282227632487405,-0.6447833723113083,3,True
2022-04-26,0.7282227632487405,0.7314464692527091,0.44268130119786697,2,True
2022-04-27,0.7314464692527091,0.7285772398928139,-0.3922678528787693,0,True
2022-04-28,0.7285772398928139,0.7301886586528403,0.2211733597749399,1,True
2022-04-29,0.7301886586528403,0.7195018560559818,-1.4635673219815626,2,True
2022-04-30,0.7195018560559818,0.7113814050557733,-1.1286212720452937,2,True
2022-05-01,0.7113814050557733,0.719426000233173,1.1308413630475744,7,True
2022-05-02,0.719426000233173,0.7285663387233109,1.270504330838107,1,True
2022-05-03,0.7285663387233109,0.7335870799843627,0.6891261638370283,3,True
2022-05-04,0.7335870799843627,0.7282985221584141,-0.7209175257096079,1,True
2022-05-05,0.7282985221584141,0.7282985221584141,0.0,0,False
2022-05-06,0.7282985221584141,0.7107724462889865,-2.4064412237837063,8,True
2022-05-07,0.7107724462889865,0.7115326872353995,0.1069598224273216,2,True
2022-05-08,0.7115326872353995,0.7033189735908629,-1.1543691234271014,3,True
2022-05-09,0.7033189735908629,0.6926975143365685,-1.510190916657006,5,True
2022-05-10,0.6926975143365685,0.6881126614324147,-0.6618838395204718,11,True
2022-05-11,0.6881126614324147,0.6592086651202461,-4.200474418244293,19,True
2022-05-12,0.6592086651202461,0.6277740444028976,-4.768538761791685,1,True
2022-05-13,0.6277740444028976,0.6671209401453556,6.267684383141781,6,True
2022-05-14,0.6671209401453556,0.6462963043939911,-3.1215682941727385,7,True
2022-05-15,0.6462963043939911,0.6604018909929307,2.1825262658999423,2,True
2022-05-16,0.6604018909929307,0.6653587892336735,0.7505881355503119,6,True
2022-05-17,0.6653587892336735,0.6698199755389207,0.6704933304308325,4,True
2022-05-18,0.6698199755389207,0.6508763067369063,-2.828173165001946,2,True
2022-05-19,0.6508763067369063,0.655108047160856,0.6501604652295656,6,True
2022-05-20,0.655108047160856,0.6601939257900805,0.7763419563026286,1,True
2022-05-21,0.6601939257900805,0.660820897937854,0.09496787584393207,0,True
2022-05-22,0.660820897937854,0.660820897937854,0.0,0,False
2022-05-23,0.660820897937854,0.6630824469484043,0.3422332764607905,4,True
2022-05-24,0.6630824469484043,0.6371159553224225,-3.916027598903149,8,True
2022-05-25,0.6371159553224225,0.6322170510853428,-0.7689187809777231,1,True
2022-05-26,0.6322170510853428,0.6251343634752022,-1.120293670976047,13,True
2022-05-27,0.6251343634752022,0.6072252874116442,-2.8648362831950602,3,True
2022-05-28,0.6072252874116442,0.6081100221932404,0.14570124135764306,0,True
2022-05-29,0.6081100221932404,0.6114396988852372,0.5475451103383877,3,True
2022-05-30,0.6114396988852372,0.614822459163332,0.5532451171002206,0,True
2022-05-31,0.614822459163332,0.6075261029106349,-1.1867419844464044,5,True
2022-06-01,0.6075261029106349,0.6024006644297981,-0.843657327031877,2,True
2022-06-02,0.6024006644297981,0.5968599541686059,-0.9197716052383065,6,True
2022-06-03,0.5968599541686059,0.5984925078223178,0.27352373740434643,0,True
2022-06-04,0.5984925078223178,0.5984925078223178,0.0,0,False
2022-06-05,0.5984925078223178,0.5984925078223178,0.0,0,False
2022-06-06,0.5984925078223178,0.6000304393814762,0.2569675541560734,1,True
2022-06-07,0.6000304393814762,0.5949323362130243,-0.8496407571767617,4,True
2022-06-08,0.5949323362130243,0.6077116399030773,2.148026407742143,4,True
2022-06-09,0.6077116399030773,0.6059636351260854,-0.2876372052493026,2,True
2022-06-10,0.6059636351260854,0.6040995488695468,-0.3076234527094712,4,True
2022-06-11,0.6040995488695468,0.6062612590477615,0.35784005835792776,5,True
2022-06-12,0.6062612590477615,0.6001963026651896,-1.0003865977017745,13,True
2022-06-13,0.6001963026651896,0.5638566073017848,-6.054634992257924,7,True
2022-06-14,0.5638566073017848,0.5710371219419976,1.273464662332091,6,True
2022-06-15,0.5710371219419976,0.5642457379006132,-1.1893069260170197,7,True
2022-06-16,0.5642457379006132,0.570328516527182,1.0780371419730983,5,True
2022-06-17,0.570328516527182,0.5800089342440411,1.6973406442666983,1,True
2022-06-18,0.5800089342440411,0.5746146529871101,-0.9300341664498113,5,True
2022-06-19,0.5746146529871101,0.5877114540286424,2.2792319989490606,3,True
2022-06-20,0.5877114540286424,0.5926277396880025,0.8365135009127167,1,True
2022-06-21,0.5926277396880025,0.5913459720082532,-0.2162854679101045,0,True
2022-06-22,0.5913459720082532,0.5896706491023661,-0.2833067248598331,5,True
2022-06-23,0.5896706491023661,0.5944719966880267,0.8142422542091188,1,True
2022-06-24,0.5944719966880267,0.5891681996692257,-0.8921861834283118,2,True
2022-06-25,0.5891681996692257,0.5852522626832838,-0.6646551847401927,4,True
2022-06-26,0.5852522626832838,0.5889058846697595,0.6242815653073164,0,True
2022-06-27,0.5889058846697595,0.5858386096924546,-0.5208429830897199,5,True
2022-06-28,0.5858386096924546,0.5808521504030721,-0.8511660390564169,3,True
2022-06-29,0.5808521504030721,0.5850524452542417,0.7231263322783343,4,True
2022-06-30,0.5850524452542417,0.5789833525451243,-1.0373587459291733,2,True
2022-07-01,0.5789833525451243,0.5790940848782464,0.01912530518111133,1,True
2022-07-02,0.5790940848782464,0.5785865912415928,-0.0876357831837149,1,True
2022-07-03,0.5785865912415928,0.5794466592257217,0.1486498299732908,1,True
2022-07-04,0.5794466592257217,0.582171698050033,0.4702829468294034,0,True
2022-07-05,0.582171698050033,0.5823981691716704,0.0389010874963569,1,True
2022-07-06,0.5823981691716704,0.5833083595694413,0.15628318321558865,0,True
2022-07-07,0.5833083595694413,0.5833083595694413,0.0,0,False
2022-07-08,0.5833083595694413,0.5833083595694413,0.0,0,False
2022-07-09,0.5833083595694413,0.5833083595694413,0.0,0,False
2022-07-10,0.5833083595694413,0.5833083595694413,0.0,0,False
2022-07-11,0.5833083595694413,0.5803991874399494,-0.49873657419193806,1,True
2022-07-12,0.5803991874399494,0.5822106558474899,0.312107330048228,2,True
2022-07-13,0.5822106558474899,0.5834946878238031,0.2205442245718059,5,True
2022-07-14,0.5834946878238031,0.5884950669016639,0.8569707971995744,0,True
2022-07-15,0.5884950669016639,0.5884950669016639,0.0,0,False
2022-07-16,0.5884950669016639,0.5884950669016639,0.0,0,False
2022-07-17,0.5884950669016639,0.5884950669016639,0.0,0,False
2022-07-18,0.5884950669016639,0.5893634239115386,0.14755552913068293,1,True
2022-07-19,0.5893634239115386,0.591562340064375,0.3731002067014044,0,True
2022-07-20,0.591562340064375,0.5923285992863636,0.12953144074472345,2,True
2022-07-21,0.5923285992863636,0.5828966753030971,-1.5923465445751073,6,True
2022-07-22,0.5828966753030971,0.5880214367176811,0.8791886507020008,0,True
2022-07-23,0.5880214367176811,0.590191532548393,0.369050462313969,2,True
2022-07-24,0.590191532548393,0.5938847918829467,0.6257730128059746,3,True
2022-07-25,0.5938847918829467,0.5945763270864216,0.11644265233368145,1,True
2022-07-26,0.5945763270864216,0.5919560449423588,-0.44069735451844894,1,True
2022-07-27,0.5919560449423588,0.5925943317627385,0.10782672562146267,1,True
2022-07-28,0.5925943317627385,0.592818555939636,0.037837718803435116,0,True
2022-07-29,0.592818555939636,0.5949934237984837,0.3668690591846602,2,True
2022-07-30,0.5949934237984837,0.5984302103841542,0.5776175749522938,1,True
2022-07-31,0.5984302103841542,0.5979648601680319,-0.07776181884662225,1,True
2022-08-01,0.5979648601680319,0.5965879280658322,-0.23026973555148045,1,True
2022-08-02,0.5965879280658322,0.5903187593090662,-1.0508373471603605,5,True
2022-08-03,0.5903187593090662,0.5913616557138869,0.17666665481566035,1,True
2022-08-04,0.5913616557138869,0.5894184345601713,-0.32860114194751544,0,True
2022-08-05,0.5894184345601713,0.5938275659603602,0.7480477605827041,2,True
2022-08-06,0.5938275659603602,0.5932423541267288,-0.09854911883132589,0,True
2022-08-07,0.5932423541267288,0.593854482540054,0.10318353183436102,2,True
2022-08-08,0.593854482540054,0.5943673911382904,0.08636940754283007,0,True
2022-08-09,0.5943673911382904,0.5940946519951484,-0.0458872992038839,5,True
2022-08-10,0.5940946519951484,0.6193038523660891,4.243296970656196,2,True
2022-08-11,0.6193038523660891,0.62167999211688,0.38367914904979816,1,True
2022-08-12,0.62167999211688,0.6183935844166242,-0.5286333390053688,3,True
2022-08-13,0.6183935844166242,0.6174582641053559,-0.15125000239947228,0,True
2022-08-14,0.6174582641053559,0.6174582641053559,0.0,0,False
2022-08-15,0.6174582641053559,0.6174582641053559,0.0,0,False
2022-08-16,0.6174582641053559,0.6137666874858143,-0.5978665821066209,2,True
2022-08-17,0.6137666874858143,0.6111503245314416,-0.42627972611061216,1,True
2022-08-18,0.6111503245314416,0.6082457146738092,-0.4752692980829809,1,True
2022-08-19,0.6082457146738092,0.5894503339932938,-3.0900966874209623,12,True
2022-08-20,0.5894503339932938,0.5933233921925932,0.6570626863608542,1,True
2022-08-21,0.5933233921925932,0.5972301547181329,0.6584541545045841,0,True
2022-08-22,0.5972301547181329,0.5972301547181329,0.0,0,False
2022-08-23,0.5972301547181329,0.5972301547181329,0.0,0,False
2022-08-24,0.5972301547181329,0.5972301547181329,0.0,0,False
2022-08-25,0.5972301547181329,0.5957725458462559,-0.24406149963490664,1,True
2022-08-26,0.5957725458462559,0.5947576528488672,-0.17034907104475083,1,True
2022-08-27,0.5947576528488672,0.5847132948561036,-1.6888152585597616,5,True
2022-08-28,0.5847132948561036,0.5830949027839875,-0.27678386764138363,0,True
2022-08-29,0.5830949027839875,0.5864507363152542,0.5755209855624388,2,True
2022-08-30,0.5864507363152542,0.5888008703623625,0.4007385278215203,1,True
2022-08-31,0.5888008703623625,0.5869987068906455,-0.30607350675414535,2,True
2022-09-01,0.5869987068906455,0.5817610862406812,-0.8922712415685097,1,True
2022-09-02,0.5817610862406812,0.5818361729720238,0.012906798532674735,0,True
2022-09-03,0.5818361729720238,0.5818361729720238,0.0,0,False
2022-09-04,0.5818361729720238,0.5818361729720238,0.0,0,False
2022-09-05,0.5818361729720238,0.5818361729720238,0.0,0,False
2022-09-06,0.5818361729720238,0.5802055392801327,-0.28025649961943566,1,True
2022-09-07,0.5802055392801327,0.572884354233211,-1.2618261204477954,5,True
2022-09-08,0.572884354233211,0.5726902584053946,-0.03388045534534756,0,True
2022-09-09,0.5726902584053946,0.5726902584053946,0.0,0,False
2022-09-10,0.5726902584053946,0.5737143824735113,0.17882687073607073,1,True
2022-09-11,0.5737143824735113,0.5745997796112408,0.15432716431340587,0,True
2022-09-12,0.5745997796112408,0.5745997796112408,0.0,0,False
2022-09-13,0.5745997796112408,0.5695981068445118,-0.8704620057656376,4,True
2022-09-14,0.5695981068445118,0.575561284908972,1.0469097408864592,1,True
2022-09-15,0.575561284908972,0.5743474934755111,-0.21088830421470695,3,True
2022-09-16,0.5743474934755111,0.5629574563997086,-1.983126453095263,2,True
2022-09-17,0.5629574563997086,0.5623198975098105,-0.11325170004418128,1,True
2022-09-18,0.5623198975098105,0.5633280297545369,0.17928091273149427,0,True
2022-09-19,0.5633280297545369,0.5686507321611651,0.9448673109604622,8,True
2022-09-20,0.5686507321611651,0.5696811536548835,0.18120463677278043,0,True
2022-09-21,0.5696811536548835,0.5696811536548835,0.0,0,False
2022-09-22,0.5696811536548835,0.5692127003683086,-0.08223078533832195,2,True
2022-09-23,0.5692127003683086,0.5671428254630262,-0.3636382153706541,2,True
2022-09-24,0.5671428254630262,0.5688184442164181,0.2954491669755255,0,True
2022-09-25,0.5688184442164181,0.5688184442164181,0.0,0,False
2022-09-26,0.5688184442164181,0.5688184442164181,0.0,0,False
2022-09-27,0.5688184442164181,0.5688184442164181,0.0,0,False
2022-09-28,0.5688184442164181,0.5688184442164181,0.0,0,False
2022-09-29,0.5688184442164181,0.5688184442164181,0.0,0,False
2022-09-30,0.5688184442164181,0.5674336963661806,-0.24344285321921122,1,True
2022-10-01,0.5674336963661806,0.567220551194037,-0.037563009301089245,0,True
2022-10-02,0.567220551194037,0.567220551194037,0.0,0,False
2022-10-03,0.567220551194037,0.567220551194037,0.0,0,False
2022-10-04,0.567220551194037,0.567220551194037,0.0,0,False
2022-10-05,0.567220551194037,0.567220551194037,0.0,0,False
2022-10-06,0.567220551194037,0.567220551194037,0.0,0,False
2022-10-07,0.567220551194037,0.567220551194037,0.0,0,False
2022-10-08,0.567220551194037,0.565647045892211,-0.2774062573215441,1,True
2022-10-09,0.565647045892211,0.5647504147081032,-0.15851425206218073,0,True
2022-10-10,0.5647504147081032,0.5647504147081032,0.0,0,False
2022-10-11,0.5647504147081032,0.5768359935272067,2.1399858245965353,6,True
2022-10-12,0.5768359935272067,0.5754690618475407,-0.23697059389578,2,True
2022-10-13,0.5754690618475407,0.5750259633674035,-0.07699779354159997,1,True
2022-10-14,0.5750259633674035,0.5815164199842325,1.1287240977468693,0,True
2022-10-15,0.5815164199842325,0.5815164199842325,0.0,0,False
2022-10-16,0.5815164199842325,0.5815164199842325,0.0,0,False
2022-10-17,0.5815164199842325,0.5815164199842325,0.0,0,False
2022-10-18,0.5815164199842325,0.5815164199842325,0.0,0,False
2022-10-19,0.5815164199842325,0.5815164199842325,0.0,0,False
2022-10-20,0.5815164199842325,0.5846477112529191,0.5384699659506609,2,True
2022-10-21,0.5846477112529191,0.5791422968955376,-0.94166354394567,0,True
2022-10-22,0.5791422968955376,0.5791422968955376,0.0,0,False
2022-10-23,0.5791422968955376,0.5791422968955376,0.0,0,False
2022-10-24,0.5791422968955376,0.5791422968955376,0.0,0,False
2022-10-25,0.5791422968955376,0.5772741711807337,-0.322567653030692,1,True
2022-10-26,0.5772741711807337,0.5762475115106044,-0.17784611219126,0,True
2022-10-27,0.5762475115106044,0.5762475115106044,0.0,0,False
2022-10-28,0.5762475115106044,0.5733734404295086,-0.49875635446331446,1,True
2022-10-29,0.5733734404295086,0.5733734404295086,0.0,0,False
2022-10-30,0.5733734404295086,0.5705026205876736,-0.5006893656749112,2,True
2022-10-31,0.5705026205876736,0.5714192165653382,0.160664639317587,1,True
2022-11-01,0.5714192165653382,0.5785996919033315,1.256603756022301,0,True
2022-11-02,0.5785996919033315,0.581886263801864,0.5680217159675927,3,True
2022-11-03,0.581886263801864,0.5886870460477938,1.1687476864457258,3,True
2022-11-04,0.5886870460477938,0.5940588449066662,0.9125050219699116,3,True
2022-11-05,0.5940588449066662,0.5910978133951013,-0.4984407751777664,2,True
2022-11-06,0.5910978133951013,0.5894028022708302,-0.2867564531385036,2,True
2022-11-07,0.5894028022708302,0.5834404341094989,-1.0115948106048545,7,True
2022-11-08,0.5834404341094989,0.5649642085978793,-3.1667715213841263,10,True
2022-11-09,0.5649642085978793,0.5355757590434018,-5.20182501957307,13,True
2022-11-10,0.5355757590434018,0.5481985067618594,2.356855683872494,9,True
2022-11-11,0.5481985067618594,0.541645107581457,-1.195442727327467,11,True
2022-11-12,0.541645107581457,0.5317871993694981,-1.819993954339627,2,True
2022-11-13,0.5317871993694981,0.5287239912652333,-0.5760214062874525,1,True
2022-11-14,0.5287239912652333,0.5303821344955224,0.3136122547269249,6,True
2022-11-15,0.5303821344955224,0.5325404217768555,0.4069306149208751,1,True
2022-11-16,0.5325404217768555,0.5294698360058033,-0.5765920567694982,2,True
2022-11-17,0.5294698360058033,0.5304273610412267,0.18084600298418074,1,True
2022-11-18,0.5304273610412267,0.5319525899127275,0.287547171116298,0,True
2022-11-19,0.5319525899127275,0.5316179617499791,-0.06290563653489345,3,True
2022-11-20,0.5316179617499791,0.5218646481863739,-1.8346471085174176,3,True
2022-11-21,0.5218646481863739,0.5122538821151947,-1.8416204478650333,6,True
2022-11-22,0.5122538821151947,0.504247354879596,-1.5629998161337921,3,True
2022-11-23,0.504247354879596,0.5111069856769459,1.3603702093762715,1,True
2022-11-24,0.5111069856769459,0.5070927276060669,-0.7854046576104223,2,True
2022-11-25,0.5070927276060669,0.5046524154461922,-0.48123588192542366,2,True
2022-11-26,0.5046524154461922,0.5055960574514162,0.18698850463039207,0,True
2022-11-27,0.5055960574514162,0.5055960574514162,0.0,0,False
2022-11-28,0.5055960574514162,0.5009145738299339,-0.9259335693954096,5,True
2022-11-29,0.5009145738299339,0.5033198889047258,0.48018468626320754,0,True
2022-11-30,0.5033198889047258,0.5033198889047258,0.0,0,False
2022-12-01,0.5033198889047258,0.5035306222461253,0.041868669616484944,1,True
2022-12-02,0.5035306222461253,0.5037612631363552,0.045804739580890264,1,True
2022-12-03,0.5037612631363552,0.5036401493795913,-0.024041895561754956,0,True
2022-12-04,0.5036401493795913,0.5036401493795913,0.0,0,False
2022-12-05,0.5036401493795913,0.5036401493795913,0.0,0,False
2022-12-06,0.5036401493795913,0.5042578965281032,0.12265645407196768,2,True
2022-12-07,0.5042578965281032,0.5017763550088988,-0.4921175327724403,1,True
2022-12-08,0.5017763550088988,0.5002799803918898,-0.2982154503837653,2,True
2022-12-09,0.5002799803918898,0.5019710567706483,0.33802599445091897,0,True
2022-12-10,0.5019710567706483,0.5019710567706483,0.0,0,False
2022-12-11,0.5019710567706483,0.5019710567706483,0.0,0,False
2022-12-12,0.5019710567706483,0.5015384308121964,-0.08618543890461794,1,True
2022-12-13,0.5015384308121964,0.5020972849475431,0.11142797859811093,1,True
2022-12-14,0.5020972849475431,0.5019658886135423,-0.0261694970158155,0,True
2022-12-15,0.5019658886135423,0.5019658886135423,0.0,0,False
2022-12-16,0.5019658886135423,0.5024623812369773,0.09890963404033393,5,True
2022-12-17,0.5024623812369773,0.4988128278898197,-0.7263336487346672,5,True
2022-12-18,0.4988128278898197,0.5003833144481806,0.3148448617499966,0,True
2022-12-19,0.5003833144481806,0.4978882001463402,-0.49864058808435363,1,True
2022-12-20,0.4978882001463402,0.4978882001463402,0.0,0,False
2022-12-21,0.4978882001463402,0.4978882001463402,0.0,0,False
2022-12-22,0.4978882001463402,0.4978882001463402,0.0,0,False
2022-12-23,0.4978882001463402,0.4978882001463402,0.0,0,False
2022-12-24,0.4978882001463402,0.4978882001463402,0.0,0,False
2022-12-25,0.4978882001463402,0.4978882001463402,0.0,0,False
2022-12-26,0.4978882001463402,0.4978882001463402,0.0,0,False
2022-12-27,0.4978882001463402,0.4978882001463402,0.0,0,False
2022-12-28,0.4978882001463402,0.49942441554669054,0.30854625594636254,4,True
2022-12-29,0.49942441554669054,0.4950271135518839,-0.8804739732223954,0,True
2022-12-30,0.4950271135518839,0.5007252446684738,1.151074549372666,1,True
2022-12-31,0.5007252446684738,0.5023040892591342,0.31531156207347255,0,True
2023-01-01,0.5023040892591342,0.5023040892591342,0.0,0,False
2023-01-02,0.5023040892591342,0.501783560095515,-0.10362829504074744,1,True
2023-01-03,0.501783560095515,0.503858308687851,0.41347480414486437,0,True
2023-01-04,0.503858308687851,0.503858308687851,0.0,0,False
2023-01-05,0.503858308687851,0.503858308687851,0.0,0,False
2023-01-06,0.503858308687851,0.5032399386759728,-0.12272696534240124,1,True
2023-01-07,0.5032399386759728,0.504351250987244,0.22083150121092743,0,True
2023-01-08,0.504351250987244,0.504351250987244,0.0,0,False
2023-01-09,0.504351250987244,0.5043781685887833,0.005337074407285591,1,True
2023-01-10,0.5043781685887833,0.5049393505976185,0.11126215284167351,1,True
2023-01-11,0.5049393505976185,0.4983089994702001,-1.313098517588518,3,True
2023-01-12,0.4983089994702001,0.49601263494090564,-0.46083143827141404,0,True
2023-01-13,0.49601263494090564,0.4959290132846809,-0.01685877542911829,1,True
2023-01-14,0.4959290132846809,0.4984273163243107,0.5037622265902097,4,True
2023-01-15,0.4984273163243107,0.49732505274193367,-0.2211483091468125,2,True
2023-01-16,0.49732505274193367,0.4968983295597913,-0.08580367704978942,1,True
2023-01-17,0.4968983295597913,0.4965882127730777,-0.062410511017085835,0,True
2023-01-18,0.4965882127730777,0.4965882127730777,0.0,0,False
2023-01-19,0.4965882127730777,0.4889498905179471,-1.5381602016842466,7,True
2023-01-20,0.4889498905179471,0.4897707020564063,0.16787232278336894,0,True
2023-01-21,0.4897707020564063,0.48786521492709994,-0.3890569855048098,2,True
2023-01-22,0.48786521492709994,0.493119209777887,1.0769357375832067,1,True
2023-01-23,0.493119209777887,0.4922526080228288,-0.1757387945702904,0,True
2023-01-24,0.4922526080228288,0.5109434084995671,3.796993692285633,4,True
2023-01-25,0.5109434084995671,0.5008215710984808,-1.9810094880781448,8,True
2023-01-26,0.5008215710984808,0.5116415479031362,2.160445441861336,0,True
2023-01-27,0.5116415479031362,0.5103753559321272,-0.24747637798341326,2,True
2023-01-28,0.5103753559321272,0.5135926808701233,0.6303840694110496,0,True
2023-01-29,0.5135926808701233,0.5126543847990499,-0.18269264847851074,1,True
2023-01-30,0.5126543847990499,0.5119546248094233,-0.1364974162662902,5,True
2023-01-31,0.5119546248094233,0.5197065995707751,1.5141917634277746,4,True
2023-02-01,0.5197065995707751,0.5176372148398116,-0.3981832696895893,2,True
2023-02-02,0.5176372148398116,0.5224882077854641,0.9371414586475835,0,True
2023-02-03,0.5224882077854641,0.5271649062029828,0.8950820990469177,2,True
2023-02-04,0.5271649062029828,0.5263447593451879,-0.15557690736703877,0,True
2023-02-05,0.5263447593451879,0.5278352791547021,0.2831831766252346,5,True
2023-02-06,0.5278352791547021,0.5201077868015237,-1.463996943431578,1,True
2023-02-07,0.5201077868015237,0.5186879751320232,-0.2729841208938155,0,True
2023-02-08,0.5186879751320232,0.5142185528961117,-0.8616783982265841,3,True
2023-02-09,0.5142185528961117,0.5104232406876863,-0.7380737600870324,9,True
2023-02-10,0.5104232406876863,0.4983835974858823,-2.358756859421829,8,True
2023-02-11,0.4983835974858823,0.5056650232080145,1.4610082994030549,2,True
2023-02-12,0.5056650232080145,0.5123016713198731,1.3124593964903397,1,True
2023-02-13,0.5123016713198731,0.5124014963079285,0.019485587036682794,2,True
2023-02-14,0.5124014963079285,0.5118592018677938,-0.10583389081456618,1,True
2023-02-15,0.5118592018677938,0.5125955064402131,0.14384904476318905,0,True
2023-02-16,0.5125955064402131,0.5125955064402131,0.0,0,False
2023-02-17,0.5125955064402131,0.5167018185220598,0.8010823408038492,1,True
2023-02-18,0.5167018185220598,0.5164102795084385,-0.05642306707088762,1,True
2023-02-19,0.5164102795084385,0.5172671060223234,0.16591972466164506,1,True
2023-02-20,0.5172671060223234,0.5207503936167799,0.673402107712251,3,True
2023-02-21,0.5207503936167799,0.5255206640929785,0.9160378051886964,5,True
2023-02-22,0.5255206640929785,0.5220260759311472,-0.6649763559464783,1,True
2023-02-23,0.5220260759311472,0.5258356040039688,0.7297581957043775,1,True
2023-02-24,0.5258356040039688,0.5252431392561706,-0.11267109782732154,0,True
2023-02-25,0.5252431392561706,0.5230826781217508,-0.41132591231546334,2,True
2023-02-26,0.5230826781217508,0.5227726165238245,-0.059275829786542555,0,True
2023-02-27,0.5227726165238245,0.5201649174707076,-0.4988208966369978,1,True
2023-02-28,0.5201649174707076,0.519073201213027,-0.20987887129894078,1,True
2023-03-01,0.519073201213027,0.518497222523062,-0.11096290246135343,1,True
2023-03-02,0.518497222523062,0.5156383273873392,-0.5513809932888525,1,True
2023-03-03,0.5156383273873392,0.5117725805173513,-0.7497012275202719,9,True
2023-03-04,0.5117725805173513,0.5134328326817025,0.3244120977862419,0,True
2023-03-05,0.5134328326817025,0.5204161028926328,1.3601136831192129,4,True
2023-03-06,0.5204161028926328,0.5198992647187587,-0.09931248687375938,0,True
2023-03-07,0.5198992647187587,0.5198992647187587,0.0,0,False
2023-03-08,0.5198992647187587,0.5198992647187587,0.0,0,False
2023-03-09,0.5198992647187587,0.5198992647187587,0.0,0,False
2023-03-10,0.5198992647187587,0.5071458336026202,-2.4530581175254196,10,True
2023-03-11,0.5071458336026202,0.5016257016402541,-1.08847033665892,2,True
2023-03-12,0.5016257016402541,0.5016257016402541,0.0,0,False
2023-03-13,0.5016257016402541,0.5016257016402541,0.0,0,False
2023-03-14,0.5016257016402541,0.5050329368829412,0.6792385700225889,1,True
2023-03-15,0.5050329368829412,0.49823256243780434,-1.3465209788313337,4,True
2023-03-16,0.49823256243780434,0.4970456558250607,-0.23822341256384272,5,True
2023-03-17,0.4970456558250607,0.4951335241183657,-0.38469941026262333,2,True
2023-03-18,0.4951335241183657,0.5050953514158516,2.0119476489142807,2,True
2023-03-19,0.5050953514158516,0.5026541661698775,-0.4833117626466321,2,True
2023-03-20,0.5026541661698775,0.5050626773168668,0.47915869579708836,4,True
2023-03-21,0.5050626773168668,0.49551682702379735,-1.8900328061819183,0,True
2023-03-22,0.49551682702379735,0.49551682702379735,0.0,0,False
2023-03-23,0.49551682702379735,0.500629794808598,1.0318454401458954,6,True
2023-03-24,0.500629794808598,0.4959499586383556,-0.934789782544132,1,True
2023-03-25,0.4959499586383556,0.4934765646859259,-0.49871845119626723,1,True
2023-03-26,0.4934765646859259,0.4934765646859259,0.0,0,False
2023-03-27,0.4934765646859259,0.4910162030730534,-0.4985771947323192,1,True
2023-03-28,0.4910162030730534,0.5002172228904785,1.873872951613409,4,True
2023-03-29,0.5002172228904785,0.5004344957869883,0.04343570884151049,0,True
2023-03-30,0.5004344957869883,0.49917759048563415,-0.2511628019122747,1,True
2023-03-31,0.49917759048563415,0.4979325951141637,-0.24940930746895074,0,True
2023-04-01,0.4979325951141637,0.49750936626140224,-0.08499721787934567,1,True
2023-04-02,0.49750936626140224,0.4964536116152402,-0.2122079940113708,0,True
2023-04-03,0.4964536116152402,0.4964536116152402,0.0,0,False
2023-04-04,0.4964536116152402,0.49663077226489627,0.03568523735373308,1,True
2023-04-05,0.49663077226489627,0.49585930745140605,-0.15533971243303357,1,True
2023-04-06,0.49585930745140605,0.4913692186836841,-0.9055166859325281,2,True
2023-04-07,0.4913692186836841,0.4891011686576082,-0.46157755509221854,1,True
2023-04-08,0.4891011686576082,0.4900547312939869,0.1949622486071334,1,True
2023-04-09,0.4900547312939869,0.49016461984662585,0.022423730579812506,0,True
2023-04-10,0.49016461984662585,0.49016461984662585,0.0,0,False
2023-04-11,0.49016461984662585,0.49016461984662585,0.0,0,False
2023-04-12,0.49016461984662585,0.492494498732449,0.4753257969847269,1,True
2023-04-13,0.492494498732449,0.4927196680212454,0.04572016324566608,0,True
2023-04-14,0.4927196680212454,0.49612470502567035,0.691069836546121,1,True
2023-04-15,0.49612470502567035,0.4947436567312753,-0.27836716865845545,1,True
2023-04-16,0.4947436567312753,0.496418079513439,0.33844249630736734,0,True
2023-04-17,0.496418079513439,0.49393866362507005,-0.49946123855907354,1,True
2023-04-18,0.49393866362507005,0.49393866362507005,0.0,0,False
2023-04-19,0.49393866362507005,0.4855697134904537,-1.6943298330192924,9,True
2023-04-20,0.4855697134904537,0.47902016484576576,-1.3488379655327676,0,True
2023-04-21,0.47902016484576576,0.47902016484576576,0.0,0,False
2023-04-22,0.47902016484576576,0.4785018728631843,-0.10819836420630224,1,True
2023-04-23,0.4785018728631843,0.4785462999695595,0.009284625389094359,0,True
2023-04-24,0.4785462999695595,0.4785462999695595,0.0,0,False
2023-04-25,0.4785462999695595,0.4785462999695595,0.0,0,False
2023-04-26,0.4785462999695595,0.4785462999695595,0.0,0,False
2023-04-27,0.4785462999695595,0.47768845636453583,-0.1792603150579608,9,True
2023-04-28,0.47768845636453583,0.48364901375762004,1.2477918010511013,0,True
2023-04-29,0.48364901375762004,0.48123640985724403,-0.4988336235055568,1,True
2023-04-30,0.48123640985724403,0.48123640985724403,0.0,0,False
2023-05-01,0.48123640985724403,0.48123640985724403,0.0,0,False
2023-05-02,0.48123640985724403,0.48123640985724403,0.0,0,False
2023-05-03,0.48123640985724403,0.48123640985724403,0.0,0,False
2023-05-04,0.48123640985724403,0.48123640985724403,0.0,0,False
2023-05-05,0.48123640985724403,0.48123640985724403,0.0,0,False
2023-05-06,0.48123640985724403,0.4788383978325446,-0.498302284611174,1,True
2023-05-07,0.4788383978325446,0.4788383978325446,0.0,0,False
2023-05-08,0.4788383978325446,0.48687267475001134,1.6778681396132367,6,True
2023-05-09,0.48687267475001134,0.4779355862160485,-1.8356110329156738,4,True
2023-05-10,0.4779355862160485,0.4747951856564539,-0.6570761102888456,2,True
2023-05-11,0.4747951856564539,0.47110545825393546,-0.7771198011237268,4,True
2023-05-12,0.47110545825393546,0.4680453098114174,-0.6495676050665922,0,True
2023-05-13,0.4680453098114174,0.4680453098114174,0.0,0,False
2023-05-14,0.4680453098114174,0.4680453098114174,0.0,0,False
2023-05-15,0.4680453098114174,0.4680453098114174,0.0,0,False
2023-05-16,0.4680453098114174,0.4680453098114174,0.0,0,False
2023-05-17,0.4680453098114174,0.4680453098114174,0.0,0,False
2023-05-18,0.4680453098114174,0.4665601997089898,-0.31730049875426936,1,True
2023-05-19,0.4665601997089898,0.4657068790587574,-0.18289615161444228,0,True
2023-05-20,0.4657068790587574,0.4657068790587574,0.0,0,False
2023-05-21,0.4657068790587574,0.4657068790587574,0.0,0,False
2023-05-22,0.4657068790587574,0.46338054693347264,-0.49952711241597614,1,True
2023-05-23,0.46338054693347264,0.46338054693347264,0.0,0,False
2023-05-24,0.46338054693347264,0.462008270427955,-0.2961446082704544,1,True
2023-05-25,0.462008270427955,0.46422089208981765,0.4789138644234914,0,True
2023-05-26,0.46422089208981765,0.46531828077009424,0.23639364340892755,1,True
2023-05-27,0.46531828077009424,0.469353810658497,0.8672622708319144,0,True
2023-05-28,0.469353810658497,0.469353810658497,0.0,0,False
2023-05-29,0.469353810658497,0.469353810658497,0.0,0,False
2023-05-30,0.469353810658497,0.4714658840523816,0.4499960042768869,2,True
2023-05-31,0.4714658840523816,0.46671384371929253,-1.007928779966849,1,True
2023-06-01,0.46671384371929253,0.46671384371929253,0.0,0,False
2023-06-02,0.46671384371929253,0.4728484050221709,1.3144159714636672,1,True
2023-06-03,0.4728484050221709,0.4831527471531279,2.1792062786959887,0,True
2023-06-04,0.4831527471531279,0.47966728648219287,-0.7213993279500786,3,True
2023-06-05,0.47966728648219287,0.48397276786065463,0.8975974596970193,1,True
2023-06-06,0.48397276786065463,0.4700493963563523,-2.876891517233293,11,True
2023-06-07,0.4700493963563523,0.4682219863664863,-0.3887697769705434,1,True
2023-06-08,0.4682219863664863,0.46707205300927407,-0.2455957624151739,1,True
2023-06-09,0.46707205300927407,0.46554024814332434,-0.3279590067700511,1,True
2023-06-10,0.46554024814332434,0.47171806553163675,1.327021114275495,7,True
2023-06-11,0.47171806553163675,0.47136154050438794,-0.07558010881923982,0,True
2023-06-12,0.47136154050438794,0.47136154050438794,0.0,0,False
2023-06-13,0.47136154050438794,0.4717639694274627,0.0853758502749491,1,True
2023-06-14,0.4717639694274627,0.4717385608038714,-0.005385876251240429,0,True
2023-06-15,0.4717385608038714,0.47408218087571014,0.49680485475791514,5,True
2023-06-16,0.47408218087571014,0.4786549572189949,0.9645535157719154,0,True
2023-06-17,0.4786549572189949,0.4793659363151436,0.14853687096014756,1,True
2023-06-18,0.4793659363151436,0.4799647756763486,0.12492321957797703,0,True
2023-06-19,0.4799647756763486,0.48237732718354165,0.502651783934227,1,True
2023-06-20,0.48237732718354165,0.48210261570357527,-0.056949500833780586,1,True
2023-06-21,0.48210261570357527,0.48210261570357527,0.0,0,False
2023-06-22,0.48210261570357527,0.4796959150001368,-0.49920921916719596,1,True
2023-06-23,0.4796959150001368,0.4796959150001368,0.0,0,False
2023-06-24,0.4796959150001368,0.4797022267917768,0.0013157901584293086,1,True
2023-06-25,0.4797022267917768,0.47651693792740496,-0.6640137748942565,4,True
2023-06-26,0.47651693792740496,0.4751198987670819,-0.29317723025742426,0,True
2023-06-27,0.4751198987670819,0.4751198987670819,0.0,0,False
2023-06-28,0.4751198987670819,0.4751198987670819,0.0,0,False
2023-06-29,0.4751198987670819,0.47373220759679635,-0.2920717852244348,2,True
2023-06-30,0.47373220759679635,0.47260963970948405,-0.23696254324927502,8,True
2023-07-01,0.47260963970948405,0.47450295896283146,0.4006095293594081,1,True
2023-07-02,0.47450295896283146,0.47449479003377043,-0.0017215760000466318,0,True
2023-07-03,0.47449479003377043,0.47449479003377043,0.0,0,False
2023-07-04,0.47449479003377043,0.47388262219994964,-0.12901465868091488,1,True
2023-07-05,0.47388262219994964,0.4741163964931004,0.04933168725738124,1,True
2023-07-06,0.4741163964931004,0.47188565452008113,-0.4705051311280073,2,True
2023-07-07,0.47188565452008113,0.4714145268258637,-0.09983937627783268,0,True
2023-07-08,0.4714145268258637,0.4714145268258637,0.0,0,False
2023-07-09,0.4714145268258637,0.4714145268258637,0.0,0,False
2023-07-10,0.4714145268258637,0.4714145268258637,0.0,0,False
2023-07-11,0.4714145268258637,0.4714145268258637,0.0,0,False
2023-07-12,0.4714145268258637,0.47044159622909604,-0.20638536604262736,1,True
2023-07-13,0.47044159622909604,0.47006764477440843,-0.07948945367184379,0,True
2023-07-14,0.47006764477440843,0.47006764477440843,0.0,0,False
2023-07-15,0.47006764477440843,0.47156671259277233,0.3189047012762014,6,True
2023-07-16,0.47156671259277233,0.4721740175700575,0.12878453060143347,1,True
2023-07-17,0.4721740175700575,0.47291676009150757,0.15730270913092426,0,True
2023-07-18,0.47291676009150757,0.47284080756355307,-0.0160604432669742,2,True
2023-07-19,0.47284080756355307,0.4717505724939023,-0.2305712730820586,0,True
2023-07-20,0.4717505724939023,0.4698870912753496,-0.39501408736006827,2,True
2023-07-21,0.4698870912753496,0.4689382507158925,-0.2019294798845772,0,True
2023-07-22,0.4689382507158925,0.4689382507158925,0.0,0,False
2023-07-23,0.4689382507158925,0.4689382507158925,0.0,0,False
2023-07-24,0.4689382507158925,0.4649573554325696,-0.8489167341852788,4,True
2023-07-25,0.4649573554325696,0.4639012391334142,-0.22714261572932548,0,True
2023-07-26,0.4639012391334142,0.4639012391334142,0.0,0,False
2023-07-27,0.4639012391334142,0.4639012391334142,0.0,0,False
2023-07-28,0.4639012391334142,0.4639012391334142,0.0,0,False
2023-07-29,0.4639012391334142,0.4639012391334142,0.0,0,False
2023-07-30,0.4639012391334142,0.4639012391334142,0.0,0,False
2023-07-31,0.4639012391334142,0.46158894093563924,-0.4984462214618013,1,True
2023-08-01,0.46158894093563924,0.459361256620197,-0.4826121507432002,2,True
2023-08-02,0.459361256620197,0.46221275165946785,0.6207521853826004,0,True
2023-08-03,0.46221275165946785,0.46221275165946785,0.0,0,False
2023-08-04,0.46221275165946785,0.46221275165946785,0.0,0,False
2023-08-05,0.46221275165946785,0.46221275165946785,0.0,0,False
2023-08-06,0.46221275165946785,0.46221275165946785,0.0,0,False
2023-08-07,0.46221275165946785,0.4608308813856357,-0.29896844448165094,2,True
2023-08-08,0.4608308813856357,0.4558646974085196,-1.077658676472315,4,True
2023-08-09,0.4558646974085196,0.4538358219978221,-0.44506087491117396,0,True
2023-08-10,0.4538358219978221,0.45157219537223,-0.498776543382462,1,True
2023-08-11,0.45157219537223,0.45157219537223,0.0,0,False
2023-08-12,0.45157219537223,0.45157219537223,0.0,0,False
2023-08-13,0.45157219537223,0.45311711955486184,0.34212119312579947,1,True
2023-08-14,0.45311711955486184,0.4503797005962155,-0.6041305526781948,1,True
2023-08-15,0.4503797005962155,0.4503797005962155,0.0,0,False
2023-08-16,0.4503797005962155,0.45007682214192163,-0.06724957938666343,6,True
2023-08-17,0.45007682214192163,0.45328390683063957,0.7125638404251511,5,True
2023-08-18,0.45328390683063957,0.46721937667901314,3.0743358937691756,6,True
2023-08-19,0.46721937667901314,0.46801763163105564,0.17085227879811704,0,True
2023-08-20,0.46801763163105564,0.4672747711335909,-0.15872489565742498,1,True
2023-08-21,0.4672747711335909,0.4660807214120775,-0.2555348149048675,1,True
2023-08-22,0.4660807214120775,0.4716042091235401,1.1850925081664299,1,True
2023-08-23,0.4716042091235401,0.4721440391483512,0.11446675291857389,0,True
2023-08-24,0.4721440391483512,0.4721440391483512,0.0,0,False
2023-08-25,0.4721440391483512,0.4627046633768577,-1.9992576393678685,6,True
2023-08-26,0.4627046633768577,0.46215870768366746,-0.11799226080969616,0,True
2023-08-27,0.46215870768366746,0.46215870768366746,0.0,0,False
2023-08-28,0.46215870768366746,0.45906331075118767,-0.669769254807262,2,True
2023-08-29,0.45906331075118767,0.46167415825834257,0.5687336465383552,1,True
2023-08-30,0.46167415825834257,0.4577795985324988,-0.843573255331409,2,True
2023-08-31,0.4577795985324988,0.4604859328874409,0.5911871921810752,2,True
2023-09-01,0.4604859328874409,0.4575842096351086,-0.6301437340631155,1,True
2023-09-02,0.4575842096351086,0.4517736448219154,-1.2698350797171742,3,True
2023-09-03,0.4517736448219154,0.45102266452734174,-0.1662293281560645,0,True
2023-09-04,0.45102266452734174,0.45011904591355795,-0.2003488260907571,3,True
2023-09-05,0.45011904591355795,0.4500325930496242,-0.019206666484927748,0,True
2023-09-06,0.4500325930496242,0.45068604620358516,0.14520129520683156,4,True
2023-09-07,0.45068604620358516,0.4533205258533236,0.5845487500512503,3,True
2023-09-08,0.4533205258533236,0.4479660931680427,-1.1811582268863252,4,True
2023-09-09,0.4479660931680427,0.45011181705378145,0.47899247698950376,4,True
2023-09-10,0.45011181705378145,0.443754019919099,-1.4124928281815774,5,True
2023-09-11,0.443754019919099,0.4392185013109326,-1.0220794414421919,1,True
2023-09-12,0.4392185013109326,0.43792499798701906,-0.2945011014000576,2,True
2023-09-13,0.43792499798701906,0.44222345399022833,0.9815507274002933,2,True
2023-09-14,0.44222345399022833,0.4459510903437955,0.8429304958686101,4,True
2023-09-15,0.4459510903437955,0.4521863415002033,1.3981917056421933,0,True
2023-09-16,0.4521863415002033,0.4508357369849591,-0.29868317357029106,5,True
2023-09-17,0.4508357369849591,0.4512964833869039,0.10219828734654435,2,True
2023-09-18,0.4512964833869039,0.4466828007053593,-1.0223174457110074,1,True
2023-09-19,0.4466828007053593,0.4466828007053593,0.0,0,False
2023-09-20,0.4466828007053593,0.44723859727716886,0.12442757386939007,3,True
2023-09-21,0.44723859727716886,0.4423957675585709,-1.0828291091335984,1,True
2023-09-22,0.4423957675585709,0.44470282004016853,0.521490631415733,0,True
2023-09-23,0.44470282004016853,0.44470282004016853,0.0,0,False
2023-09-24,0.44470282004016853,0.44248405036384986,-0.49893312484914354,1,True
2023-09-25,0.44248405036384986,0.4422828394105402,-0.045473040925247954,1,True
2023-09-26,0.4422828394105402,0.44271202608846344,0.09703896232899911,1,True
2023-09-27,0.44271202608846344,0.44151809766732464,-0.2696851114905585,0,True
2023-09-28,0.44151809766732464,0.44151809766732464,0.0,0,False
2023-09-29,0.44151809766732464,0.43712822343767443,-0.9942682424216032,2,True
2023-09-30,0.43712822343767443,0.43712822343767443,0.0,0,False
2023-10-01,0.43712822343767443,0.4367660396553506,-0.08285527287062999,1,True
2023-10-02,0.4367660396553506,0.4396092366072494,0.6509656643960415,1,True
2023-10-03,0.4396092366072494,0.4380347841041149,-0.35814818525778946,2,True
2023-10-04,0.4380347841041149,0.43135848698569984,-1.5241477071437748,5,True
2023-10-05,0.43135848698569984,0.4278360023217946,-0.8166026101677271,1,True
2023-10-06,0.4278360023217946,0.42782609120036524,-0.002316570222127279,0,True
2023-10-07,0.42782609120036524,0.425693188309331,-0.49854436999152707,1,True
2023-10-08,0.425693188309331,0.42488663558792467,-0.18946808254310943,1,True
2023-10-09,0.42488663558792467,0.42385514846141825,-0.24276760907744332,1,True
2023-10-10,0.42385514846141825,0.4213765275374904,-0.5847801856188828,1,True
2023-10-11,0.4213765275374904,0.4212908842756469,-0.02032463989960487,0,True
2023-10-12,0.4212908842756469,0.4212908842756469,0.0,0,False
2023-10-13,0.4212908842756469,0.4212908842756469,0.0,0,False
2023-10-14,0.4212908842756469,0.4212908842756469,0.0,0,False
2023-10-15,0.4212908842756469,0.42125559713609695,-0.008375956107065097,1,True
2023-10-16,0.42125559713609695,0.42236689280852974,0.2638055565286068,2,True
2023-10-17,0.42236689280852974,0.4232219688734684,0.20244864820082586,2,True
2023-10-18,0.4232219688734684,0.4181228428855093,-1.2048349005917447,3,True
2023-10-19,0.4181228428855093,0.41163795307705964,-1.5509532470641352,4,True
2023-10-20,0.41163795307705964,0.4106269418834352,-0.24560689461867735,0,True
2023-10-21,0.4106269418834352,0.4107663557173839,0.033951458058067985,2,True
2023-10-22,0.4107663557173839,0.4129599802996527,0.5340321941503134,1,True
2023-10-23,0.4129599802996527,0.4129599802996527,0.0,0,False
2023-10-24,0.4129599802996527,0.41168657857420726,-0.30835959564929905,4,True
2023-10-25,0.41168657857420726,0.42251625374013907,2.630563085985993,6,True
2023-10-26,0.42251625374013907,0.4290727032520766,1.5517626727728162,2,True
2023-10-27,0.4290727032520766,0.426698626647445,-0.5533040406993317,4,True
2023-10-28,0.426698626647445,0.4264446905772445,-0.059511808649515,1,True
2023-10-29,0.4264446905772445,0.4272293351823813,0.1839968048552132,0,True
2023-10-30,0.4272293351823813,0.42602846540892503,-0.28108317350062917,2,True
2023-10-31,0.42602846540892503,0.4172674597287278,-2.0564366918036647,5,True
2023-11-01,0.4172674597287278,0.4138926210030686,-0.8087950898095997,4,True
2023-11-02,0.4138926210030686,0.4130738697951317,-0.19781730004092557,3,True
2023-11-03,0.4130738697951317,0.4106778052124886,-0.5800571660055542,1,True
2023-11-04,0.4106778052124886,0.41142348827767067,0.18157374363005907,1,True
2023-11-05,0.41142348827767067,0.41080026155079047,-0.15148058986355073,4,True
2023-11-06,0.41080026155079047,0.4066833533671691,-1.0021678584331561,3,True
2023-11-07,0.4066833533671691,0.4024604270502007,-1.0383818963831004,5,True
2023-11-08,0.4024604270502007,0.40309508298361796,0.15769399691516472,0,True
2023-11-09,0.40309508298361796,0.4065653919584969,0.8609157296567638,3,True
2023-11-10,0.4065653919584969,0.3995472454075993,-1.726203629160361,5,True
2023-11-11,0.3995472454075993,0.40020052520489974,0.16350501844506482,3,True
2023-11-12,0.40020052520489974,0.40603171121613363,1.4570660566345817,4,True
2023-11-13,0.40603171121613363,0.4033640136829472,-0.6570170406631992,3,True
2023-11-14,0.4033640136829472,0.4033261904459294,-0.00937694879433737,4,True
2023-11-15,0.4033261904459294,0.39936979979466264,-0.9809406740713844,1,True
2023-11-16,0.39936979979466264,0.39381036532876984,-1.3920517947904942,3,True
2023-11-17,0.39381036532876984,0.3915747307609855,-0.5676931753479719,3,True
2023-11-18,0.3915747307609855,0.3899309650938479,-0.4197833869267087,3,True
2023-11-19,0.3899309650938479,0.38526247532530983,-1.1972605887851095,3,True
2023-11-20,0.38526247532530983,0.3861732585412468,0.23640589838600512,1,True
2023-11-21,0.3861732585412468,0.3777061454411503,-2.1925684683814395,4,True
2023-11-22,0.3777061454411503,0.3773601613271651,-0.0916013991726472,4,True
2023-11-23,0.3773601613271651,0.37712124852760354,-0.0633116115705823,3,True
2023-11-24,0.37712124852760354,0.38328323679148196,1.633954142848415,1,True
2023-11-25,0.38328323679148196,0.38379758811938713,0.1341961449216722,4,True
2023-11-26,0.38379758811938713,0.3837928705085606,-0.0012291924109453234,0,True
2023-11-27,0.3837928705085606,0.38191169263400837,-0.49015446067549595,2,True
2023-11-28,0.38191169263400837,0.38314587531046285,0.32315917534297967,3,True
2023-11-29,0.38314587531046285,0.3865756193905947,0.8951535958341639,3,True
2023-11-30,0.3865756193905947,0.3843383704830186,-0.5787351284860964,0,True
2023-12-01,0.3843383704830186,0.3843383704830186,0.0,0,False
2023-12-02,0.3843383704830186,0.3843383704830186,0.0,0,False
2023-12-03,0.3843383704830186,0.38470574961024384,0.09558741864974518,1,True
2023-12-04,0.38470574961024384,0.38837005240019207,0.9524949376661596,3,True
2023-12-05,0.38837005240019207,0.3910979331356862,0.7023921434300417,4,True
2023-12-06,0.3910979331356862,0.3826391224904748,-2.1628369593752583,4,True
2023-12-07,0.3826391224904748,0.3827073292161307,0.017825340287203062,4,True
2023-12-08,0.3827073292161307,0.3812220331393361,-0.3881023339262435,1,True
2023-12-09,0.3812220331393361,0.3830888743012907,0.4896991778206683,0,True
2023-12-10,0.3830888743012907,0.38218547460851815,-0.23581987193447285,3,True
2023-12-11,0.38218547460851815,0.38297714012164497,0.2071417062455616,6,True
2023-12-12,0.38297714012164497,0.38692965099554605,1.0320487725835603,0,True
2023-12-13,0.38692965099554605,0.3849408922095392,-0.5139845914857943,5,True
2023-12-14,0.3849408922095392,0.38886251944499267,1.018760883766734,1,True
2023-12-15,0.38886251944499267,0.38557219579949004,-0.84614059750443,2,True
2023-12-16,0.38557219579949004,0.3972038205940812,3.016717730507734,4,True
2023-12-17,0.3972038205940812,0.3905712876132569,-1.6698059376428764,2,True
2023-12-18,0.3905712876132569,0.3886150426091591,-0.5008675922012151,7,True
2023-12-19,0.3886150426091591,0.3900696045925133,0.37429379305244925,4,True
2023-12-20,0.3900696045925133,0.3911595674210345,0.2794277779371912,2,True
2023-12-21,0.3911595674210345,0.38800987733598574,-0.8052187259064314,1,True
2023-12-22,0.38800987733598574,0.3848000908914611,-0.8272434883778046,1,True
2023-12-23,0.3848000908914611,0.3846189387872376,-0.047076939042256516,1,True
2023-12-24,0.3846189387872376,0.39646444668329206,3.0798035929809453,2,True
2023-12-25,0.39646444668329206,0.39505934027227696,-0.3544091841701902,1,True
2023-12-26,0.39505934027227696,0.3934472628779624,-0.408059557129703,1,True
2023-12-27,0.3934472628779624,0.3892559313271187,-1.0652842061182999,11,True
2023-12-28,0.3892559313271187,0.3908256095768404,0.4032509522385652,1,True
2023-12-29,0.3908256095768404,0.39640523828109014,1.4276517627109797,1,True
2023-12-30,0.39640523828109014,0.39755343379190433,0.2896519520763752,3,True
2023-12-31,0.39755343379190433,0.39542647503021455,-0.5350120464066022,2,True
