day,start_equity,end_equity,return_pct,entries,active
2024-01-02,1.0,0.9984427074127776,-0.15572925872223697,1,True
2024-01-03,0.9984427074127776,0.994347455881773,-0.41016389829883204,10,True
2024-01-04,0.994347455881773,1.0083621569498873,1.4094370117019306,6,True
2024-01-05,1.0083621569498873,0.9971763255682595,-1.1093069394296662,4,True
2024-01-06,0.9971763255682595,0.990405799136176,-0.6789698329656257,7,True
2024-01-07,0.990405799136176,0.9816309711188014,-0.8859831015759378,3,True
2024-01-08,0.9816309711188014,0.982038046601789,0.041469299050711506,7,True
2024-01-09,0.982038046601789,0.9801115964997807,-0.19616858111296542,0,True
2024-01-10,0.9801115964997807,0.9795879642288128,-0.05342578057825342,4,True
2024-01-11,0.9795879642288128,0.9804609709794514,0.0891197914345554,3,True
2024-01-12,0.9804609709794514,0.9723095848619475,-0.8313830288788404,7,True
2024-01-13,0.9723095848619475,0.9643371997428745,-0.8199430760733484,9,True
2024-01-14,0.9643371997428745,0.9707548312021392,0.6654966189187705,0,True
2024-01-15,0.9707548312021392,0.965890041991272,-0.5011346896767854,2,True
2024-01-16,0.965890041991272,0.9653316793917587,-0.057808091525846095,1,True
2024-01-17,0.9653316793917587,0.9680984563049231,0.28661412157402477,0,True
2024-01-18,0.9680984563049231,0.9657253619012677,-0.24512944816719173,1,True
2024-01-19,0.9657253619012677,0.96215085314932,-0.3701371935505904,1,True
2024-01-20,0.96215085314932,0.9853213576581902,2.4081987178027564,7,True
2024-01-21,0.9853213576581902,0.9843897476485277,-0.09454884971504818,1,True
2024-01-22,0.9843897476485277,0.9673811414871367,-1.727832517762451,4,True
2024-01-23,0.9673811414871367,0.9447876647616349,-2.335529995009966,9,True
2024-01-24,0.9447876647616349,0.9469217581856443,0.22588074586555873,1,True
2024-01-25,0.9469217581856443,0.9416496335484339,-0.5567645469792604,2,True
2024-01-26,0.9416496335484339,0.9416496335484339,0.0,0,False
2024-01-27,0.9416496335484339,0.9416496335484339,0.0,0,False
2024-01-28,0.9416496335484339,0.9401222742644922,-0.1622003800061056,1,True
2024-01-29,0.9401222742644922,0.9401222742644922,0.0,0,False
2024-01-30,0.9401222742644922,0.9401222742644922,0.0,0,False
2024-01-31,0.9401222742644922,0.9358765585026967,-0.4516131441643756,1,True
2024-02-01,0.9358765585026967,0.9358765585026967,0.0,0,False
2024-02-02,0.9358765585026967,0.9352951903039445,-0.06212017957606397,2,True
2024-02-03,0.9352951903039445,0.9443154370526619,0.964427791592315,1,True
2024-02-04,0.9443154370526619,0.9418636514704165,-0.25963629165035584,1,True
2024-02-05,0.9418636514704165,0.9418636514704165,0.0,0,False
2024-02-06,0.9418636514704165,0.9354831512910766,-0.6774335297236256,2,True
2024-02-07,0.9354831512910766,0.9323245717166443,-0.3376415246039599,4,True
2024-02-08,0.9323245717166443,0.9492718138751164,1.8177405886951936,1,True
2024-02-09,0.9492718138751164,0.9620044159571851,1.3413020270865994,0,True
2024-02-10,0.9620044159571851,0.9562204891138826,-0.6012370366873632,2,True
2024-02-11,0.9562204891138826,0.9550343483443428,-0.12404469293886278,0,True
2024-02-12,0.9550343483443428,0.9557986665257872,0.08003043898572315,1,True
2024-02-13,0.9557986665257872,0.9557986665257872,0.0,0,False
2024-02-14,0.9557986665257872,0.9571979904915762,0.14640363235443044,2,True
2024-02-15,0.9571979904915762,0.9713728864091838,1.4808739736622334,1,True
2024-02-16,0.9713728864091838,0.968479173612512,-0.2978992760822141,3,True
2024-02-17,0.968479173612512,0.9652790171761536,-0.33043110513378826,5,True
2024-02-18,0.9652790171761536,0.9722739570010064,0.724654706088601,1,True
2024-02-19,0.9722739570010064,0.9723741801740725,0.010308120704505264,2,True
2024-02-20,0.9723741801740725,0.9694892318790277,-0.2966911662060312,10,True
2024-02-21,0.9694892318790277,0.9592719158088047,-1.0538864934497738,7,True
2024-02-22,0.9592719158088047,0.9833393158389205,2.5089236569407536,4,True
2024-02-23,0.9833393158389205,0.9777707815535579,-0.5662881769973649,3,True
2024-02-24,0.9777707815535579,0.9670326375934439,-1.0982271267149568,8,True
2024-02-25,0.9670326375934439,0.9498392520862783,-1.7779529706415165,4,True
2024-02-26,0.9498392520862783,0.9418132558615998,-0.8449846863087362,5,True
2024-02-27,0.9418132558615998,0.9429841031740144,0.12431841504965124,3,True
2024-02-28,0.9429841031740144,0.9751401396890144,3.410029544163584,5,True
2024-02-29,0.9751401396890144,0.9844183536536592,0.951474930321683,8,True
2024-03-01,0.9844183536536592,0.9829288863402486,-0.15130430145704477,6,True
2024-03-02,0.9829288863402486,0.9798745220279089,-0.31074112835486334,5,True
2024-03-03,0.9798745220279089,0.9849540100570001,0.5183814779242235,10,True
2024-03-04,0.9849540100570001,0.9900717540592842,0.5195921789270086,1,True
2024-03-05,0.9900717540592842,1.016547618796755,2.6741359531690545,12,True
2024-03-06,1.016547618796755,0.9974219481116474,-1.881433818884537,16,True
2024-03-07,0.9974219481116474,0.9974589129675091,0.003706039949458173,3,True
2024-03-08,0.9974589129675091,0.9932572812880951,-0.42123355907601745,5,True
2024-03-09,0.9932572812880951,0.9802366298788191,-1.3109041992010684,5,True
2024-03-10,0.9802366298788191,0.9898331313535811,0.9789984563164378,9,True
2024-03-11,0.9898331313535811,0.9991023744597993,0.9364450241772238,3,True
2024-03-12,0.9991023744597993,0.9973689481434207,-0.17349836820435005,3,True
2024-03-13,0.9973689481434207,1.0103042105153943,1.2969385497766162,5,True
2024-03-14,1.0103042105153943,1.0107996460962771,0.04903825755908642,5,True
2024-03-15,1.0107996460962771,0.9916722213095059,-1.8923062409688773,18,True
2024-03-16,0.9916722213095059,0.9885083024156277,-0.3190488576659156,3,True
2024-03-17,0.9885083024156277,0.9790769547716083,-0.9540989813613066,7,True
2024-03-18,0.9790769547716083,0.9813626330219032,0.2334523593018334,4,True
2024-03-19,0.9813626330219032,0.9378613813173455,-4.432739768234761,16,True
2024-03-20,0.9378613813173455,0.9239341791393662,-1.4849958059278245,4,True
2024-03-21,0.9239341791393662,0.9190308575285341,-0.530700316271393,4,True
2024-03-22,0.9190308575285341,0.916615433346009,-0.26282296864553745,9,True
2024-03-23,0.916615433346009,0.9201505953991576,0.38567559791611306,7,True
2024-03-24,0.9201505953991576,0.9139907523331161,-0.6694385785154355,4,True
2024-03-25,0.9139907523331161,0.9220923596276307,0.8863992632128781,4,True
2024-03-26,0.9220923596276307,0.9419781548763667,2.156594731656436,4,True
2024-03-27,0.9419781548763667,0.9375003914261386,-0.475357462065118,6,True
2024-03-28,0.9375003914261386,0.927760701931798,-1.0388997789669618,2,True
2024-03-29,0.927760701931798,0.9225815280722441,-0.5582445827646887,6,True
2024-03-30,0.9225815280722441,0.9135045241450825,-0.9838701134769368,2,True
2024-03-31,0.9135045241450825,0.9135045241450825,0.0,0,False
2024-04-01,0.9135045241450825,0.913968485217445,0.05078913788594264,5,True
2024-04-02,0.913968485217445,0.9088546111919873,-0.5595241092192671,6,True
2024-04-03,0.9088546111919873,0.9012115370810373,-0.8409567401463591,3,True
2024-04-04,0.9012115370810373,0.9005260182501604,-0.0760663620771207,1,True
2024-04-05,0.9005260182501604,0.8919977836760914,-0.9470281148167725,5,True
2024-04-06,0.8919977836760914,0.8872964163030628,-0.5270604321070627,1,True
2024-04-07,0.8872964163030628,0.8988692350229552,1.3042787626834862,3,True
2024-04-08,0.8988692350229552,0.8925337193506545,-0.7048317403074655,1,True
2024-04-09,0.8925337193506545,0.8831313667916357,-1.0534450805801843,3,True
2024-04-10,0.8831313667916357,0.8824467804465154,-0.07751806479340262,4,True
2024-04-11,0.8824467804465154,0.8842876499012063,0.20860968564693216,1,True
2024-04-12,0.8842876499012063,0.8728468705318485,-1.2937848188466772,9,True
2024-04-13,0.8728468705318485,0.8507421880157341,-2.532481155903721,13,True
2024-04-14,0.8507421880157341,0.8267619674205506,-2.818741204208386,16,True
2024-04-15,0.8267619674205506,0.825011410296132,-0.2117365328112797,4,True
2024-04-16,0.825011410296132,0.8206505215087904,-0.5285852695996462,1,True
2024-04-17,0.8206505215087904,0.8235194703137573,0.34959446558229246,1,True
2024-04-18,0.8235194703137573,0.821616510095578,-0.23107653027976127,1,True
2024-04-19,0.821616510095578,0.8304828669780355,1.079135676256815,5,True
2024-04-20,0.8304828669780355,0.8313111194284198,0.099731431353689,0,True
2024-04-21,0.8313111194284198,0.8313111194284198,0.0,0,False
2024-04-22,0.8313111194284198,0.8313111194284198,0.0,0,False
2024-04-23,0.8313111194284198,0.8427766825374776,1.3792144530607287,3,True
2024-04-24,0.8427766825374776,0.8401505175686057,-0.31160864120788334,3,True
2024-04-25,0.8401505175686057,0.8411545418501813,0.11950528632431734,2,True
2024-04-26,0.8411545418501813,0.8403602384136135,-0.0944301429818939,2,True
2024-04-27,0.8403602384136135,0.8382668258376101,-0.2491089511749367,6,True
2024-04-28,0.8382668258376101,0.838553081054166,0.03414846057756549,3,True
2024-04-29,0.838553081054166,0.8426291373136746,0.48608208014506715,2,True
2024-04-30,0.8426291373136746,0.8336664550250086,-1.0636568202755603,2,True
2024-05-01,0.8336664550250086,0.8235983602210888,-1.2076886077439397,6,True
2024-05-02,0.8235983602210888,0.8202593066608823,-0.40542256049540537,4,True
2024-05-03,0.8202593066608823,0.8178478932862927,-0.29398183659823385,1,True
2024-05-04,0.8178478932862927,0.8184605666132005,0.07491286973253519,0,True
2024-05-05,0.8184605666132005,0.8168293071233603,-0.19930825703556865,1,True
2024-05-06,0.8168293071233603,0.8168293071233603,0.0,0,False
2024-05-07,0.8168293071233603,0.8214104263661709,0.5608416841633712,3,True
2024-05-08,0.8214104263661709,0.8228513589706696,0.1754217572904837,3,True
2024-05-09,0.8228513589706696,0.8161406283351764,-0.8155459138923793,1,True
2024-05-10,0.8161406283351764,0.8143674904539938,-0.21725886686949636,2,True
2024-05-11,0.8143674904539938,0.8084442693498439,-0.7273400735640645,4,True
2024-05-12,0.8084442693498439,0.8029984588775058,-0.6736160646815814,1,True
2024-05-13,0.8029984588775058,0.8020381658686803,-0.11958839997873172,5,True
2024-05-14,0.8020381658686803,0.8014502127845444,-0.0733073697931852,4,True
2024-05-15,0.8014502127845444,0.8056880145021242,0.5287666844401961,3,True
2024-05-16,0.8056880145021242,0.8133609623722864,0.9523472773643737,2,True
2024-05-17,0.8133609623722864,0.8133609623722864,0.0,0,False
2024-05-18,0.8133609623722864,0.8101436451836455,-0.39555834832017966,2,True
2024-05-19,0.8101436451836455,0.8100684073929101,-0.009286969191535377,0,True
2024-05-20,0.8100684073929101,0.815752207462987,0.7016444559749591,2,True
2024-05-21,0.815752207462987,0.80972106227123,-0.7393354423782861,2,True
2024-05-22,0.80972106227123,0.8128463306062561,0.3859685119539602,1,True
2024-05-23,0.8128463306062561,0.8017771108718963,-1.361785040735053,5,True
2024-05-24,0.8017771108718963,0.8015818115575368,-0.024358305034066774,3,True
2024-05-25,0.8015818115575368,0.8003014812330073,-0.15972547107098167,0,True
2024-05-26,0.8003014812330073,0.8042100015461997,0.48838099201948815,3,True
2024-05-27,0.8042100015461997,0.808664246884669,0.5538659466937101,3,True
2024-05-28,0.808664246884669,0.8170144915963168,1.0325972421578733,2,True
2024-05-29,0.8170144915963168,0.8135303191510729,-0.42645173140519743,1,True
2024-05-30,0.8135303191510729,0.7988457670395008,-1.8050405456179641,5,True
2024-05-31,0.7988457670395008,0.7963382305861202,-0.3138949415321446,1,True
2024-06-01,0.7963382305861202,0.7922344421252049,-0.5153323428783274,2,True
2024-06-02,0.7922344421252049,0.8015244119122082,1.1726288700706577,0,True
2024-06-03,0.8015244119122082,0.7905169048892203,-1.3733214933188576,5,True
2024-06-04,0.7905169048892203,0.8036113729267883,1.6564437719903014,7,True
2024-06-05,0.8036113729267883,0.8033665909430028,-0.030460243848218216,0,True
2024-06-06,0.8033665909430028,0.8026287443377144,-0.09184432282929311,2,True
2024-06-07,0.8026287443377144,0.7993729578700229,-0.40564040232298204,0,True
2024-06-08,0.7993729578700229,0.8208297269308689,2.6842000157246693,7,True
2024-06-09,0.8208297269308689,0.8269602427900244,0.7468681576723535,1,True
2024-06-10,0.8269602427900244,0.8261990630400857,-0.0920455072145443,0,True
2024-06-11,0.8261990630400857,0.8238273775212603,-0.28705981704924,2,True
2024-06-12,0.8238273775212603,0.8192091526835552,-0.5605816174257927,3,True
2024-06-13,0.8192091526835552,0.8165143554624177,-0.32895106363374227,3,True
2024-06-14,0.8165143554624177,0.804959475377928,-1.4151472055804581,6,True
2024-06-15,0.804959475377928,0.8114736236353536,0.8092517023129853,5,True
2024-06-16,0.8114736236353536,0.8123672607320279,0.11012521795481511,0,True
2024-06-17,0.8123672607320279,0.8029534964630927,-1.158806456632988,4,True
2024-06-18,0.8029534964630927,0.8107840003186878,0.9752126231578284,5,True
2024-06-19,0.8107840003186878,0.8056525639411393,-0.6328980808120943,2,True
2024-06-20,0.8056525639411393,0.8054535262596916,-0.024705150874715365,1,True
2024-06-21,0.8054535262596916,0.8020133149695354,-0.42711480898612875,1,True
2024-06-22,0.8020133149695354,0.8047493746963207,0.3411489155749514,2,True
2024-06-23,0.8047493746963207,0.8042206292353361,-0.06570312169351666,2,True
2024-06-24,0.8042206292353361,0.8044467248190158,0.028113626467729524,1,True
2024-06-25,0.8044467248190158,0.8113536182100205,0.8585892860162536,0,True
2024-06-26,0.8113536182100205,0.8113536182100205,0.0,0,False
2024-06-27,0.8113536182100205,0.8073143482867776,-0.497843336442394,1,True
2024-06-28,0.8073143482867776,0.8084003553558756,0.13452096713042483,2,True
2024-06-29,0.8084003553558756,0.7934280635412863,-1.8520887225486504,5,True
2024-06-30,0.7934280635412863,0.7907089221270136,-0.34270799574902533,0,True
2024-07-01,0.7907089221270136,0.7840986949235521,-0.8359874308335735,2,True
2024-07-02,0.7840986949235521,0.7840986949235521,0.0,0,False
2024-07-03,0.7840986949235521,0.7819673709959121,-0.27181832356548696,1,True
2024-07-04,0.7819673709959121,0.7759721165907838,-0.7666885636791632,5,True
2024-07-05,0.7759721165907838,0.7355089603491407,-5.214511626966322,19,True
2024-07-06,0.7355089603491407,0.7400554662290806,0.6181441865482862,3,True
2024-07-07,0.7400554662290806,0.7413056035327485,0.1689248118168729,2,True
2024-07-08,0.7413056035327485,0.7419494944000042,0.0868590314422546,2,True
2024-07-09,0.7419494944000042,0.7523001702999074,1.395064755488984,2,True
2024-07-10,0.7523001702999074,0.7529114699443942,0.08125741141904452,1,True
2024-07-11,0.7529114699443942,0.7441803973859641,-1.1596413266323213,2,True
2024-07-12,0.7441803973859641,0.7441803973859641,0.0,0,False
2024-07-13,0.7441803973859641,0.743123460498405,-0.1420269723942824,2,True
2024-07-14,0.743123460498405,0.7580077147514902,2.0029315509837886,1,True
2024-07-15,0.7580077147514902,0.7601832418882386,0.287005936009721,0,True
2024-07-16,0.7601832418882386,0.7579914068165624,-0.2883298329797168,2,True
2024-07-17,0.7579914068165624,0.7605269179637847,0.33450394350391655,1,True
2024-07-18,0.7605269179637847,0.7605269179637847,0.0,0,False
2024-07-19,0.7605269179637847,0.7550485515644012,-0.720338264167053,2,True
2024-07-20,0.7550485515644012,0.7550485515644012,0.0,0,False
2024-07-21,0.7550485515644012,0.754700423653327,-0.046106692126335336,1,True
2024-07-22,0.754700423653327,0.7550376670376628,0.04468572876947796,1,True
2024-07-23,0.7550376670376628,0.7541511372211349,-0.11741530988860216,3,True
2024-07-24,0.7541511372211349,0.7532498465171837,-0.11951062054645911,1,True
2024-07-25,0.7532498465171837,0.7512855695613384,-0.26077362842190643,3,True
2024-07-26,0.7512855695613384,0.7461320171472645,-0.6859645150755322,0,True
2024-07-27,0.7461320171472645,0.7489048394048708,0.3716262261748149,2,True
2024-07-28,0.7489048394048708,0.7427682172473223,-0.8194128058279126,2,True
2024-07-29,0.7427682172473223,0.7427682172473223,0.0,0,False
2024-07-30,0.7427682172473223,0.7394953214340568,-0.4406348760310097,2,True
2024-07-31,0.7394953214340568,0.7328634716921769,-0.8968075320637814,7,True
2024-08-01,0.7328634716921769,0.7293790981957006,-0.47544646868958873,1,True
2024-08-02,0.7293790981957006,0.7202472240141239,-1.2520065634135435,4,True
2024-08-03,0.7202472240141239,0.7149535003434746,-0.7349870286407989,7,True
2024-08-04,0.7149535003434746,0.7012163743441961,-1.9214013208801561,5,True
2024-08-05,0.7012163743441961,0.6775654903161732,-3.3728368151901944,16,True
2024-08-06,0.6775654903161732,0.6776156654278439,0.007405204720112302,0,True
2024-08-07,0.6776156654278439,0.6772928515945537,-0.047639665043219814,1,True
2024-08-08,0.6772928515945537,0.6743232182281186,-0.4384563279301812,0,True
2024-08-09,0.6743232182281186,0.6743232182281186,0.0,0,False
2024-08-10,0.6743232182281186,0.6743232182281186,0.0,0,False
2024-08-11,0.6743232182281186,0.6738019161710567,-0.07730744589096172,1,True
2024-08-12,0.6738019161710567,0.6746632312528122,0.12782912323106022,1,True
2024-08-13,0.6746632312528122,0.6723396382790453,-0.3444078269171702,0,True
2024-08-14,0.6723396382790453,0.6723396382790453,0.0,0,False
2024-08-15,0.6723396382790453,0.6723396382790453,0.0,0,False
2024-08-16,0.6723396382790453,0.6723396382790453,0.0,0,False
2024-08-17,0.6723396382790453,0.6910078162133285,2.776599336321639,1,True
2024-08-18,0.6910078162133285,0.7067376044607626,2.276354605311437,1,True
2024-08-19,0.7067376044607626,0.6975931820872233,-1.2938921483478194,3,True
2024-08-20,0.6975931820872233,0.6927618688996852,-0.6925688655790352,2,True
2024-08-21,0.6927618688996852,0.6927618688996852,0.0,0,False
2024-08-22,0.6927618688996852,0.6931066856434562,0.049774209472408515,1,True
2024-08-23,0.6931066856434562,0.6935688208988099,0.06667591944011786,0,True
2024-08-24,0.6935688208988099,0.6917090866894336,-0.26813982309155104,2,True
2024-08-25,0.6917090866894336,0.6900010819921513,-0.24692529419513276,2,True
2024-08-26,0.6900010819921513,0.6916650302571481,0.24115154431247898,2,True
2024-08-27,0.6916650302571481,0.6871790657132766,-0.6485747215243309,1,True
2024-08-28,0.6871790657132766,0.6869126978696576,-0.038762508479872615,4,True
2024-08-29,0.6869126978696576,0.6869214724122152,0.0012773883180328127,3,True
2024-08-30,0.6869214724122152,0.6888762850303606,0.2845758498829287,0,True
2024-08-31,0.6888762850303606,0.6888762850303606,0.0,0,False
2024-09-01,0.6888762850303606,0.6854544725674122,-0.4967238003842134,1,True
2024-09-02,0.6854544725674122,0.68637189385763,0.13384131651830167,1,True
2024-09-03,0.68637189385763,0.6865097829948672,0.020089566381020774,0,True
2024-09-04,0.6865097829948672,0.6865097829948672,0.0,0,False
2024-09-05,0.6865097829948672,0.6865097829948672,0.0,0,False
2024-09-06,0.6865097829948672,0.686275705447895,-0.03409675328311934,1,True
2024-09-07,0.686275705447895,0.6853704238574062,-0.1319122305076914,0,True
2024-09-08,0.6853704238574062,0.6853704238574062,0.0,0,False
2024-09-09,0.6853704238574062,0.6853704238574062,0.0,0,False
2024-09-10,0.6853704238574062,0.6853704238574062,0.0,0,False
2024-09-11,0.6853704238574062,0.6785513671370041,-0.9949447018771207,2,True
2024-09-12,0.6785513671370041,0.6785513671370041,0.0,0,False
2024-09-13,0.6785513671370041,0.6767653509806756,-0.2632101625355543,1,True
2024-09-14,0.6767653509806756,0.6767653509806756,0.0,0,False
2024-09-15,0.6767653509806756,0.6782878117288074,0.2249613911122328,2,True
2024-09-16,0.6782878117288074,0.6761119865524563,-0.3207819953015778,3,True
2024-09-17,0.6761119865524563,0.68102781422846,0.727072995861211,1,True
2024-09-18,0.68102781422846,0.6811050895786057,0.011346871380468748,0,True
2024-09-19,0.6811050895786057,0.6811166178048055,0.001692576722178707,1,True
2024-09-20,0.6811166178048055,0.682039557048822,0.13550385057277126,2,True
2024-09-21,0.682039557048822,0.6748292409357254,-1.0571697841538108,2,True
2024-09-22,0.6748292409357254,0.6799203215600964,0.7544250182922818,2,True
2024-09-23,0.6799203215600964,0.6772298172727499,-0.39570876204627625,0,True
2024-09-24,0.6772298172727499,0.6772298172727499,0.0,0,False
2024-09-25,0.6772298172727499,0.6772298172727499,0.0,0,False
2024-09-26,0.6772298172727499,0.6772298172727499,0.0,0,False
2024-09-27,0.6772298172727499,0.6772298172727499,0.0,0,False
2024-09-28,0.6772298172727499,0.6772298172727499,0.0,0,False
2024-09-29,0.6772298172727499,0.6772298172727499,0.0,0,False
2024-09-30,0.6772298172727499,0.6742244685745996,-0.44377087681298777,2,True
2024-10-01,0.6742244685745996,0.6730882789083386,-0.16851801131796407,0,True
2024-10-02,0.6730882789083386,0.6552069223345872,-2.6566138698407515,13,True
2024-10-03,0.6552069223345872,0.6541516543995878,-0.1610587280182263,3,True
2024-10-04,0.6541516543995878,0.6479083515093482,-0.9544121532444882,2,True
2024-10-05,0.6479083515093482,0.6479083515093482,0.0,0,False
2024-10-06,0.6479083515093482,0.6479083515093482,0.0,0,False
2024-10-07,0.6479083515093482,0.6479083515093482,0.0,0,False
2024-10-08,0.6479083515093482,0.6431898650527683,-0.7282644907397606,2,True
2024-10-09,0.6431898650527683,0.6431898650527683,0.0,0,False
2024-10-10,0.6431898650527683,0.6431898650527683,0.0,0,False
2024-10-11,0.6431898650527683,0.6421493376505002,-0.16177608802694365,1,True
2024-10-12,0.6421493376505002,0.6439672348397191,0.28309570416598095,1,True
2024-10-13,0.6439672348397191,0.6439672348397191,0.0,0,False
2024-10-14,0.6439672348397191,0.6439672348397191,0.0,0,False
2024-10-15,0.6439672348397191,0.644039202602903,0.011175687098718967,1,True
2024-10-16,0.644039202602903,0.6398765247529442,-0.6463392031316184,5,True
2024-10-17,0.6398765247529442,0.6377122914270409,-0.3382267112766679,2,True
2024-10-18,0.6377122914270409,0.6379510770766971,0.037444103378003746,2,True
2024-10-19,0.6379510770766971,0.6334265384132279,-0.7092297240412382,2,True
2024-10-20,0.6334265384132279,0.6324207807284887,-0.15878047788441263,2,True
2024-10-21,0.6324207807284887,0.6322580513738606,-0.025731183981758665,1,True
2024-10-22,0.6322580513738606,0.6309157661673858,-0.21230021564108137,0,True
2024-10-23,0.6309157661673858,0.6277694445387485,-0.49869123540059457,1,True
2024-10-24,0.6277694445387485,0.6231946176207278,-0.7287431648384857,3,True
2024-10-25,0.6231946176207278,0.6213826016132451,-0.2907624610752779,2,True
2024-10-26,0.6213826016132451,0.6156675372446829,-0.919733567326253,10,True
2024-10-27,0.6156675372446829,0.6122131798972485,-0.5610751157830718,2,True
2024-10-28,0.6122131798972485,0.6099138092932083,-0.3755833228592409,1,True
2024-10-29,0.6099138092932083,0.6201054739870859,1.671000810046941,2,True
2024-10-30,0.6201054739870859,0.6221591401996948,0.3311801457588137,0,True
2024-10-31,0.6221591401996948,0.6221591401996948,0.0,0,False
2024-11-01,0.6221591401996948,0.6194070227700923,-0.4423494330918487,3,True
2024-11-02,0.6194070227700923,0.6188918318279663,-0.08317486292325205,1,True
2024-11-03,0.6188918318279663,0.6176015739477793,-0.20847873793649052,2,True
2024-11-04,0.6176015739477793,0.6258142046905392,1.329761951586983,4,True
2024-11-05,0.6258142046905392,0.6211718772564858,-0.7418060183451702,1,True
2024-11-06,0.6211718772564858,0.6210270301978826,-0.023318354211865344,2,True
2024-11-07,0.6210270301978826,0.6196074326398201,-0.2285886908352741,2,True
2024-11-08,0.6196074326398201,0.6183705243055725,-0.19962774316276688,2,True
2024-11-09,0.6183705243055725,0.6175223929362268,-0.13715585332889635,2,True
2024-11-10,0.6175223929362268,0.6246359892094412,1.1519576220370364,3,True
2024-11-11,0.6246359892094412,0.6182489107534973,-1.0225280909650358,7,True
2024-11-12,0.6182489107534973,0.604185943226746,-2.274644933803749,6,True
2024-11-13,0.604185943226746,0.6036174326230184,-0.09409530461622628,2,True
2024-11-14,0.6036174326230184,0.6078267022831747,0.6973406387328795,4,True
2024-11-15,0.6078267022831747,0.6095878991598447,0.2897531270104503,8,True
2024-11-16,0.6095878991598447,0.6081481279627606,-0.23618762758715883,1,True
2024-11-17,0.6081481279627606,0.6026782305871381,-0.8994350428975562,7,True
2024-11-18,0.6026782305871381,0.6021586858635682,-0.08620598807156377,2,True
2024-11-19,0.6021586858635682,0.5960109774039232,-1.020944911029309,4,True
2024-11-20,0.5960109774039232,0.594242816379391,-0.29666584871201884,1,True
2024-11-21,0.594242816379391,0.6010905884292769,1.1523525167048687,4,True
2024-11-22,0.6010905884292769,0.601813567581601,0.12027790257260751,5,True
2024-11-23,0.601813567581601,0.6054115931462613,0.5978638167163597,0,True
2024-11-24,0.6054115931462613,0.6060984625704018,0.1134549506346394,13,True
2024-11-25,0.6060984625704018,0.6098252028085405,0.6148737322866582,3,True
2024-11-26,0.6098252028085405,0.6050838213497818,-0.777498443311675,5,True
2024-11-27,0.6050838213497818,0.6085395266530399,0.5711118329935427,3,True
2024-11-28,0.6085395266530399,0.609956392644048,0.2328305605390657,3,True
2024-11-29,0.609956392644048,0.6140590905623315,0.6726215132362379,5,True
2024-11-30,0.6140590905623315,0.6132161145987671,-0.13727929062860023,1,True
2024-12-01,0.6132161145987671,0.6131738474590303,-0.006892698794214169,3,True
2024-12-02,0.6131738474590303,0.6177691515764012,0.7494292420353155,10,True
2024-12-03,0.6177691515764012,0.6083935060614059,-1.5176616525883424,6,True
2024-12-04,0.6083935060614059,0.6217091775918484,2.188661022476235,3,True
2024-12-05,0.6217091775918484,0.6264098361495137,0.7560864029501735,9,True
2024-12-06,0.6264098361495137,0.6245587288121249,-0.29551057958594473,2,True
2024-12-07,0.6245587288121249,0.6250095543011815,0.07218304192371239,2,True
2024-12-08,0.6250095543011815,0.6237535208169851,-0.20096228538470928,0,True
2024-12-09,0.6237535208169851,0.6231719559725752,-0.0932363225217725,2,True
2024-12-10,0.6231719559725752,0.5933979851350683,-4.777809808697054,16,True
2024-12-11,0.5933979851350683,0.6040071630707713,1.7878688842005719,9,True
2024-12-12,0.6040071630707713,0.6033509346997123,-0.10864579282846565,0,True
2024-12-13,0.6033509346997123,0.6033509346997123,0.0,0,False
2024-12-14,0.6033509346997123,0.6033509346997123,0.0,0,False
2024-12-15,0.6033509346997123,0.5971799440032696,-1.0227862992396086,3,True
2024-12-16,0.5971799440032696,0.5954388964411466,-0.2915448818410882,0,True
2024-12-17,0.5954388964411466,0.5954388964411466,0.0,0,False
2024-12-18,0.5954388964411466,0.592477745394783,-0.49730561171967835,2,True
2024-12-19,0.592477745394783,0.5876358064865608,-0.8172355748140347,10,True
2024-12-20,0.5876358064865608,0.5738093965185419,-2.3528875904765156,17,True
2024-12-21,0.5738093965185419,0.5898364287002986,2.7930933649739975,2,True
2024-12-22,0.5898364287002986,0.587822889569152,-0.3413724607656876,1,True
2024-12-23,0.587822889569152,0.5909988471678483,0.5402915835795774,3,True
2024-12-24,0.5909988471678483,0.5895457992844085,-0.24586306562238702,0,True
2024-12-25,0.5895457992844085,0.5930473717664911,0.5939440983775635,3,True
2024-12-26,0.5930473717664911,0.5887491635651011,-0.7247664193480996,1,True
2024-12-27,0.5887491635651011,0.5887491635651011,0.0,0,False
2024-12-28,0.5887491635651011,0.5858156964626008,-0.498254143536625,1,True
2024-12-29,0.5858156964626008,0.6089588122871878,3.9505796728108944,4,True
2024-12-30,0.6089588122871878,0.6090142987782666,0.009111698518715627,2,True
2024-12-31,0.6090142987782666,0.6081847796677303,-0.13620683655546362,2,True
