day,start_equity,end_equity,return_pct,entries,active
2024-01-02,1.0032761764537503,0.9992532273910695,-0.40098122103333633,1,True
2024-01-03,0.9992532273910695,0.9769450310769783,-2.2324867913947277,5,True
2024-01-04,0.9769450310769783,0.9950150463175308,1.8496450328052028,15,True
2024-01-05,0.9950150463175308,0.9730358992747166,-2.208926098570796,6,True
2024-01-06,0.9730358992747166,0.9755962773157094,0.26313294739703785,8,True
2024-01-07,0.9755962773157094,0.9785765269764316,0.3054798106571388,8,True
2024-01-08,0.9785765269764316,0.9587259336321996,-2.0285172183278966,7,True
2024-01-09,0.9587259336321996,0.9504401410853284,-0.8642503823256265,6,True
2024-01-10,0.9504401410853284,0.9382386406627118,-1.2837736849669934,7,True
2024-01-11,0.9382386406627118,0.9356527346754829,-0.2756128212117015,6,True
2024-01-12,0.9356527346754829,0.9390283750871895,0.36077919580679296,8,True
2024-01-13,0.9390283750871895,0.9528050747765618,1.4671228319477647,12,True
2024-01-14,0.9528050747765618,0.9504307994057409,-0.24918794343928852,1,True
2024-01-15,0.9504307994057409,0.9574773104726567,0.7414018013012225,5,True
2024-01-16,0.9574773104726567,0.9474637542738135,-1.0458269965582856,2,True
2024-01-17,0.9474637542738135,0.9474637542738135,0.0,0,False
2024-01-18,0.9474637542738135,0.9455285234162106,-0.20425381434101553,1,True
2024-01-19,0.9455285234162106,0.9419683264194215,-0.3765298358135216,1,True
2024-01-20,0.9419683264194215,0.9676219927193312,2.7234107114220585,12,True
2024-01-21,0.9676219927193312,0.9570424443149409,-1.0933555132059736,3,True
2024-01-22,0.9570424443149409,0.9406376375943488,-1.714114856456006,4,True
2024-01-23,0.9406376375943488,0.9211875992664501,-2.0677503802252195,10,True
2024-01-24,0.9211875992664501,0.9191775409245807,-0.2182029310283884,1,True
2024-01-25,0.9191775409245807,0.9154779286863016,-0.40249158335153856,3,True
2024-01-26,0.9154779286863016,0.9179770023312817,0.27298021794650573,1,True
2024-01-27,0.9179770023312817,0.9179770023312817,0.0,0,False
2024-01-28,0.9179770023312817,0.916904299983456,-0.11685503505005634,1,True
2024-01-29,0.916904299983456,0.916904299983456,0.0,0,False
2024-01-30,0.916904299983456,0.916904299983456,0.0,0,False
2024-01-31,0.916904299983456,0.9126901511851647,-0.45960617682426763,1,True
2024-02-01,0.9126901511851647,0.9126901511851647,0.0,0,False
2024-02-02,0.9126901511851647,0.9116797395314066,-0.11070697459001355,3,True
2024-02-03,0.9116797395314066,0.9175989841374617,0.6492679774914745,1,True
2024-02-04,0.9175989841374617,0.9175292317038711,-0.007601624979580723,1,True
2024-02-05,0.9175292317038711,0.9175292317038711,0.0,0,False
2024-02-06,0.9175292317038711,0.9093918242027118,-0.8868826430791676,2,True
2024-02-07,0.9093918242027118,0.9075092486560838,-0.20701478686356856,5,True
2024-02-08,0.9075092486560838,0.9149986042706416,0.8252649353875707,1,True
2024-02-09,0.9149986042706416,0.9149986042706416,0.0,0,False
2024-02-10,0.9149986042706416,0.9112149209263877,-0.41351793615794774,3,True
2024-02-11,0.9112149209263877,0.9112149209263877,0.0,0,False
2024-02-12,0.9112149209263877,0.9125243799718569,0.14370474137297418,3,True
2024-02-13,0.9125243799718569,0.9125243799718569,0.0,0,False
2024-02-14,0.9125243799718569,0.9134804470612592,0.1047716762846207,2,True
2024-02-15,0.9134804470612592,0.9255931031704503,1.325989641941261,7,True
2024-02-16,0.9255931031704503,0.9137175012440217,-1.2830261899911322,6,True
2024-02-17,0.9137175012440217,0.9063820971075093,-0.8028087594388111,6,True
2024-02-18,0.9063820971075093,0.906175374304868,-0.022807467546070992,4,True
2024-02-19,0.906175374304868,0.9025556321504986,-0.39945271710193353,6,True
2024-02-20,0.9025556321504986,0.8993804692388867,-0.35179691960334214,13,True
2024-02-21,0.8993804692388867,0.8959393074251242,-0.38261469216411825,10,True
2024-02-22,0.8959393074251242,0.9064705948508186,1.175446521702539,5,True
2024-02-23,0.9064705948508186,0.8988103841461618,-0.8450589294534683,7,True
2024-02-24,0.8988103841461618,0.8914617563206804,-0.8175948959982637,10,True
2024-02-25,0.8914617563206804,0.8835469460519233,-0.8878463055357222,9,True
2024-02-26,0.8835469460519233,0.8836973598791551,0.017023863633269798,10,True
2024-02-27,0.8836973598791551,0.881357293557375,-0.264804041295319,8,True
2024-02-28,0.881357293557375,0.9040714268192331,2.577176523970004,10,True
2024-02-29,0.9040714268192331,0.8951798427149039,-0.9835046037913409,19,True
2024-03-01,0.8951798427149039,0.8860527870980538,-1.019577874896016,11,True
2024-03-02,0.8860527870980538,0.8791479936469351,-0.7792756313913185,16,True
2024-03-03,0.8791479936469351,0.89452855349631,1.7494847239055034,15,True
2024-03-04,0.89452855349631,0.9036190487968174,1.0162331056931428,4,True
2024-03-05,0.9036190487968174,0.9122296207174675,0.9528984511908201,22,True
2024-03-06,0.9122296207174675,0.8862370639579298,-2.84934364870707,11,True
2024-03-07,0.8862370639579298,0.8829796224608166,-0.3675587074371989,7,True
2024-03-08,0.8829796224608166,0.8821297057963947,-0.0962555242275287,9,True
2024-03-09,0.8821297057963947,0.8858728608801433,0.4243315987606522,12,True
2024-03-10,0.8858728608801433,0.8944129849370055,0.9640349573839968,13,True
2024-03-11,0.8944129849370055,0.8999691309705812,0.6212058777262719,12,True
2024-03-12,0.8999691309705812,0.9000890945451839,0.013329743262802118,9,True
2024-03-13,0.9000890945451839,0.8973180140788711,-0.3078673525883646,8,True
2024-03-14,0.8973180140788711,0.9031106530639443,0.6455502836438143,6,True
2024-03-15,0.9031106530639443,0.8832925204951727,-2.1944301621883766,17,True
2024-03-16,0.8832925204951727,0.8817321936991425,-0.1766489311101016,4,True
2024-03-17,0.8817321936991425,0.873862025226529,-0.892580369510565,9,True
2024-03-18,0.873862025226529,0.8746841696791344,0.09408172330092057,5,True
2024-03-19,0.8746841696791344,0.8561162147490383,-2.122818220993694,14,True
2024-03-20,0.8561162147490383,0.852544912188192,-0.4171516085457183,3,True
2024-03-21,0.852544912188192,0.852544912188192,0.0,0,False
2024-03-22,0.852544912188192,0.852544912188192,0.0,0,False
2024-03-23,0.852544912188192,0.852544912188192,0.0,0,False
2024-03-24,0.852544912188192,0.852544912188192,0.0,0,False
2024-03-25,0.852544912188192,0.852544912188192,0.0,0,False
2024-03-26,0.852544912188192,0.852544912188192,0.0,0,False
2024-03-27,0.852544912188192,0.852544912188192,0.0,0,False
2024-03-28,0.852544912188192,0.852544912188192,0.0,0,False
2024-03-29,0.852544912188192,0.852544912188192,0.0,0,False
2024-03-30,0.852544912188192,0.852544912188192,0.0,0,False
2024-03-31,0.852544912188192,0.852544912188192,0.0,0,False
2024-04-01,0.852544912188192,0.852544912188192,0.0,0,False
2024-04-02,0.852544912188192,0.852544912188192,0.0,0,False
2024-04-03,0.852544912188192,0.852544912188192,0.0,0,False
2024-04-04,0.852544912188192,0.852544912188192,0.0,0,False
2024-04-05,0.852544912188192,0.852544912188192,0.0,0,False
2024-04-06,0.852544912188192,0.852544912188192,0.0,0,False
2024-04-07,0.852544912188192,0.852544912188192,0.0,0,False
2024-04-08,0.852544912188192,0.852544912188192,0.0,0,False
2024-04-09,0.852544912188192,0.852544912188192,0.0,0,False
2024-04-10,0.852544912188192,0.852544912188192,0.0,0,False
2024-04-11,0.852544912188192,0.852544912188192,0.0,0,False
2024-04-12,0.852544912188192,0.852544912188192,0.0,0,False
2024-04-13,0.852544912188192,0.852544912188192,0.0,0,False
2024-04-14,0.852544912188192,0.852544912188192,0.0,0,False
2024-04-15,0.852544912188192,0.852544912188192,0.0,0,False
2024-04-16,0.852544912188192,0.852544912188192,0.0,0,False
2024-04-17,0.852544912188192,0.852544912188192,0.0,0,False
2024-04-18,0.852544912188192,0.852544912188192,0.0,0,False
2024-04-19,0.852544912188192,0.852544912188192,0.0,0,False
2024-04-20,0.852544912188192,0.852544912188192,0.0,0,False
2024-04-21,0.852544912188192,0.852544912188192,0.0,0,False
2024-04-22,0.852544912188192,0.852544912188192,0.0,0,False
2024-04-23,0.852544912188192,0.852544912188192,0.0,0,False
2024-04-24,0.852544912188192,0.852544912188192,0.0,0,False
2024-04-25,0.852544912188192,0.852544912188192,0.0,0,False
2024-04-26,0.852544912188192,0.852544912188192,0.0,0,False
2024-04-27,0.852544912188192,0.852544912188192,0.0,0,False
2024-04-28,0.852544912188192,0.852544912188192,0.0,0,False
2024-04-29,0.852544912188192,0.852544912188192,0.0,0,False
2024-04-30,0.852544912188192,0.852544912188192,0.0,0,False
2024-05-01,0.852544912188192,0.852544912188192,0.0,0,False
2024-05-02,0.852544912188192,0.852544912188192,0.0,0,False
2024-05-03,0.852544912188192,0.852544912188192,0.0,0,False
2024-05-04,0.852544912188192,0.852544912188192,0.0,0,False
2024-05-05,0.852544912188192,0.852544912188192,0.0,0,False
2024-05-06,0.852544912188192,0.852544912188192,0.0,0,False
2024-05-07,0.852544912188192,0.852544912188192,0.0,0,False
2024-05-08,0.852544912188192,0.852544912188192,0.0,0,False
2024-05-09,0.852544912188192,0.852544912188192,0.0,0,False
2024-05-10,0.852544912188192,0.852544912188192,0.0,0,False
2024-05-11,0.852544912188192,0.852544912188192,0.0,0,False
2024-05-12,0.852544912188192,0.852544912188192,0.0,0,False
2024-05-13,0.852544912188192,0.852544912188192,0.0,0,False
2024-05-14,0.852544912188192,0.852544912188192,0.0,0,False
2024-05-15,0.852544912188192,0.852544912188192,0.0,0,False
2024-05-16,0.852544912188192,0.852544912188192,0.0,0,False
2024-05-17,0.852544912188192,0.852544912188192,0.0,0,False
2024-05-18,0.852544912188192,0.852544912188192,0.0,0,False
2024-05-19,0.852544912188192,0.852544912188192,0.0,0,False
2024-05-20,0.852544912188192,0.852544912188192,0.0,0,False
2024-05-21,0.852544912188192,0.852544912188192,0.0,0,False
2024-05-22,0.852544912188192,0.852544912188192,0.0,0,False
2024-05-23,0.852544912188192,0.852544912188192,0.0,0,False
2024-05-24,0.852544912188192,0.852544912188192,0.0,0,False
2024-05-25,0.852544912188192,0.852544912188192,0.0,0,False
2024-05-26,0.852544912188192,0.852544912188192,0.0,0,False
2024-05-27,0.852544912188192,0.852544912188192,0.0,0,False
2024-05-28,0.852544912188192,0.852544912188192,0.0,0,False
2024-05-29,0.852544912188192,0.852544912188192,0.0,0,False
2024-05-30,0.852544912188192,0.852544912188192,0.0,0,False
2024-05-31,0.852544912188192,0.852544912188192,0.0,0,False
2024-06-01,0.852544912188192,0.852544912188192,0.0,0,False
2024-06-02,0.852544912188192,0.852544912188192,0.0,0,False
2024-06-03,0.852544912188192,0.852544912188192,0.0,0,False
2024-06-04,0.852544912188192,0.852544912188192,0.0,0,False
2024-06-05,0.852544912188192,0.852544912188192,0.0,0,False
2024-06-06,0.852544912188192,0.852544912188192,0.0,0,False
2024-06-07,0.852544912188192,0.852544912188192,0.0,0,False
2024-06-08,0.852544912188192,0.852544912188192,0.0,0,False
2024-06-09,0.852544912188192,0.852544912188192,0.0,0,False
2024-06-10,0.852544912188192,0.852544912188192,0.0,0,False
2024-06-11,0.852544912188192,0.852544912188192,0.0,0,False
2024-06-12,0.852544912188192,0.852544912188192,0.0,0,False
2024-06-13,0.852544912188192,0.852544912188192,0.0,0,False
2024-06-14,0.852544912188192,0.852544912188192,0.0,0,False
2024-06-15,0.852544912188192,0.852544912188192,0.0,0,False
2024-06-16,0.852544912188192,0.852544912188192,0.0,0,False
2024-06-17,0.852544912188192,0.852544912188192,0.0,0,False
2024-06-18,0.852544912188192,0.852544912188192,0.0,0,False
2024-06-19,0.852544912188192,0.852544912188192,0.0,0,False
2024-06-20,0.852544912188192,0.852544912188192,0.0,0,False
2024-06-21,0.852544912188192,0.852544912188192,0.0,0,False
2024-06-22,0.852544912188192,0.852544912188192,0.0,0,False
2024-06-23,0.852544912188192,0.852544912188192,0.0,0,False
2024-06-24,0.852544912188192,0.852544912188192,0.0,0,False
2024-06-25,0.852544912188192,0.852544912188192,0.0,0,False
2024-06-26,0.852544912188192,0.852544912188192,0.0,0,False
2024-06-27,0.852544912188192,0.852544912188192,0.0,0,False
2024-06-28,0.852544912188192,0.852544912188192,0.0,0,False
2024-06-29,0.852544912188192,0.852544912188192,0.0,0,False
2024-06-30,0.852544912188192,0.852544912188192,0.0,0,False
2024-07-01,0.852544912188192,0.852544912188192,0.0,0,False
2024-07-02,0.852544912188192,0.852544912188192,0.0,0,False
2024-07-03,0.852544912188192,0.852544912188192,0.0,0,False
2024-07-04,0.852544912188192,0.852544912188192,0.0,0,False
2024-07-05,0.852544912188192,0.852544912188192,0.0,0,False
2024-07-06,0.852544912188192,0.852544912188192,0.0,0,False
2024-07-07,0.852544912188192,0.852544912188192,0.0,0,False
2024-07-08,0.852544912188192,0.852544912188192,0.0,0,False
2024-07-09,0.852544912188192,0.852544912188192,0.0,0,False
2024-07-10,0.852544912188192,0.852544912188192,0.0,0,False
2024-07-11,0.852544912188192,0.852544912188192,0.0,0,False
2024-07-12,0.852544912188192,0.852544912188192,0.0,0,False
2024-07-13,0.852544912188192,0.852544912188192,0.0,0,False
2024-07-14,0.852544912188192,0.852544912188192,0.0,0,False
2024-07-15,0.852544912188192,0.852544912188192,0.0,0,False
2024-07-16,0.852544912188192,0.852544912188192,0.0,0,False
2024-07-17,0.852544912188192,0.852544912188192,0.0,0,False
2024-07-18,0.852544912188192,0.852544912188192,0.0,0,False
2024-07-19,0.852544912188192,0.852544912188192,0.0,0,False
2024-07-20,0.852544912188192,0.852544912188192,0.0,0,False
2024-07-21,0.852544912188192,0.852544912188192,0.0,0,False
2024-07-22,0.852544912188192,0.852544912188192,0.0,0,False
2024-07-23,0.852544912188192,0.852544912188192,0.0,0,False
2024-07-24,0.852544912188192,0.852544912188192,0.0,0,False
2024-07-25,0.852544912188192,0.852544912188192,0.0,0,False
2024-07-26,0.852544912188192,0.852544912188192,0.0,0,False
2024-07-27,0.852544912188192,0.852544912188192,0.0,0,False
2024-07-28,0.852544912188192,0.852544912188192,0.0,0,False
2024-07-29,0.852544912188192,0.852544912188192,0.0,0,False
2024-07-30,0.852544912188192,0.852544912188192,0.0,0,False
2024-07-31,0.852544912188192,0.852544912188192,0.0,0,False
2024-08-01,0.852544912188192,0.852544912188192,0.0,0,False
2024-08-02,0.852544912188192,0.852544912188192,0.0,0,False
2024-08-03,0.852544912188192,0.852544912188192,0.0,0,False
2024-08-04,0.852544912188192,0.852544912188192,0.0,0,False
2024-08-05,0.852544912188192,0.852544912188192,0.0,0,False
2024-08-06,0.852544912188192,0.852544912188192,0.0,0,False
2024-08-07,0.852544912188192,0.852544912188192,0.0,0,False
2024-08-08,0.852544912188192,0.852544912188192,0.0,0,False
2024-08-09,0.852544912188192,0.852544912188192,0.0,0,False
2024-08-10,0.852544912188192,0.852544912188192,0.0,0,False
2024-08-11,0.852544912188192,0.852544912188192,0.0,0,False
2024-08-12,0.852544912188192,0.852544912188192,0.0,0,False
2024-08-13,0.852544912188192,0.852544912188192,0.0,0,False
2024-08-14,0.852544912188192,0.852544912188192,0.0,0,False
2024-08-15,0.852544912188192,0.852544912188192,0.0,0,False
2024-08-16,0.852544912188192,0.852544912188192,0.0,0,False
2024-08-17,0.852544912188192,0.852544912188192,0.0,0,False
2024-08-18,0.852544912188192,0.852544912188192,0.0,0,False
2024-08-19,0.852544912188192,0.852544912188192,0.0,0,False
2024-08-20,0.852544912188192,0.852544912188192,0.0,0,False
2024-08-21,0.852544912188192,0.852544912188192,0.0,0,False
2024-08-22,0.852544912188192,0.852544912188192,0.0,0,False
2024-08-23,0.852544912188192,0.852544912188192,0.0,0,False
2024-08-24,0.852544912188192,0.852544912188192,0.0,0,False
2024-08-25,0.852544912188192,0.852544912188192,0.0,0,False
2024-08-26,0.852544912188192,0.852544912188192,0.0,0,False
2024-08-27,0.852544912188192,0.852544912188192,0.0,0,False
2024-08-28,0.852544912188192,0.852544912188192,0.0,0,False
2024-08-29,0.852544912188192,0.852544912188192,0.0,0,False
2024-08-30,0.852544912188192,0.852544912188192,0.0,0,False
2024-08-31,0.852544912188192,0.852544912188192,0.0,0,False
2024-09-01,0.852544912188192,0.852544912188192,0.0,0,False
2024-09-02,0.852544912188192,0.852544912188192,0.0,0,False
2024-09-03,0.852544912188192,0.852544912188192,0.0,0,False
2024-09-04,0.852544912188192,0.852544912188192,0.0,0,False
2024-09-05,0.852544912188192,0.852544912188192,0.0,0,False
2024-09-06,0.852544912188192,0.852544912188192,0.0,0,False
2024-09-07,0.852544912188192,0.852544912188192,0.0,0,False
2024-09-08,0.852544912188192,0.852544912188192,0.0,0,False
2024-09-09,0.852544912188192,0.852544912188192,0.0,0,False
2024-09-10,0.852544912188192,0.852544912188192,0.0,0,False
2024-09-11,0.852544912188192,0.852544912188192,0.0,0,False
2024-09-12,0.852544912188192,0.852544912188192,0.0,0,False
2024-09-13,0.852544912188192,0.852544912188192,0.0,0,False
2024-09-14,0.852544912188192,0.852544912188192,0.0,0,False
2024-09-15,0.852544912188192,0.852544912188192,0.0,0,False
2024-09-16,0.852544912188192,0.852544912188192,0.0,0,False
2024-09-17,0.852544912188192,0.852544912188192,0.0,0,False
2024-09-18,0.852544912188192,0.852544912188192,0.0,0,False
2024-09-19,0.852544912188192,0.852544912188192,0.0,0,False
2024-09-20,0.852544912188192,0.852544912188192,0.0,0,False
2024-09-21,0.852544912188192,0.852544912188192,0.0,0,False
2024-09-22,0.852544912188192,0.852544912188192,0.0,0,False
2024-09-23,0.852544912188192,0.852544912188192,0.0,0,False
2024-09-24,0.852544912188192,0.852544912188192,0.0,0,False
2024-09-25,0.852544912188192,0.852544912188192,0.0,0,False
2024-09-26,0.852544912188192,0.852544912188192,0.0,0,False
2024-09-27,0.852544912188192,0.852544912188192,0.0,0,False
2024-09-28,0.852544912188192,0.852544912188192,0.0,0,False
2024-09-29,0.852544912188192,0.852544912188192,0.0,0,False
2024-09-30,0.852544912188192,0.852544912188192,0.0,0,False
2024-10-01,0.852544912188192,0.852544912188192,0.0,0,False
2024-10-02,0.852544912188192,0.852544912188192,0.0,0,False
2024-10-03,0.852544912188192,0.852544912188192,0.0,0,False
2024-10-04,0.852544912188192,0.852544912188192,0.0,0,False
2024-10-05,0.852544912188192,0.852544912188192,0.0,0,False
2024-10-06,0.852544912188192,0.852544912188192,0.0,0,False
2024-10-07,0.852544912188192,0.852544912188192,0.0,0,False
2024-10-08,0.852544912188192,0.852544912188192,0.0,0,False
2024-10-09,0.852544912188192,0.852544912188192,0.0,0,False
2024-10-10,0.852544912188192,0.852544912188192,0.0,0,False
2024-10-11,0.852544912188192,0.852544912188192,0.0,0,False
2024-10-12,0.852544912188192,0.852544912188192,0.0,0,False
2024-10-13,0.852544912188192,0.852544912188192,0.0,0,False
2024-10-14,0.852544912188192,0.852544912188192,0.0,0,False
2024-10-15,0.852544912188192,0.852544912188192,0.0,0,False
2024-10-16,0.852544912188192,0.852544912188192,0.0,0,False
2024-10-17,0.852544912188192,0.852544912188192,0.0,0,False
2024-10-18,0.852544912188192,0.852544912188192,0.0,0,False
2024-10-19,0.852544912188192,0.852544912188192,0.0,0,False
2024-10-20,0.852544912188192,0.852544912188192,0.0,0,False
2024-10-21,0.852544912188192,0.852544912188192,0.0,0,False
2024-10-22,0.852544912188192,0.852544912188192,0.0,0,False
2024-10-23,0.852544912188192,0.852544912188192,0.0,0,False
2024-10-24,0.852544912188192,0.852544912188192,0.0,0,False
2024-10-25,0.852544912188192,0.852544912188192,0.0,0,False
2024-10-26,0.852544912188192,0.852544912188192,0.0,0,False
2024-10-27,0.852544912188192,0.852544912188192,0.0,0,False
2024-10-28,0.852544912188192,0.852544912188192,0.0,0,False
2024-10-29,0.852544912188192,0.852544912188192,0.0,0,False
2024-10-30,0.852544912188192,0.852544912188192,0.0,0,False
2024-10-31,0.852544912188192,0.852544912188192,0.0,0,False
2024-11-01,0.852544912188192,0.852544912188192,0.0,0,False
2024-11-02,0.852544912188192,0.852544912188192,0.0,0,False
2024-11-03,0.852544912188192,0.852544912188192,0.0,0,False
2024-11-04,0.852544912188192,0.852544912188192,0.0,0,False
2024-11-05,0.852544912188192,0.852544912188192,0.0,0,False
2024-11-06,0.852544912188192,0.852544912188192,0.0,0,False
2024-11-07,0.852544912188192,0.852544912188192,0.0,0,False
2024-11-08,0.852544912188192,0.852544912188192,0.0,0,False
2024-11-09,0.852544912188192,0.852544912188192,0.0,0,False
2024-11-10,0.852544912188192,0.852544912188192,0.0,0,False
2024-11-11,0.852544912188192,0.852544912188192,0.0,0,False
2024-11-12,0.852544912188192,0.852544912188192,0.0,0,False
2024-11-13,0.852544912188192,0.852544912188192,0.0,0,False
2024-11-14,0.852544912188192,0.852544912188192,0.0,0,False
2024-11-15,0.852544912188192,0.852544912188192,0.0,0,False
2024-11-16,0.852544912188192,0.852544912188192,0.0,0,False
2024-11-17,0.852544912188192,0.852544912188192,0.0,0,False
2024-11-18,0.852544912188192,0.852544912188192,0.0,0,False
2024-11-19,0.852544912188192,0.852544912188192,0.0,0,False
2024-11-20,0.852544912188192,0.852544912188192,0.0,0,False
2024-11-21,0.852544912188192,0.852544912188192,0.0,0,False
2024-11-22,0.852544912188192,0.852544912188192,0.0,0,False
2024-11-23,0.852544912188192,0.852544912188192,0.0,0,False
2024-11-24,0.852544912188192,0.852544912188192,0.0,0,False
2024-11-25,0.852544912188192,0.852544912188192,0.0,0,False
2024-11-26,0.852544912188192,0.852544912188192,0.0,0,False
2024-11-27,0.852544912188192,0.852544912188192,0.0,0,False
2024-11-28,0.852544912188192,0.852544912188192,0.0,0,False
2024-11-29,0.852544912188192,0.852544912188192,0.0,0,False
2024-11-30,0.852544912188192,0.852544912188192,0.0,0,False
2024-12-01,0.852544912188192,0.852544912188192,0.0,0,False
2024-12-02,0.852544912188192,0.852544912188192,0.0,0,False
2024-12-03,0.852544912188192,0.852544912188192,0.0,0,False
2024-12-04,0.852544912188192,0.852544912188192,0.0,0,False
2024-12-05,0.852544912188192,0.852544912188192,0.0,0,False
2024-12-06,0.852544912188192,0.852544912188192,0.0,0,False
2024-12-07,0.852544912188192,0.852544912188192,0.0,0,False
2024-12-08,0.852544912188192,0.852544912188192,0.0,0,False
2024-12-09,0.852544912188192,0.852544912188192,0.0,0,False
2024-12-10,0.852544912188192,0.852544912188192,0.0,0,False
2024-12-11,0.852544912188192,0.852544912188192,0.0,0,False
2024-12-12,0.852544912188192,0.852544912188192,0.0,0,False
2024-12-13,0.852544912188192,0.852544912188192,0.0,0,False
2024-12-14,0.852544912188192,0.852544912188192,0.0,0,False
2024-12-15,0.852544912188192,0.852544912188192,0.0,0,False
2024-12-16,0.852544912188192,0.852544912188192,0.0,0,False
2024-12-17,0.852544912188192,0.852544912188192,0.0,0,False
2024-12-18,0.852544912188192,0.852544912188192,0.0,0,False
2024-12-19,0.852544912188192,0.852544912188192,0.0,0,False
2024-12-20,0.852544912188192,0.852544912188192,0.0,0,False
2024-12-21,0.852544912188192,0.852544912188192,0.0,0,False
2024-12-22,0.852544912188192,0.852544912188192,0.0,0,False
2024-12-23,0.852544912188192,0.852544912188192,0.0,0,False
2024-12-24,0.852544912188192,0.852544912188192,0.0,0,False
2024-12-25,0.852544912188192,0.852544912188192,0.0,0,False
2024-12-26,0.852544912188192,0.852544912188192,0.0,0,False
2024-12-27,0.852544912188192,0.852544912188192,0.0,0,False
2024-12-28,0.852544912188192,0.852544912188192,0.0,0,False
2024-12-29,0.852544912188192,0.852544912188192,0.0,0,False
2024-12-30,0.852544912188192,0.852544912188192,0.0,0,False
2024-12-31,0.852544912188192,0.852544912188192,0.0,0,False
