day,start_equity,end_equity,return_pct,entries,active
2024-01-02,1.0099946652896052,1.0176273712354644,0.7557174516036325,0,True
2024-01-03,1.0176273712354644,1.0380575188323793,2.007625597974183,4,True
2024-01-04,1.0380575188323793,1.035528929710931,-0.24358853681755166,2,True
2024-01-05,1.035528929710931,1.035528929710931,0.0,0,False
2024-01-06,1.035528929710931,1.045108091369351,0.9250501249727483,3,True
2024-01-07,1.045108091369351,1.0537769681163738,0.8294717856087486,2,True
2024-01-08,1.0537769681163738,1.0423980988235462,-1.0798176119912073,5,True
2024-01-09,1.0423980988235462,1.0454924131609136,0.2968457387690693,1,True
2024-01-10,1.0454924131609136,1.031759855498516,-1.313501417086238,4,True
2024-01-11,1.031759855498516,1.031759855498516,0.0,0,False
2024-01-12,1.031759855498516,1.0461494837860632,1.3946683630751133,1,True
2024-01-13,1.0461494837860632,1.0461494837860632,0.0,0,False
2024-01-14,1.0461494837860632,1.0436210670929578,-0.24168789759900777,1,True
2024-01-15,1.0436210670929578,1.047540535602963,0.3755643339898418,1,True
2024-01-16,1.047540535602963,1.047540535602963,0.0,0,False
2024-01-17,1.047540535602963,1.047540535602963,0.0,0,False
2024-01-18,1.047540535602963,1.0462180689318061,-0.12624491618318245,1,True
2024-01-19,1.0462180689318061,1.0462180689318061,0.0,0,False
2024-01-20,1.0462180689318061,1.0462180689318061,0.0,0,False
2024-01-21,1.0462180689318061,1.0462180689318061,0.0,0,False
2024-01-22,1.0462180689318061,1.0462180689318061,0.0,0,False
2024-01-23,1.0462180689318061,1.0381674928015707,-0.7694931266533311,3,True
2024-01-24,1.0381674928015707,1.0381674928015707,0.0,0,False
2024-01-25,1.0381674928015707,1.0344811159221496,-0.35508498435768976,1,True
2024-01-26,1.0344811159221496,1.0344811159221496,0.0,0,False
2024-01-27,1.0344811159221496,1.0344811159221496,0.0,0,False
2024-01-28,1.0344811159221496,1.0314060388011712,-0.2972579270562381,2,True
2024-01-29,1.0314060388011712,1.0314060388011712,0.0,0,False
2024-01-30,1.0314060388011712,1.0314060388011712,0.0,0,False
2024-01-31,1.0314060388011712,1.0314060388011712,0.0,0,False
2024-02-01,1.0314060388011712,1.0314060388011712,0.0,0,False
2024-02-02,1.0314060388011712,1.0315541874992376,0.01436376097221359,1,True
2024-02-03,1.0315541874992376,1.0315541874992376,0.0,0,False
2024-02-04,1.0315541874992376,1.0315541874992376,0.0,0,False
2024-02-05,1.0315541874992376,1.0315541874992376,0.0,0,False
2024-02-06,1.0315541874992376,1.0224228609656028,-0.8852008594693039,2,True
2024-02-07,1.0224228609656028,1.0202377587608262,-0.2137180503488434,1,True
2024-02-08,1.0202377587608262,1.0202377587608262,0.0,0,False
2024-02-09,1.0202377587608262,1.0202377587608262,0.0,0,False
2024-02-10,1.0202377587608262,1.0202377587608262,0.0,0,False
2024-02-11,1.0202377587608262,1.0202377587608262,0.0,0,False
2024-02-12,1.0202377587608262,1.0202377587608262,0.0,0,False
2024-02-13,1.0202377587608262,1.0202377587608262,0.0,0,False
2024-02-14,1.0202377587608262,1.0202377587608262,0.0,0,False
2024-02-15,1.0202377587608262,1.0474339752617343,2.665674375151572,2,True
2024-02-16,1.0474339752617343,1.0362731849493023,-1.0655364038237525,1,True
2024-02-17,1.0362731849493023,1.0362731849493023,0.0,0,False
2024-02-18,1.0362731849493023,1.0362731849493023,0.0,0,False
2024-02-19,1.0362731849493023,1.0362731849493023,0.0,0,False
2024-02-20,1.0362731849493023,1.0310984967464274,-0.49935560217435615,1,True
2024-02-21,1.0310984967464274,1.0553775029551642,2.3546738052036664,5,True
2024-02-22,1.0553775029551642,1.0725904997089384,1.630980071640331,1,True
2024-02-23,1.0725904997089384,1.0650463457327821,-0.7033582693678042,2,True
2024-02-24,1.0650463457327821,1.0650463457327821,0.0,0,False
2024-02-25,1.0650463457327821,1.0650463457327821,0.0,0,False
2024-02-26,1.0650463457327821,1.06756790067212,0.23675541908956266,2,True
2024-02-27,1.06756790067212,1.063785876932729,-0.3542654042904214,2,True
2024-02-28,1.063785876932729,1.0552069883562236,-0.8064488129172598,1,True
2024-02-29,1.0552069883562236,1.0749375100130896,1.8698247713087701,6,True
2024-03-01,1.0749375100130896,1.0697793345603468,-0.47985816893485467,2,True
2024-03-02,1.0697793345603468,1.0608001874535393,-0.8393457245552072,2,True
2024-03-03,1.0608001874535393,1.083549209136339,2.144515239708711,4,True
2024-03-04,1.083549209136339,1.082242362487782,-0.12060796478258196,0,True
2024-03-05,1.082242362487782,1.082908396892847,0.061542074876275166,2,True
2024-03-06,1.082908396892847,1.1016068624002995,1.7266894929528043,9,True
2024-03-07,1.1016068624002995,1.1000893181710374,-0.13775733258918343,5,True
2024-03-08,1.1000893181710374,1.1059529018420728,0.5330097814951973,1,True
2024-03-09,1.1059529018420728,1.104109633897744,-0.16666785188217403,2,True
2024-03-10,1.104109633897744,1.1062023076952494,0.1895349640341104,1,True
2024-03-11,1.1062023076952494,1.1062997172714704,0.008805765052488645,1,True
2024-03-12,1.1062997172714704,1.1157818122437386,0.857100008635503,2,True
2024-03-13,1.1157818122437386,1.1157818122437386,0.0,0,False
2024-03-14,1.1157818122437386,1.1157818122437386,0.0,0,False
2024-03-15,1.1157818122437386,1.1133454790601411,-0.21835211480085714,1,True
2024-03-16,1.1133454790601411,1.1077883186269901,-0.49914070139686073,1,True
2024-03-17,1.1077883186269901,1.1022582680736024,-0.499197406255536,1,True
2024-03-18,1.1022582680736024,1.100067633354586,-0.19874060213174172,1,True
2024-03-19,1.100067633354586,1.0858328591419193,-1.2939908221150653,2,True
2024-03-20,1.0858328591419193,1.0852287762735395,-0.05563313573482276,1,True
2024-03-21,1.0852287762735395,1.0659619035035142,-1.7753742981442167,3,True
2024-03-22,1.0659619035035142,1.0707441357348728,0.4486306889243341,2,True
2024-03-23,1.0707441357348728,1.0661650228952697,-0.4276570551993153,1,True
2024-03-24,1.0661650228952697,1.0651198051232351,-0.09803527123748434,2,True
2024-03-25,1.0651198051232351,1.0651198051232351,0.0,0,False
2024-03-26,1.0651198051232351,1.0699884116120675,0.45709472919519545,1,True
2024-03-27,1.0699884116120675,1.064438319959011,-0.5187057722143451,3,True
2024-03-28,1.064438319959011,1.064438319959011,0.0,0,False
2024-03-29,1.064438319959011,1.0538437456385659,-0.9953206420502791,2,True
2024-03-30,1.0538437456385659,1.0538437456385659,0.0,0,False
2024-03-31,1.0538437456385659,1.0538437456385659,0.0,0,False
2024-04-01,1.0538437456385659,1.0491978016529644,-0.4408570060627226,2,True
2024-04-02,1.0491978016529644,1.0483660395764385,-0.07927600260079215,2,True
2024-04-03,1.0483660395764385,1.0482490714432426,-0.011157184492838201,1,True
2024-04-04,1.0482490714432426,1.0482490714432426,0.0,0,False
2024-04-05,1.0482490714432426,1.0471611797211202,-0.10378179688006473,2,True
2024-04-06,1.0471611797211202,1.0396258086677292,-0.7195999239962059,0,True
2024-04-07,1.0396258086677292,1.0429218455917875,0.3170406983530105,2,True
2024-04-08,1.0429218455917875,1.0421683389215235,-0.07224958163920547,0,True
2024-04-09,1.0421683389215235,1.0370042028963575,-0.4955184140894131,1,True
2024-04-10,1.0370042028963575,1.0318334568215641,-0.49862344437481276,1,True
2024-04-11,1.0318334568215641,1.0318334568215641,0.0,0,False
2024-04-12,1.0318334568215641,1.0266864882768167,-0.4988177608237221,1,True
2024-04-13,1.0266864882768167,1.024908375904009,-0.17318941985806635,9,True
2024-04-14,1.024908375904009,1.0337145281220694,0.8592136063180433,8,True
2024-04-15,1.0337145281220694,1.0420143831047783,0.8029155784225139,2,True
2024-04-16,1.0420143831047783,1.038946187283722,-0.29444850961791724,0,True
2024-04-17,1.038946187283722,1.0337600919596168,-0.4991688104331926,1,True
2024-04-18,1.0337600919596168,1.0337600919596168,0.0,0,False
2024-04-19,1.0337600919596168,1.0337600919596168,0.0,0,False
2024-04-20,1.0337600919596168,1.0337600919596168,0.0,0,False
2024-04-21,1.0337600919596168,1.0337600919596168,0.0,0,False
2024-04-22,1.0337600919596168,1.0337600919596168,0.0,0,False
2024-04-23,1.0337600919596168,1.0285972788636577,-0.4994208168911163,1,True
2024-04-24,1.0285972788636577,1.0285972788636577,0.0,0,False
2024-04-25,1.0285972788636577,1.0344600880034907,0.5699810081463363,2,True
2024-04-26,1.0344600880034907,1.032207889124483,-0.2177173295641044,0,True
2024-04-27,1.032207889124483,1.027055963937523,-0.49911701327238767,1,True
2024-04-28,1.027055963937523,1.027055963937523,0.0,0,False
2024-04-29,1.027055963937523,1.0334583405664652,0.6233717395882632,1,True
2024-04-30,1.0334583405664652,1.0334583405664652,0.0,0,False
2024-05-01,1.0334583405664652,1.0334583405664652,0.0,0,False
2024-05-02,1.0334583405664652,1.0334583405664652,0.0,0,False
2024-05-03,1.0334583405664652,1.0334583405664652,0.0,0,False
2024-05-04,1.0334583405664652,1.0334583405664652,0.0,0,False
2024-05-05,1.0334583405664652,1.0334583405664652,0.0,0,False
2024-05-06,1.0334583405664652,1.0334583405664652,0.0,0,False
2024-05-07,1.0334583405664652,1.0282988316504862,-0.49924691818259426,1,True
2024-05-08,1.0282988316504862,1.0282988316504862,0.0,0,False
2024-05-09,1.0282988316504862,1.0102387138876665,-1.7563102482409776,5,True
2024-05-10,1.0102387138876665,1.0082731786297232,-0.19456146660420393,1,True
2024-05-11,1.0082731786297232,1.0087967842978727,0.051930932930410734,1,True
2024-05-12,1.0087967842978727,1.007546325112399,-0.12395550867501104,0,True
2024-05-13,1.007546325112399,1.0153312883071035,0.7726655341466326,1,True
2024-05-14,1.0153312883071035,1.0153312883071035,0.0,0,False
2024-05-15,1.0153312883071035,1.0153312883071035,0.0,0,False
2024-05-16,1.0153312883071035,1.0153312883071035,0.0,0,False
2024-05-17,1.0153312883071035,1.0153312883071035,0.0,0,False
2024-05-18,1.0153312883071035,1.0153312883071035,0.0,0,False
2024-05-19,1.0153312883071035,1.0153312883071035,0.0,0,False
2024-05-20,1.0153312883071035,1.0153312883071035,0.0,0,False
2024-05-21,1.0153312883071035,1.0163916068479903,0.10443079545541245,2,True
2024-05-22,1.0163916068479903,1.0163916068479903,0.0,0,False
2024-05-23,1.0163916068479903,1.0159243918424372,-0.04596801099155945,1,True
2024-05-24,1.0159243918424372,1.0145312586798167,-0.1371296106094988,2,True
2024-05-25,1.0145312586798167,1.0145312586798167,0.0,0,False
2024-05-26,1.0145312586798167,1.0145312586798167,0.0,0,False
2024-05-27,1.0145312586798167,1.0145312586798167,0.0,0,False
2024-05-28,1.0145312586798167,1.0145312586798167,0.0,0,False
2024-05-29,1.0145312586798167,1.0145312586798167,0.0,0,False
2024-05-30,1.0145312586798167,1.0145312586798167,0.0,0,False
2024-05-31,1.0145312586798167,1.0043978546982661,-0.9988261963201572,2,True
2024-06-01,1.0043978546982661,1.0043978546982661,0.0,0,False
2024-06-02,1.0043978546982661,0.9993820057779275,-0.49938865329869353,1,True
2024-06-03,0.9993820057779275,0.9917459953804653,-0.7640732325892019,3,True
2024-06-04,0.9917459953804653,0.98944565523161,-0.23194851903312053,2,True
2024-06-05,0.98944565523161,0.98944565523161,0.0,0,False
2024-06-06,0.98944565523161,0.9795936081183708,-0.9957138182524083,2,True
2024-06-07,0.9795936081183708,0.9795936081183708,0.0,0,False
2024-06-08,0.9795936081183708,1.0250358119510927,4.638883252822401,5,True
2024-06-09,1.0250358119510927,1.019918193539255,-0.4992624015834779,1,True
2024-06-10,1.019918193539255,1.019918193539255,0.0,0,False
2024-06-11,1.019918193539255,1.0148246326078587,-0.4994087725527119,1,True
2024-06-12,1.0148246326078587,1.009759064472366,-0.4991569944922891,1,True
2024-06-13,1.009759064472366,1.0017407402280567,-0.7940829180373976,2,True
2024-06-14,1.0017407402280567,0.9967436639540376,-0.49883927780370874,1,True
2024-06-15,0.9967436639540376,1.011618300892193,1.4923231996427644,1,True
2024-06-16,1.011618300892193,1.011618300892193,0.0,0,False
2024-06-17,1.011618300892193,1.011618300892193,0.0,0,False
2024-06-18,1.011618300892193,1.0315437978873245,1.9696655326972845,5,True
2024-06-19,1.0315437978873245,1.0273511863273048,-0.4064404796583987,1,True
2024-06-20,1.0273511863273048,1.0273511863273048,0.0,0,False
2024-06-21,1.0273511863273048,1.0273511863273048,0.0,0,False
2024-06-22,1.0273511863273048,1.0222220518047278,-0.49925814958302617,1,True
2024-06-23,1.0222220518047278,1.0305851888057083,0.8181331038804585,1,True
2024-06-24,1.0305851888057083,1.0312236950934353,0.06195570193152644,1,True
2024-06-25,1.0312236950934353,1.0508420405086898,1.902433536835768,1,True
2024-06-26,1.0508420405086898,1.0529493082967,0.20053135550137657,0,True
2024-06-27,1.0529493082967,1.0535749105719565,0.05941428237115076,1,True
2024-06-28,1.0535749105719565,1.0523697665223635,-0.11438617581912558,0,True
2024-06-29,1.0523697665223635,1.0419000326440313,-0.9948721648408987,2,True
2024-06-30,1.0419000326440313,1.0419000326440313,0.0,0,False
2024-07-01,1.0419000326440313,1.0419000326440313,0.0,0,False
2024-07-02,1.0419000326440313,1.0419000326440313,0.0,0,False
2024-07-03,1.0419000326440313,1.0419000326440313,0.0,0,False
2024-07-04,1.0419000326440313,1.0419000326440313,0.0,0,False
2024-07-05,1.0419000326440313,1.0324945316592968,-0.9027258556529749,6,True
2024-07-06,1.0324945316592968,1.0328205843636922,0.03157912167064403,2,True
2024-07-07,1.0328205843636922,1.0334816850778819,0.06400925041565309,2,True
2024-07-08,1.0334816850778819,1.0334816850778819,0.0,0,False
2024-07-09,1.0334816850778819,1.0334816850778819,0.0,0,False
2024-07-10,1.0334816850778819,1.0334816850778819,0.0,0,False
2024-07-11,1.0334816850778819,1.0334816850778819,0.0,0,False
2024-07-12,1.0334816850778819,1.0334816850778819,0.0,0,False
2024-07-13,1.0334816850778819,1.0334816850778819,0.0,0,False
2024-07-14,1.0334816850778819,1.028322384705156,-0.4992154623753353,1,True
2024-07-15,1.028322384705156,1.028322384705156,0.0,0,False
2024-07-16,1.028322384705156,1.0290807114699387,0.07374406859772531,1,True
2024-07-17,1.0290807114699387,1.023946600792008,-0.4989026245178829,1,True
2024-07-18,1.023946600792008,1.023946600792008,0.0,0,False
2024-07-19,1.023946600792008,1.023946600792008,0.0,0,False
2024-07-20,1.023946600792008,1.0239467112124492,1.0783808557235375e-05,2,True
2024-07-21,1.0239467112124492,1.0239467112124492,0.0,0,False
2024-07-22,1.0239467112124492,1.0239467112124492,0.0,0,False
2024-07-23,1.0239467112124492,1.0203201950363965,-0.35417040128568056,1,True
2024-07-24,1.0203201950363965,1.0203201950363965,0.0,0,False
2024-07-25,1.0203201950363965,1.0203201950363965,0.0,0,False
2024-07-26,1.0203201950363965,1.0203201950363965,0.0,0,False
2024-07-27,1.0203201950363965,1.0203201950363965,0.0,0,False
2024-07-28,1.0203201950363965,1.0152242704573404,-0.49944366521866845,1,True
2024-07-29,1.0152242704573404,1.0152242704573404,0.0,0,False
2024-07-30,1.0152242704573404,1.0152242704573404,0.0,0,False
2024-07-31,1.0152242704573404,1.0101593506361135,-0.4988966446739185,1,True
2024-08-01,1.0101593506361135,1.0101593506361135,0.0,0,False
2024-08-02,1.0101593506361135,1.0101593506361135,0.0,0,False
2024-08-03,1.0101593506361135,1.0051212412969133,-0.49874401855782846,1,True
2024-08-04,1.0051212412969133,1.0051212412969133,0.0,0,False
2024-08-05,1.0051212412969133,1.0027088899586014,-0.24000600516602688,8,True
2024-08-06,1.0027088899586014,1.0027088899586014,0.0,0,False
2024-08-07,1.0027088899586014,1.0027088899586014,0.0,0,False
2024-08-08,1.0027088899586014,1.0027088899586014,0.0,0,False
2024-08-09,1.0027088899586014,1.0027088899586014,0.0,0,False
2024-08-10,1.0027088899586014,1.0027088899586014,0.0,0,False
2024-08-11,1.0027088899586014,1.0027088899586014,0.0,0,False
2024-08-12,1.0027088899586014,1.0132483697092576,1.0511006590448568,2,True
2024-08-13,1.0132483697092576,1.0094529659870335,-0.3745778266895372,0,True
2024-08-14,1.0094529659870335,1.0094529659870335,0.0,0,False
2024-08-15,1.0094529659870335,1.0094529659870335,0.0,0,False
2024-08-16,1.0094529659870335,1.0094529659870335,0.0,0,False
2024-08-17,1.0094529659870335,1.0094529659870335,0.0,0,False
2024-08-18,1.0094529659870335,1.0075845404102972,-0.18509288096542065,1,True
2024-08-19,1.0075845404102972,0.997520328201992,-0.9988454372480748,2,True
2024-08-20,0.997520328201992,0.9969223152627151,-0.059949950128312945,1,True
2024-08-21,0.9969223152627151,0.9969223152627151,0.0,0,False
2024-08-22,0.9969223152627151,0.9969223152627151,0.0,0,False
2024-08-23,0.9969223152627151,0.9969223152627151,0.0,0,False
2024-08-24,0.9969223152627151,0.9969223152627151,0.0,0,False
2024-08-25,0.9969223152627151,0.9969223152627151,0.0,0,False
2024-08-26,0.9969223152627151,0.9969223152627151,0.0,0,False
2024-08-27,0.9969223152627151,0.9969223152627151,0.0,0,False
2024-08-28,0.9969223152627151,0.9969223152627151,0.0,0,False
2024-08-29,0.9969223152627151,0.9919521619449906,-0.49854971060756537,1,True
2024-08-30,0.9919521619449906,0.9919521619449906,0.0,0,False
2024-08-31,0.9919521619449906,0.9919521619449906,0.0,0,False
2024-09-01,0.9919521619449906,0.9870171674632643,-0.497503273953237,1,True
2024-09-02,0.9870171674632643,0.9870171674632643,0.0,0,False
2024-09-03,0.9870171674632643,0.9870171674632643,0.0,0,False
2024-09-04,0.9870171674632643,0.9870171674632643,0.0,0,False
2024-09-05,0.9870171674632643,0.9797041413460773,-0.7409218763623104,2,True
2024-09-06,0.9797041413460773,0.9797041413460773,0.0,0,False
2024-09-07,0.9797041413460773,0.9797041413460773,0.0,0,False
2024-09-08,0.9797041413460773,0.9797041413460773,0.0,0,False
2024-09-09,0.9797041413460773,0.9797041413460773,0.0,0,False
2024-09-10,0.9797041413460773,0.9797041413460773,0.0,0,False
2024-09-11,0.9797041413460773,0.9797041413460773,0.0,0,False
2024-09-12,0.9797041413460773,0.9797041413460773,0.0,0,False
2024-09-13,0.9797041413460773,0.9889632673851938,0.945094100183641,1,True
2024-09-14,0.9889632673851938,0.9889632673851938,0.0,0,False
2024-09-15,0.9889632673851938,0.9889632673851938,0.0,0,False
2024-09-16,0.9889632673851938,0.9889632673851938,0.0,0,False
2024-09-17,0.9889632673851938,0.9889632673851938,0.0,0,False
2024-09-18,0.9889632673851938,0.985612240995591,-0.33884235139115537,2,True
2024-09-19,0.985612240995591,0.9849086280422538,-0.07138841463926182,1,True
2024-09-20,0.9849086280422538,0.9876206409952868,0.2753568073034174,1,True
2024-09-21,0.9876206409952868,0.9760684237269156,-1.1697018864175734,4,True
2024-09-22,0.9760684237269156,0.9918802820044335,1.6199538775307998,1,True
2024-09-23,0.9918802820044335,1.0002866889693387,0.8475223388771491,1,True
2024-09-24,1.0002866889693387,1.0002866889693387,0.0,0,False
2024-09-25,1.0002866889693387,1.0002866889693387,0.0,0,False
2024-09-26,1.0002866889693387,1.0002866889693387,0.0,0,False
2024-09-27,1.0002866889693387,1.0002866889693387,0.0,0,False
2024-09-28,1.0002866889693387,1.0002866889693387,0.0,0,False
2024-09-29,1.0002866889693387,1.0002866889693387,0.0,0,False
2024-09-30,1.0002866889693387,1.0002866889693387,0.0,0,False
2024-10-01,1.0002866889693387,1.0002866889693387,0.0,0,False
2024-10-02,1.0002866889693387,1.0002866889693387,0.0,0,False
2024-10-03,1.0002866889693387,1.0088472020472592,0.855805957664102,1,True
2024-10-04,1.0088472020472592,1.0088472020472592,0.0,0,False
2024-10-05,1.0088472020472592,1.0088472020472592,0.0,0,False
2024-10-06,1.0088472020472592,1.0088472020472592,0.0,0,False
2024-10-07,1.0088472020472592,1.0088472020472592,0.0,0,False
2024-10-08,1.0088472020472592,1.0088472020472592,0.0,0,False
2024-10-09,1.0088472020472592,1.0088472020472592,0.0,0,False
2024-10-10,1.0088472020472592,1.0088472020472592,0.0,0,False
2024-10-11,1.0088472020472592,1.0064983608034477,-0.23282428092629148,1,True
2024-10-12,1.0064983608034477,1.0064983608034477,0.0,0,False
2024-10-13,1.0064983608034477,1.0064983608034477,0.0,0,False
2024-10-14,1.0064983608034477,1.0064983608034477,0.0,0,False
2024-10-15,1.0064983608034477,0.9964710716031632,-0.9962548962603512,2,True
2024-10-16,0.9964710716031632,0.9964710716031632,0.0,0,False
2024-10-17,0.9964710716031632,0.9964710716031632,0.0,0,False
2024-10-18,0.9964710716031632,1.015119076620281,1.8714045543857027,3,True
2024-10-19,1.015119076620281,1.0117269168936742,-0.33416372568826347,1,True
2024-10-20,1.0117269168936742,1.0117269168936742,0.0,0,False
2024-10-21,1.0117269168936742,1.0194398578689337,0.7623540351126223,1,True
2024-10-22,1.0194398578689337,1.0456681834951216,2.572817358840207,2,True
2024-10-23,1.0456681834951216,1.035253210119781,-0.9960113102541412,2,True
2024-10-24,1.035253210119781,1.030087682037589,-0.49896276888572455,1,True
2024-10-25,1.030087682037589,1.0290452879390881,-0.10119469601257425,1,True
2024-10-26,1.0290452879390881,1.0453380747536438,1.583291523270658,2,True
2024-10-27,1.0453380747536438,1.0453380747536438,0.0,0,False
2024-10-28,1.0453380747536438,1.0453380747536438,0.0,0,False
2024-10-29,1.0453380747536438,1.0453380747536438,0.0,0,False
2024-10-30,1.0453380747536438,1.0453380747536438,0.0,0,False
2024-10-31,1.0453380747536438,1.0453380747536438,0.0,0,False
2024-11-01,1.0453380747536438,1.0453380747536438,0.0,0,False
2024-11-02,1.0453380747536438,1.0453380747536438,0.0,0,False
2024-11-03,1.0453380747536438,1.0453380747536438,0.0,0,False
2024-11-04,1.0453380747536438,1.0453380747536438,0.0,0,False
2024-11-05,1.0453380747536438,1.0453380747536438,0.0,0,False
2024-11-06,1.0453380747536438,1.0453380747536438,0.0,0,False
2024-11-07,1.0453380747536438,1.0453380747536438,0.0,0,False
2024-11-08,1.0453380747536438,1.0453380747536438,0.0,0,False
2024-11-09,1.0453380747536438,1.0429339068971495,-0.22998950431045717,1,True
2024-11-10,1.0429339068971495,1.033015384393025,-0.9510211949703806,3,True
2024-11-11,1.033015384393025,1.0222717312063134,-1.0400283818642553,3,True
2024-11-12,1.0222717312063134,1.0222717312063134,0.0,0,False
2024-11-13,1.0222717312063134,1.0222717312063134,0.0,0,False
2024-11-14,1.0222717312063134,1.0244338564959867,0.21150201298454352,1,True
2024-11-15,1.0244338564959867,1.0244338564959867,0.0,0,False
2024-11-16,1.0244338564959867,1.0198752052018685,-0.4449922525706862,1,True
2024-11-17,1.0198752052018685,1.0402164902454527,1.9944876529828015,2,True
2024-11-18,1.0402164902454527,1.0402164902454527,0.0,0,False
2024-11-19,1.0402164902454527,1.0350226063671386,-0.49930797358236356,1,True
2024-11-20,1.0350226063671386,1.0350226063671386,0.0,0,False
2024-11-21,1.0350226063671386,1.0350226063671386,0.0,0,False
2024-11-22,1.0350226063671386,1.0350226063671386,0.0,0,False
2024-11-23,1.0350226063671386,1.032590055122526,-0.2350239723894254,1,True
2024-11-24,1.032590055122526,1.0356675243288422,0.2980339768961837,8,True
2024-11-25,1.0356675243288422,1.0266521144034502,-0.8704926739142915,1,True
2024-11-26,1.0266521144034502,1.0180664717562156,-0.8362757478197369,2,True
2024-11-27,1.0180664717562156,1.019130920172534,0.10455588567632734,2,True
2024-11-28,1.019130920172534,1.019130920172534,0.0,0,False
2024-11-29,1.019130920172534,1.019130920172534,0.0,0,False
2024-11-30,1.019130920172534,1.015041897800778,-0.4012264068157023,1,True
2024-12-01,1.015041897800778,1.015041897800778,0.0,0,False
2024-12-02,1.015041897800778,1.019850498772292,0.4737342352007845,1,True
2024-12-03,1.019850498772292,1.0194389070647507,-0.04035804346194105,1,True
2024-12-04,1.0194389070647507,1.0133111366023169,-0.6010924656659866,4,True
2024-12-05,1.0133111366023169,1.0194919685147765,0.6099638787336659,1,True
2024-12-06,1.0194919685147765,1.020770436740309,0.12540248133539045,1,True
2024-12-07,1.020770436740309,1.0234979946321787,0.26720580785821735,1,True
2024-12-08,1.0234979946321787,1.0234979946321787,0.0,0,False
2024-12-09,1.0234979946321787,1.0223778581328749,-0.10944198280588013,1,True
2024-12-10,1.0223778581328749,1.0124402202572926,-0.9720122356455252,5,True
2024-12-11,1.0124402202572926,1.0124402202572926,0.0,0,False
2024-12-12,1.0124402202572926,1.0124402202572926,0.0,0,False
2024-12-13,1.0124402202572926,1.0124402202572926,0.0,0,False
2024-12-14,1.0124402202572926,1.0124402202572926,0.0,0,False
2024-12-15,1.0124402202572926,1.0055901273527814,-0.6765923328066137,2,True
2024-12-16,1.0055901273527814,1.0028558110213535,-0.27191161259966234,0,True
2024-12-17,1.0028558110213535,1.0028558110213535,0.0,0,False
2024-12-18,1.0028558110213535,0.997849664308198,-0.49918908163447684,1,True
2024-12-19,0.997849664308198,0.999747675366829,0.19021012147624194,1,True
2024-12-20,0.999747675366829,1.0048840123577722,0.5137633342391812,2,True
2024-12-21,1.0048840123577722,1.0048840123577722,0.0,0,False
2024-12-22,1.0048840123577722,1.0048840123577722,0.0,0,False
2024-12-23,1.0048840123577722,1.0048840123577722,0.0,0,False
2024-12-24,1.0048840123577722,1.0048840123577722,0.0,0,False
2024-12-25,1.0048840123577722,1.0153113767026911,1.0376684489638688,1,True
2024-12-26,1.0153113767026911,1.0137528031203051,-0.15350695541771486,1,True
2024-12-27,1.0137528031203051,1.0157158982686052,0.1936463349110129,0,True
2024-12-28,1.0157158982686052,1.0157158982686052,0.0,0,False
2024-12-29,1.0157158982686052,1.0157158982686052,0.0,0,False
2024-12-30,1.0157158982686052,1.0148096584422643,-0.08922178218196963,1,True
2024-12-31,1.0148096584422643,1.0148096584422643,0.0,0,False
