day,start_equity,end_equity,return_pct,entries,active
2021-09-02,1.0,1.0,0.0,0,False
2021-09-03,1.0,1.0,0.0,0,False
2021-09-04,1.0,1.0,0.0,0,False
2021-09-05,1.0,1.0,0.0,0,False
2021-09-06,1.0,1.0,0.0,0,False
2021-09-07,1.0,1.0,0.0,0,False
2021-09-08,1.0,1.0,0.0,0,False
2021-09-09,1.0,1.0,0.0,0,False
2021-09-10,1.0,1.0,0.0,0,False
2021-09-11,1.0,1.0,0.0,0,False
2021-09-12,1.0,1.0,0.0,0,False
2021-09-13,1.0,1.0,0.0,0,False
2021-09-14,1.0,1.0,0.0,0,False
2021-09-15,1.0,1.0,0.0,0,False
2021-09-16,1.0,1.0,0.0,0,False
2021-09-17,1.0,1.0,0.0,0,False
2021-09-18,1.0,1.0,0.0,0,False
2021-09-19,1.0,1.0,0.0,0,False
2021-09-20,1.0,1.0,0.0,0,False
2021-09-21,1.0,1.0,0.0,0,False
2021-09-22,1.0,1.0,0.0,0,False
2021-09-23,1.0,1.0,0.0,0,False
2021-09-24,1.0,1.0,0.0,0,False
2021-09-25,1.0,1.0,0.0,0,False
2021-09-26,1.0,1.0,0.0,0,False
2021-09-27,1.0,1.0,0.0,0,False
2021-09-28,1.0,1.0,0.0,0,False
2021-09-29,1.0,1.0,0.0,0,False
2021-09-30,1.0,1.0,0.0,0,False
2021-10-01,1.0,1.0,0.0,0,False
2021-10-02,1.0,1.0,0.0,0,False
2021-10-03,1.0,1.0,0.0,0,False
2021-10-04,1.0,1.0,0.0,0,False
2021-10-05,1.0,1.0,0.0,0,False
2021-10-06,1.0,0.9900198357748151,-0.9980164225184884,2,True
2021-10-07,0.9900198357748151,0.9900198357748151,0.0,0,False
2021-10-08,0.9900198357748151,0.9900198357748151,0.0,0,False
2021-10-09,0.9900198357748151,0.9900198357748151,0.0,0,False
2021-10-10,0.9900198357748151,0.9900198357748151,0.0,0,False
2021-10-11,0.9900198357748151,0.9900198357748151,0.0,0,False
2021-10-12,0.9900198357748151,0.9900198357748151,0.0,0,False
2021-10-13,0.9900198357748151,0.9977408194734791,0.7798817174831107,1,True
2021-10-14,0.9977408194734791,1.0036383866998182,0.5910921064100849,0,True
2021-10-15,1.0036383866998182,0.999718188475178,-0.39059867344558574,2,True
2021-10-16,0.999718188475178,0.9864183949066552,-1.3303542660165424,2,True
2021-10-17,0.9864183949066552,0.9864183949066552,0.0,0,False
2021-10-18,0.9864183949066552,0.9864183949066552,0.0,0,False
2021-10-19,0.9864183949066552,0.9864183949066552,0.0,0,False
2021-10-20,0.9864183949066552,0.9864183949066552,0.0,0,False
2021-10-21,0.9864183949066552,0.9864183949066552,0.0,0,False
2021-10-22,0.9864183949066552,0.9864183949066552,0.0,0,False
2021-10-23,0.9864183949066552,0.9864183949066552,0.0,0,False
2021-10-24,0.9864183949066552,0.9864183949066552,0.0,0,False
2021-10-25,0.9864183949066552,0.9924737078771942,0.6138686182055819,1,True
2021-10-26,0.9924737078771942,0.9924737078771942,0.0,0,False
2021-10-27,0.9924737078771942,1.0133433653120196,2.1027919701231745,4,True
2021-10-28,1.0133433653120196,1.0090869959663966,-0.4200322902703779,0,True
2021-10-29,1.0090869959663966,1.0090869959663966,0.0,0,False
2021-10-30,1.0090869959663966,1.0073025384803382,-0.17683881500716314,1,True
2021-10-31,1.0073025384803382,0.9956578493886896,-1.1560269776760723,4,True
2021-11-01,0.9956578493886896,0.9835955231444932,-1.2114931099676873,2,True
2021-11-02,0.9835955231444932,0.9835955231444932,0.0,0,False
2021-11-03,0.9835955231444932,0.9835955231444932,0.0,0,False
2021-11-04,0.9835955231444932,0.9821461504646976,-0.1473545421559086,1,True
2021-11-05,0.9821461504646976,0.9821461504646976,0.0,0,False
2021-11-06,0.9821461504646976,0.9821461504646976,0.0,0,False
2021-11-07,0.9821461504646976,0.9821461504646976,0.0,0,False
2021-11-08,0.9821461504646976,0.9821461504646976,0.0,0,False
2021-11-09,0.9821461504646976,0.9821461504646976,0.0,0,False
2021-11-10,0.9821461504646976,0.9821461504646976,0.0,0,False
2021-11-11,0.9821461504646976,1.0049924935355792,2.326165312573081,6,True
2021-11-12,1.0049924935355792,0.9999737773802992,-0.499378471736045,1,True
2021-11-13,0.9999737773802992,0.9999737773802992,0.0,0,False
2021-11-14,0.9999737773802992,0.9999737773802992,0.0,0,False
2021-11-15,0.9999737773802992,0.9999737773802992,0.0,0,False
2021-11-16,0.9999737773802992,1.0467189051526797,4.674635358423296,4,True
2021-11-17,1.0467189051526797,1.0583411687235706,1.1103519305591947,0,True
2021-11-18,1.0583411687235706,1.0530524956643807,-0.49971343981339844,1,True
2021-11-19,1.0530524956643807,1.0530524956643807,0.0,0,False
2021-11-20,1.0530524956643807,1.0530524956643807,0.0,0,False
2021-11-21,1.0530524956643807,1.0530524956643807,0.0,0,False
2021-11-22,1.0530524956643807,1.0530524956643807,0.0,0,False
2021-11-23,1.0530524956643807,1.0530524956643807,0.0,0,False
2021-11-24,1.0530524956643807,1.0530524956643807,0.0,0,False
2021-11-25,1.0530524956643807,1.0477935514846788,-0.49940000155301867,1,True
2021-11-26,1.0477935514846788,1.051833861248344,0.3856017015890556,6,True
2021-11-27,1.051833861248344,1.0492619213592718,-0.2445195941895073,0,True
2021-11-28,1.0492619213592718,1.044023943789282,-0.4992059144969474,1,True
2021-11-29,1.044023943789282,1.044023943789282,0.0,0,False
2021-11-30,1.044023943789282,1.044023943789282,0.0,0,False
2021-12-01,1.044023943789282,1.0399543610367772,-0.3897978371773969,1,True
2021-12-02,1.0399543610367772,1.0420516781471543,0.20167395695001034,2,True
2021-12-03,1.0420516781471543,1.0313751824978097,-1.0245648918610462,1,True
2021-12-04,1.0313751824978097,1.0175742972809823,-1.3381052260152404,13,True
2021-12-05,1.0175742972809823,1.0162467093122232,-0.13046594949445156,0,True
2021-12-06,1.0162467093122232,1.0162467093122232,0.0,0,False
2021-12-07,1.0162467093122232,1.0162467093122232,0.0,0,False
2021-12-08,1.0162467093122232,1.0162467093122232,0.0,0,False
2021-12-09,1.0162467093122232,1.0162467093122232,0.0,0,False
2021-12-10,1.0162467093122232,1.0162467093122232,0.0,0,False
2021-12-11,1.0162467093122232,1.0162467093122232,0.0,0,False
2021-12-12,1.0162467093122232,1.0162467093122232,0.0,0,False
2021-12-13,1.0162467093122232,1.0162467093122232,0.0,0,False
2021-12-14,1.0162467093122232,1.0162467093122232,0.0,0,False
2021-12-15,1.0162467093122232,1.0162467093122232,0.0,0,False
2021-12-16,1.0162467093122232,1.0162467093122232,0.0,0,False
2021-12-17,1.0162467093122232,1.0151462437165948,-0.10828724812040891,1,True
2021-12-18,1.0151462437165948,1.0151462437165948,0.0,0,False
2021-12-19,1.0151462437165948,1.0151462437165948,0.0,0,False
2021-12-20,1.0151462437165948,1.0151462437165948,0.0,0,False
2021-12-21,1.0151462437165948,1.0151462437165948,0.0,0,False
2021-12-22,1.0151462437165948,1.0151462437165948,0.0,0,False
2021-12-23,1.0151462437165948,1.0151462437165948,0.0,0,False
2021-12-24,1.0151462437165948,1.0151462437165948,0.0,0,False
2021-12-25,1.0151462437165948,1.0151462437165948,0.0,0,False
2021-12-26,1.0151462437165948,1.0151462437165948,0.0,0,False
2021-12-27,1.0151462437165948,1.0151462437165948,0.0,0,False
2021-12-28,1.0151462437165948,1.0151462437165948,0.0,0,False
2021-12-29,1.0151462437165948,1.0151462437165948,0.0,0,False
2021-12-30,1.0151462437165948,1.0151462437165948,0.0,0,False
2021-12-31,1.0151462437165948,1.0151462437165948,0.0,0,False
2022-01-01,1.0151462437165948,1.0151462437165948,0.0,0,False
2022-01-02,1.0151462437165948,1.0151462437165948,0.0,0,False
2022-01-03,1.0151462437165948,1.0151462437165948,0.0,0,False
2022-01-04,1.0151462437165948,1.0151462437165948,0.0,0,False
2022-01-05,1.0151462437165948,1.0151462437165948,0.0,0,False
2022-01-06,1.0151462437165948,1.0100839725146677,-0.49867408102632904,1,True
2022-01-07,1.0100839725146677,1.0100839725146677,0.0,0,False
2022-01-08,1.0100839725146677,1.0100839725146677,0.0,0,False
2022-01-09,1.0100839725146677,1.0100839725146677,0.0,0,False
2022-01-10,1.0100839725146677,1.0100839725146677,0.0,0,False
2022-01-11,1.0100839725146677,1.0100839725146677,0.0,0,False
2022-01-12,1.0100839725146677,1.0100839725146677,0.0,0,False
2022-01-13,1.0100839725146677,1.0100839725146677,0.0,0,False
2022-01-14,1.0100839725146677,1.0100839725146677,0.0,0,False
2022-01-15,1.0100839725146677,1.0100839725146677,0.0,0,False
2022-01-16,1.0100839725146677,1.0100839725146677,0.0,0,False
2022-01-17,1.0100839725146677,1.0100839725146677,0.0,0,False
2022-01-18,1.0100839725146677,1.0100839725146677,0.0,0,False
2022-01-19,1.0100839725146677,1.0100839725146677,0.0,0,False
2022-01-20,1.0100839725146677,1.0100839725146677,0.0,0,False
2022-01-21,1.0100839725146677,1.0100839725146677,0.0,0,False
2022-01-22,1.0100839725146677,1.030069242693831,1.9785751207801683,3,True
2022-01-23,1.030069242693831,1.0351186107343748,0.49019695290957177,0,True
2022-01-24,1.0351186107343748,1.0351186107343748,0.0,0,False
2022-01-25,1.0351186107343748,1.0351186107343748,0.0,0,False
2022-01-26,1.0351186107343748,1.0351186107343748,0.0,0,False
2022-01-27,1.0351186107343748,1.0351186107343748,0.0,0,False
2022-01-28,1.0351186107343748,1.0351186107343748,0.0,0,False
2022-01-29,1.0351186107343748,1.0351186107343748,0.0,0,False
2022-01-30,1.0351186107343748,1.0351186107343748,0.0,0,False
2022-01-31,1.0351186107343748,1.0382620811579863,0.3036821472450768,1,True
2022-02-01,1.0382620811579863,1.0382620811579863,0.0,0,False
2022-02-02,1.0382620811579863,1.0382620811579863,0.0,0,False
2022-02-03,1.0382620811579863,1.0382620811579863,0.0,0,False
2022-02-04,1.0382620811579863,1.0382620811579863,0.0,0,False
2022-02-05,1.0382620811579863,1.0382620811579863,0.0,0,False
2022-02-06,1.0382620811579863,1.0382620811579863,0.0,0,False
2022-02-07,1.0382620811579863,1.0382620811579863,0.0,0,False
2022-02-08,1.0382620811579863,1.0382620811579863,0.0,0,False
2022-02-09,1.0382620811579863,1.0382620811579863,0.0,0,False
2022-02-10,1.0382620811579863,1.0394124851034583,0.11080092072599523,2,True
2022-02-11,1.0394124851034583,1.027887188108543,-1.1088280312284482,0,True
2022-02-12,1.027887188108543,1.027887188108543,0.0,0,False
2022-02-13,1.027887188108543,1.027887188108543,0.0,0,False
2022-02-14,1.027887188108543,1.027887188108543,0.0,0,False
2022-02-15,1.027887188108543,1.027887188108543,0.0,0,False
2022-02-16,1.027887188108543,1.027887188108543,0.0,0,False
2022-02-17,1.027887188108543,1.027887188108543,0.0,0,False
2022-02-18,1.027887188108543,1.027887188108543,0.0,0,False
2022-02-19,1.027887188108543,1.027887188108543,0.0,0,False
2022-02-20,1.027887188108543,1.027887188108543,0.0,0,False
2022-02-21,1.027887188108543,1.027887188108543,0.0,0,False
2022-02-22,1.027887188108543,1.027887188108543,0.0,0,False
2022-02-23,1.027887188108543,1.027887188108543,0.0,0,False
2022-02-24,1.027887188108543,1.027887188108543,0.0,0,False
2022-02-25,1.027887188108543,1.027887188108543,0.0,0,False
2022-02-26,1.027887188108543,1.027887188108543,0.0,0,False
2022-02-27,1.027887188108543,1.027887188108543,0.0,0,False
2022-02-28,1.027887188108543,1.027887188108543,0.0,0,False
2022-03-01,1.027887188108543,1.027887188108543,0.0,0,False
2022-03-02,1.027887188108543,1.027887188108543,0.0,0,False
2022-03-03,1.027887188108543,1.027887188108543,0.0,0,False
2022-03-04,1.027887188108543,1.027887188108543,0.0,0,False
2022-03-05,1.027887188108543,1.027887188108543,0.0,0,False
2022-03-06,1.027887188108543,1.027887188108543,0.0,0,False
2022-03-07,1.027887188108543,1.027887188108543,0.0,0,False
2022-03-08,1.027887188108543,1.027887188108543,0.0,0,False
2022-03-09,1.027887188108543,1.027887188108543,0.0,0,False
2022-03-10,1.027887188108543,1.027887188108543,0.0,0,False
2022-03-11,1.027887188108543,1.027887188108543,0.0,0,False
2022-03-12,1.027887188108543,1.027887188108543,0.0,0,False
2022-03-13,1.027887188108543,1.027887188108543,0.0,0,False
2022-03-14,1.027887188108543,1.027887188108543,0.0,0,False
2022-03-15,1.027887188108543,1.027887188108543,0.0,0,False
2022-03-16,1.027887188108543,1.027887188108543,0.0,0,False
2022-03-17,1.027887188108543,1.027887188108543,0.0,0,False
2022-03-18,1.027887188108543,1.027887188108543,0.0,0,False
2022-03-19,1.027887188108543,1.027887188108543,0.0,0,False
2022-03-20,1.027887188108543,1.027887188108543,0.0,0,False
2022-03-21,1.027887188108543,1.027887188108543,0.0,0,False
2022-03-22,1.027887188108543,1.027887188108543,0.0,0,False
2022-03-23,1.027887188108543,1.027887188108543,0.0,0,False
2022-03-24,1.027887188108543,1.027887188108543,0.0,0,False
2022-03-25,1.027887188108543,1.027887188108543,0.0,0,False
2022-03-26,1.027887188108543,1.0304126857513074,0.2456979396164849,1,True
2022-03-27,1.0304126857513074,1.0304126857513074,0.0,0,False
2022-03-28,1.0304126857513074,1.0340623585581257,0.35419525179440914,1,True
2022-03-29,1.0340623585581257,1.0340623585581257,0.0,0,False
2022-03-30,1.0340623585581257,1.0288953087832486,-0.4996845434043107,1,True
2022-03-31,1.0288953087832486,1.0288953087832486,0.0,0,False
2022-04-01,1.0288953087832486,1.0265818044615864,-0.22485322869224555,1,True
2022-04-02,1.0265818044615864,1.0265818044615864,0.0,0,False
2022-04-03,1.0265818044615864,1.025597381960768,-0.09589323486350887,1,True
2022-04-04,1.025597381960768,1.0204778996159227,-0.49917076963064133,1,True
2022-04-05,1.0204778996159227,1.0204778996159227,0.0,0,False
2022-04-06,1.0204778996159227,1.0222987288962224,0.1784290753366724,1,True
2022-04-07,1.0222987288962224,1.017197016412166,-0.4990432189585836,1,True
2022-04-08,1.017197016412166,1.017197016412166,0.0,0,False
2022-04-09,1.017197016412166,1.017197016412166,0.0,0,False
2022-04-10,1.017197016412166,1.017197016412166,0.0,0,False
2022-04-11,1.017197016412166,1.017197016412166,0.0,0,False
2022-04-12,1.017197016412166,1.017197016412166,0.0,0,False
2022-04-13,1.017197016412166,1.017197016412166,0.0,0,False
2022-04-14,1.017197016412166,1.017197016412166,0.0,0,False
2022-04-15,1.017197016412166,1.017197016412166,0.0,0,False
2022-04-16,1.017197016412166,1.017197016412166,0.0,0,False
2022-04-17,1.017197016412166,1.017197016412166,0.0,0,False
2022-04-18,1.017197016412166,1.021186610910471,0.3922145301189506,1,True
2022-04-19,1.021186610910471,1.0191103549073948,-0.20331798134575196,0,True
2022-04-20,1.0191103549073948,1.0191103549073948,0.0,0,False
2022-04-21,1.0191103549073948,1.0191103549073948,0.0,0,False
2022-04-22,1.0191103549073948,1.0191103549073948,0.0,0,False
2022-04-23,1.0191103549073948,1.0191103549073948,0.0,0,False
2022-04-24,1.0191103549073948,1.0191103549073948,0.0,0,False
2022-04-25,1.0191103549073948,1.0191103549073948,0.0,0,False
2022-04-26,1.0191103549073948,1.0191103549073948,0.0,0,False
2022-04-27,1.0191103549073948,1.014022753289006,-0.49921989251605625,1,True
2022-04-28,1.014022753289006,1.014022753289006,0.0,0,False
2022-04-29,1.014022753289006,1.0089584456173244,-0.49942741967627935,1,True
2022-04-30,1.0089584456173244,1.0089584456173244,0.0,0,False
2022-05-01,1.0089584456173244,1.0214049189506087,1.2335962286007751,4,True
2022-05-02,1.0214049189506087,1.0214049189506087,0.0,0,False
2022-05-03,1.0214049189506087,1.0214049189506087,0.0,0,False
2022-05-04,1.0214049189506087,1.016304431582041,-0.49935997702144075,1,True
2022-05-05,1.016304431582041,1.016304431582041,0.0,0,False
2022-05-06,1.016304431582041,1.006183836225852,-0.9958232043163262,2,True
2022-05-07,1.006183836225852,1.006183836225852,0.0,0,False
2022-05-08,1.006183836225852,1.006183836225852,0.0,0,False
2022-05-09,1.006183836225852,1.006183836225852,0.0,0,False
2022-05-10,1.006183836225852,0.985825364026119,-2.023335246180924,7,True
2022-05-11,0.985825364026119,0.9814530948636127,-0.4435135595061146,9,True
2022-05-12,0.9814530948636127,0.9521386221479609,-2.9868439835859406,7,True
2022-05-13,0.9521386221479609,0.9550116147454317,0.3017409997495557,0,True
2022-05-14,0.9550116147454317,0.9517127301395426,-0.34542874190786055,2,True
2022-05-15,0.9517127301395426,0.9469630678816519,-0.4990646975158497,1,True
2022-05-16,0.9469630678816519,0.9422377629034271,-0.49899569882859707,1,True
2022-05-17,0.9422377629034271,0.9422377629034271,0.0,0,False
2022-05-18,0.9422377629034271,0.9422377629034271,0.0,0,False
2022-05-19,0.9422377629034271,0.9375344801227633,-0.4991609300577182,1,True
2022-05-20,0.9375344801227633,0.9328574459328197,-0.49886529926144174,1,True
2022-05-21,0.9328574459328197,0.9328574459328197,0.0,0,False
2022-05-22,0.9328574459328197,0.9328574459328197,0.0,0,False
2022-05-23,0.9328574459328197,0.9282014305026537,-0.4991132836496992,1,True
2022-05-24,0.9282014305026537,0.9269816527172288,-0.13141304735593273,2,True
2022-05-25,0.9269816527172288,0.9366323320008191,1.0410863316767438,1,True
2022-05-26,0.9366323320008191,0.9319552182489487,-0.4993542921884031,1,True
2022-05-27,0.9319552182489487,0.927300888505082,-0.49941559988383455,1,True
2022-05-28,0.927300888505082,0.927300888505082,0.0,0,False
2022-05-29,0.927300888505082,0.927300888505082,0.0,0,False
2022-05-30,0.927300888505082,0.927300888505082,0.0,0,False
2022-05-31,0.927300888505082,0.9134396441532968,-1.4947946803039458,3,True
2022-06-01,0.9134396441532968,0.9134396441532968,0.0,0,False
2022-06-02,0.9134396441532968,0.908879146059308,-0.4992664948559544,1,True
2022-06-03,0.908879146059308,0.908879146059308,0.0,0,False
2022-06-04,0.908879146059308,0.908879146059308,0.0,0,False
2022-06-05,0.908879146059308,0.908879146059308,0.0,0,False
2022-06-06,0.908879146059308,0.908879146059308,0.0,0,False
2022-06-07,0.908879146059308,0.9100263376076045,0.12622047202541786,1,True
2022-06-08,0.9100263376076045,0.9101648984483243,0.015226025335035587,1,True
2022-06-09,0.9101648984483243,0.9101648984483243,0.0,0,False
2022-06-10,0.9101648984483243,0.9176094368985591,0.8179329331340357,2,True
2022-06-11,0.9176094368985591,0.9130233565761112,-0.4997856536816392,1,True
2022-06-12,0.9130233565761112,0.9262713420728375,1.4510018173474748,4,True
2022-06-13,0.9262713420728375,0.9169947860053789,-1.0014944483437427,3,True
2022-06-14,0.9169947860053789,0.9193924914688845,0.261474274455864,1,True
2022-06-15,0.9193924914688845,0.9193924914688845,0.0,0,False
2022-06-16,0.9193924914688845,0.9442677100569693,2.7056147204707504,4,True
2022-06-17,0.9442677100569693,0.9439268762401708,-0.03609504096862004,1,True
2022-06-18,0.9439268762401708,0.9251542641519999,-1.9887782158450218,4,True
2022-06-19,0.9251542641519999,0.9251542641519999,0.0,0,False
2022-06-20,0.9251542641519999,0.9251542641519999,0.0,0,False
2022-06-21,0.9251542641519999,0.9251542641519999,0.0,0,False
2022-06-22,0.9251542641519999,0.9251542641519999,0.0,0,False
2022-06-23,0.9251542641519999,0.9251542641519999,0.0,0,False
2022-06-24,0.9251542641519999,0.9251542641519999,0.0,0,False
2022-06-25,0.9251542641519999,0.9251542641519999,0.0,0,False
2022-06-26,0.9251542641519999,0.9251542641519999,0.0,0,False
2022-06-27,0.9251542641519999,0.9251542641519999,0.0,0,False
2022-06-28,0.9251542641519999,0.9271449735585001,0.21517594239539584,1,True
2022-06-29,0.9271449735585001,0.9205359279035747,-0.7128384280140176,0,True
2022-06-30,0.9205359279035747,0.9205359279035747,0.0,0,False
2022-07-01,0.9205359279035747,0.9205359279035747,0.0,0,False
2022-07-02,0.9205359279035747,0.9205359279035747,0.0,0,False
2022-07-03,0.9205359279035747,0.9187712107231443,-0.1917054106132965,1,True
2022-07-04,0.9187712107231443,0.9187712107231443,0.0,0,False
2022-07-05,0.9187712107231443,0.9187712107231443,0.0,0,False
2022-07-06,0.9187712107231443,0.9187712107231443,0.0,0,False
2022-07-07,0.9187712107231443,0.9187712107231443,0.0,0,False
2022-07-08,0.9187712107231443,0.9187712107231443,0.0,0,False
2022-07-09,0.9187712107231443,0.9187712107231443,0.0,0,False
2022-07-10,0.9187712107231443,0.9187712107231443,0.0,0,False
2022-07-11,0.9187712107231443,0.9187712107231443,0.0,0,False
2022-07-12,0.9187712107231443,0.9187712107231443,0.0,0,False
2022-07-13,0.9187712107231443,0.9331394294807263,1.5638516520639634,4,True
2022-07-14,0.9331394294807263,0.9554009669223836,2.385660356678465,0,True
2022-07-15,0.9554009669223836,0.9554009669223836,0.0,0,False
2022-07-16,0.9554009669223836,0.9554009669223836,0.0,0,False
2022-07-17,0.9554009669223836,0.9554009669223836,0.0,0,False
2022-07-18,0.9554009669223836,0.9554009669223836,0.0,0,False
2022-07-19,0.9554009669223836,0.952720434351458,-0.28056624011595366,2,True
2022-07-20,0.952720434351458,0.952720434351458,0.0,0,False
2022-07-21,0.952720434351458,0.9433589209476082,-0.9826086505872467,3,True
2022-07-22,0.9433589209476082,0.9433589209476082,0.0,0,False
2022-07-23,0.9433589209476082,0.9433589209476082,0.0,0,False
2022-07-24,0.9433589209476082,0.9511577205378263,0.8267054476343016,1,True
2022-07-25,0.9511577205378263,0.9523986695275499,0.13046721515563853,1,True
2022-07-26,0.9523986695275499,0.9523986695275499,0.0,0,False
2022-07-27,0.9523986695275499,0.9523986695275499,0.0,0,False
2022-07-28,0.9523986695275499,0.9523986695275499,0.0,0,False
2022-07-29,0.9523986695275499,0.9476419623426527,-0.49944496323759413,1,True
2022-07-30,0.9476419623426527,0.9476419623426527,0.0,0,False
2022-07-31,0.9476419623426527,0.9429054345682708,-0.49982250286519925,1,True
2022-08-01,0.9429054345682708,0.9429054345682708,0.0,0,False
2022-08-02,0.9429054345682708,0.9429054345682708,0.0,0,False
2022-08-03,0.9429054345682708,0.9407387307061519,-0.22979015526737312,1,True
2022-08-04,0.9407387307061519,0.9407387307061519,0.0,0,False
2022-08-05,0.9407387307061519,0.9407387307061519,0.0,0,False
2022-08-06,0.9407387307061519,0.9407387307061519,0.0,0,False
2022-08-07,0.9407387307061519,0.9407387307061519,0.0,0,False
2022-08-08,0.9407387307061519,0.9407387307061519,0.0,0,False
2022-08-09,0.9407387307061519,0.9431673657911988,0.2581625488326411,1,True
2022-08-10,0.9431673657911988,0.9431673657911988,0.0,0,False
2022-08-11,0.9431673657911988,0.9431673657911988,0.0,0,False
2022-08-12,0.9431673657911988,0.9434334440719592,0.02821114156523752,1,True
2022-08-13,0.9434334440719592,0.9434334440719592,0.0,0,False
2022-08-14,0.9434334440719592,0.9434334440719592,0.0,0,False
2022-08-15,0.9434334440719592,0.9434334440719592,0.0,0,False
2022-08-16,0.9434334440719592,0.9430235103601866,-0.043451259264593034,1,True
2022-08-17,0.9430235103601866,0.9430235103601866,0.0,0,False
2022-08-18,0.9430235103601866,0.9430235103601866,0.0,0,False
2022-08-19,0.9430235103601866,0.9259064037775956,-1.8151304176979854,8,True
2022-08-20,0.9259064037775956,0.9303926746860343,0.48452747384997163,0,True
2022-08-21,0.9303926746860343,0.9303926746860343,0.0,0,False
2022-08-22,0.9303926746860343,0.9303926746860343,0.0,0,False
2022-08-23,0.9303926746860343,0.9303926746860343,0.0,0,False
2022-08-24,0.9303926746860343,0.9303926746860343,0.0,0,False
2022-08-25,0.9303926746860343,0.9303926746860343,0.0,0,False
2022-08-26,0.9303926746860343,0.9303926746860343,0.0,0,False
2022-08-27,0.9303926746860343,0.9257475754986795,-0.49926222698628564,1,True
2022-08-28,0.9257475754986795,0.9266068738409589,0.09282210021630544,1,True
2022-08-29,0.9266068738409589,0.9237402624348865,-0.3093665163727666,0,True
2022-08-30,0.9237402624348865,0.9237402624348865,0.0,0,False
2022-08-31,0.9237402624348865,0.9237402624348865,0.0,0,False
2022-09-01,0.9237402624348865,0.9237402624348865,0.0,0,False
2022-09-02,0.9237402624348865,0.9237402624348865,0.0,0,False
2022-09-03,0.9237402624348865,0.9237402624348865,0.0,0,False
2022-09-04,0.9237402624348865,0.9237402624348865,0.0,0,False
2022-09-05,0.9237402624348865,0.9237402624348865,0.0,0,False
2022-09-06,0.9237402624348865,0.9237402624348865,0.0,0,False
2022-09-07,0.9237402624348865,0.913657709329902,-1.0914922208119293,4,True
2022-09-08,0.913657709329902,0.913657709329902,0.0,0,False
2022-09-09,0.913657709329902,0.913657709329902,0.0,0,False
2022-09-10,0.913657709329902,0.913657709329902,0.0,0,False
2022-09-11,0.913657709329902,0.913657709329902,0.0,0,False
2022-09-12,0.913657709329902,0.913657709329902,0.0,0,False
2022-09-13,0.913657709329902,0.9043366625395436,-1.0201902413973674,4,True
2022-09-14,0.9043366625395436,0.8937525207614028,-1.1703762787210858,1,True
2022-09-15,0.8937525207614028,0.899904605713013,0.6883432279854329,1,True
2022-09-16,0.899904605713013,0.899904605713013,0.0,0,False
2022-09-17,0.899904605713013,0.899904605713013,0.0,0,False
2022-09-18,0.899904605713013,0.899904605713013,0.0,0,False
2022-09-19,0.899904605713013,0.9011867857251961,0.142479547725749,5,True
2022-09-20,0.9011867857251961,0.9011867857251961,0.0,0,False
2022-09-21,0.9011867857251961,0.9011867857251961,0.0,0,False
2022-09-22,0.9011867857251961,0.9011867857251961,0.0,0,False
2022-09-23,0.9011867857251961,0.9011867857251961,0.0,0,False
2022-09-24,0.9011867857251961,0.9011867857251961,0.0,0,False
2022-09-25,0.9011867857251961,0.9011867857251961,0.0,0,False
2022-09-26,0.9011867857251961,0.9011867857251961,0.0,0,False
2022-09-27,0.9011867857251961,0.9011867857251961,0.0,0,False
2022-09-28,0.9011867857251961,0.9011867857251961,0.0,0,False
2022-09-29,0.9011867857251961,0.9011867857251961,0.0,0,False
2022-09-30,0.9011867857251961,0.9011867857251961,0.0,0,False
2022-10-01,0.9011867857251961,0.9011867857251961,0.0,0,False
2022-10-02,0.9011867857251961,0.9011867857251961,0.0,0,False
2022-10-03,0.9011867857251961,0.9011867857251961,0.0,0,False
2022-10-04,0.9011867857251961,0.9011867857251961,0.0,0,False
2022-10-05,0.9011867857251961,0.9011867857251961,0.0,0,False
2022-10-06,0.9011867857251961,0.9011867857251961,0.0,0,False
2022-10-07,0.9011867857251961,0.9011867857251961,0.0,0,False
2022-10-08,0.9011867857251961,0.9011867857251961,0.0,0,False
2022-10-09,0.9011867857251961,0.9011867857251961,0.0,0,False
2022-10-10,0.9011867857251961,0.8966869830565485,-0.49931964604058576,1,True
2022-10-11,0.8966869830565485,0.9273735546166594,3.422216686530799,4,True
2022-10-12,0.9273735546166594,0.9273735546166594,0.0,0,False
2022-10-13,0.9273735546166594,0.9273735546166594,0.0,0,False
2022-10-14,0.9273735546166594,0.9273735546166594,0.0,0,False
2022-10-15,0.9273735546166594,0.9273735546166594,0.0,0,False
2022-10-16,0.9273735546166594,0.9273735546166594,0.0,0,False
2022-10-17,0.9273735546166594,0.9273735546166594,0.0,0,False
2022-10-18,0.9273735546166594,0.9273735546166594,0.0,0,False
2022-10-19,0.9273735546166594,0.9273735546166594,0.0,0,False
2022-10-20,0.9273735546166594,0.9325103131488582,0.5539039264843115,1,True
2022-10-21,0.9325103131488582,0.9325103131488582,0.0,0,False
2022-10-22,0.9325103131488582,0.9325103131488582,0.0,0,False
2022-10-23,0.9325103131488582,0.9325103131488582,0.0,0,False
2022-10-24,0.9325103131488582,0.9325103131488582,0.0,0,False
2022-10-25,0.9325103131488582,0.9325103131488582,0.0,0,False
2022-10-26,0.9325103131488582,0.9325103131488582,0.0,0,False
2022-10-27,0.9325103131488582,0.9325103131488582,0.0,0,False
2022-10-28,0.9325103131488582,0.9325103131488582,0.0,0,False
2022-10-29,0.9325103131488582,0.9325103131488582,0.0,0,False
2022-10-30,0.9325103131488582,0.9325103131488582,0.0,0,False
2022-10-31,0.9325103131488582,0.9325103131488582,0.0,0,False
2022-11-01,0.9325103131488582,0.9325103131488582,0.0,0,False
2022-11-02,0.9325103131488582,0.9382766476279184,0.6183668317392366,1,True
2022-11-03,0.9382766476279184,0.9425116023349617,0.45135458904894676,3,True
2022-11-04,0.9425116023349617,0.9549238560772685,1.3169337875053033,5,True
2022-11-05,0.9549238560772685,0.9544813677217522,-0.04633755379555016,1,True
2022-11-06,0.9544813677217522,0.9544813677217522,0.0,0,False
2022-11-07,0.9544813677217522,0.9507897292952835,-0.3867690403721813,2,True
2022-11-08,0.9507897292952835,0.9444031019928694,-0.6717181628737023,5,True
2022-11-09,0.9444031019928694,0.913358110574117,-3.2872606361882495,14,True
2022-11-10,0.913358110574117,0.9411739263368746,3.0454446553579206,5,True
2022-11-11,0.9411739263368746,0.9529358858888655,1.2497115807031944,5,True
2022-11-12,0.9529358858888655,0.9536220049837276,0.07200055166587394,2,True
2022-11-13,0.9536220049837276,0.9488626572743946,-0.4990811542162632,1,True
2022-11-14,0.9488626572743946,0.9486670924217757,-0.020610448848368268,2,True
2022-11-15,0.9486670924217757,0.9486670924217757,0.0,0,False
2022-11-16,0.9486670924217757,0.9486670924217757,0.0,0,False
2022-11-17,0.9486670924217757,0.9486670924217757,0.0,0,False
2022-11-18,0.9486670924217757,0.9486670924217757,0.0,0,False
2022-11-19,0.9486670924217757,0.9485875738891411,-0.008382132496198569,2,True
2022-11-20,0.9485875738891411,0.9447587825935299,-0.403630766520946,1,True
2022-11-21,0.9447587825935299,0.93891420470524,-0.6186317603997793,1,True
2022-11-22,0.93891420470524,0.93891420470524,0.0,0,False
2022-11-23,0.93891420470524,0.93891420470524,0.0,0,False
2022-11-24,0.93891420470524,0.93891420470524,0.0,0,False
2022-11-25,0.93891420470524,0.9384671395275356,-0.04761512558485448,1,True
2022-11-26,0.9384671395275356,0.9384671395275356,0.0,0,False
2022-11-27,0.9384671395275356,0.9384671395275356,0.0,0,False
2022-11-28,0.9384671395275356,0.9338824658483047,-0.4885278861803344,2,True
2022-11-29,0.9338824658483047,0.9338824658483047,0.0,0,False
2022-11-30,0.9338824658483047,0.9338824658483047,0.0,0,False
2022-12-01,0.9338824658483047,0.933587489856761,-0.0315859867093371,1,True
2022-12-02,0.933587489856761,0.9323011118916564,-0.1377886892316771,1,True
2022-12-03,0.9323011118916564,0.9323011118916564,0.0,0,False
2022-12-04,0.9323011118916564,0.9230101717932401,-0.9965600147751497,2,True
2022-12-05,0.9230101717932401,0.9249362562329371,0.20867423767985116,1,True
2022-12-06,0.9249362562329371,0.9235096854449724,-0.15423449760471053,0,True
2022-12-07,0.9235096854449724,0.9235096854449724,0.0,0,False
2022-12-08,0.9235096854449724,0.9189039693988612,-0.4987187593914588,1,True
2022-12-09,0.9189039693988612,0.9189039693988612,0.0,0,False
2022-12-10,0.9189039693988612,0.9189039693988612,0.0,0,False
2022-12-11,0.9189039693988612,0.9189039693988612,0.0,0,False
2022-12-12,0.9189039693988612,0.9189039693988612,0.0,0,False
2022-12-13,0.9189039693988612,0.9189039693988612,0.0,0,False
2022-12-14,0.9189039693988612,0.9189039693988612,0.0,0,False
2022-12-15,0.9189039693988612,0.9189039693988612,0.0,0,False
2022-12-16,0.9189039693988612,0.9189039693988612,0.0,0,False
2022-12-17,0.9189039693988612,0.9363007965806092,1.8932149344320193,4,True
2022-12-18,0.9363007965806092,0.9363007965806092,0.0,0,False
2022-12-19,0.9363007965806092,0.9363007965806092,0.0,0,False
2022-12-20,0.9363007965806092,0.9363007965806092,0.0,0,False
2022-12-21,0.9363007965806092,0.9363007965806092,0.0,0,False
2022-12-22,0.9363007965806092,0.9363007965806092,0.0,0,False
2022-12-23,0.9363007965806092,0.9363007965806092,0.0,0,False
2022-12-24,0.9363007965806092,0.9363007965806092,0.0,0,False
2022-12-25,0.9363007965806092,0.9363007965806092,0.0,0,False
2022-12-26,0.9363007965806092,0.9363007965806092,0.0,0,False
2022-12-27,0.9363007965806092,0.9363007965806092,0.0,0,False
2022-12-28,0.9363007965806092,0.9393753859597594,0.32837624301707,1,True
2022-12-29,0.9393753859597594,0.9381016793599972,-0.13559079988676448,0,True
2022-12-30,0.9381016793599972,0.9381016793599972,0.0,0,False
2022-12-31,0.9381016793599972,0.9381016793599972,0.0,0,False
2023-01-01,0.9381016793599972,0.9381016793599972,0.0,0,False
2023-01-02,0.9381016793599972,0.9384084846334898,0.03270490611442245,1,True
2023-01-03,0.9384084846334898,0.9385269890038114,0.012628228779054673,0,True
2023-01-04,0.9385269890038114,0.9385269890038114,0.0,0,False
2023-01-05,0.9385269890038114,0.9385269890038114,0.0,0,False
2023-01-06,0.9385269890038114,0.9385269890038114,0.0,0,False
2023-01-07,0.9385269890038114,0.9385269890038114,0.0,0,False
2023-01-08,0.9385269890038114,0.9385269890038114,0.0,0,False
2023-01-09,0.9385269890038114,0.9385269890038114,0.0,0,False
2023-01-10,0.9385269890038114,0.9354381589897879,-0.32911467120430027,2,True
2023-01-11,0.9354381589897879,0.936349097660378,0.09738096119298323,0,True
2023-01-12,0.936349097660378,0.936349097660378,0.0,0,False
2023-01-13,0.936349097660378,0.936349097660378,0.0,0,False
2023-01-14,0.936349097660378,0.931043205753224,-0.5666574486387299,3,True
2023-01-15,0.931043205753224,0.9327112456810541,0.1791581655419261,1,True
2023-01-16,0.9327112456810541,0.9327112456810541,0.0,0,False
2023-01-17,0.9327112456810541,0.9327112456810541,0.0,0,False
2023-01-18,0.9327112456810541,0.9327112456810541,0.0,0,False
2023-01-19,0.9327112456810541,0.9280554969685183,-0.4991629225115868,1,True
2023-01-20,0.9280554969685183,0.9280554969685183,0.0,0,False
2023-01-21,0.9280554969685183,0.929574196652899,0.16364319691457574,1,True
2023-01-22,0.929574196652899,0.9286702346488172,-0.09724473929425548,0,True
2023-01-23,0.9286702346488172,0.9286702346488172,0.0,0,False
2023-01-24,0.9286702346488172,0.9364861658045508,0.8416261083988852,1,True
2023-01-25,0.9364861658045508,0.9471836509942893,1.1423003969896373,5,True
2023-01-26,0.9471836509942893,0.9484789352756258,0.13675112318258797,1,True
2023-01-27,0.9484789352756258,0.949687024863123,0.1273712617714695,0,True
2023-01-28,0.949687024863123,0.949687024863123,0.0,0,False
2023-01-29,0.949687024863123,0.949687024863123,0.0,0,False
2023-01-30,0.949687024863123,0.9494561817704508,-0.02430728088608225,2,True
2023-01-31,0.9494561817704508,0.9486870603313071,-0.08100652288234311,2,True
2023-02-01,0.9486870603313071,0.9486870603313071,0.0,0,False
2023-02-02,0.9486870603313071,0.9486870603313071,0.0,0,False
2023-02-03,0.9486870603313071,0.9486870603313071,0.0,0,False
2023-02-04,0.9486870603313071,0.9486870603313071,0.0,0,False
2023-02-05,0.9486870603313071,0.9517040397101533,0.31801628851062524,5,True
2023-02-06,0.9517040397101533,0.9658749442744251,1.4890033007097125,1,True
2023-02-07,0.9658749442744251,0.9658749442744251,0.0,0,False
2023-02-08,0.9658749442744251,0.9658749442744251,0.0,0,False
2023-02-09,0.9658749442744251,0.9658749442744251,0.0,0,False
2023-02-10,0.9658749442744251,0.9682604887870935,0.24698275142238657,1,True
2023-02-11,0.9682604887870935,0.9653655412538962,-0.2989843711193596,0,True
2023-02-12,0.9653655412538962,0.9605445617068589,-0.49939420261214673,1,True
2023-02-13,0.9605445617068589,0.9605445617068589,0.0,0,False
2023-02-14,0.9605445617068589,0.9605445617068589,0.0,0,False
2023-02-15,0.9605445617068589,0.9605445617068589,0.0,0,False
2023-02-16,0.9605445617068589,0.9605445617068589,0.0,0,False
2023-02-17,0.9605445617068589,0.9605445617068589,0.0,0,False
2023-02-18,0.9605445617068589,0.9605445617068589,0.0,0,False
2023-02-19,0.9605445617068589,0.9605445617068589,0.0,0,False
2023-02-20,0.9605445617068589,0.9605445617068589,0.0,0,False
2023-02-21,0.9605445617068589,0.9565130117799335,-0.4197150332891808,3,True
2023-02-22,0.9565130117799335,0.9535780863078108,-0.30683591712581393,2,True
2023-02-23,0.9535780863078108,0.9682758525618043,1.541328021798627,1,True
2023-02-24,0.9682758525618043,0.9682758525618043,0.0,0,False
2023-02-25,0.9682758525618043,0.9682758525618043,0.0,0,False
2023-02-26,0.9682758525618043,0.9698865028456337,0.16634208935069061,1,True
2023-02-27,0.9698865028456337,0.9650444132897049,-0.499242905404107,1,True
2023-02-28,0.9650444132897049,0.9650444132897049,0.0,0,False
2023-03-01,0.9650444132897049,0.9650444132897049,0.0,0,False
2023-03-02,0.9650444132897049,0.9650444132897049,0.0,0,False
2023-03-03,0.9650444132897049,0.9631218234928027,-0.19922293424282644,6,True
2023-03-04,0.9631218234928027,0.9631218234928027,0.0,0,False
2023-03-05,0.9631218234928027,0.9631218234928027,0.0,0,False
2023-03-06,0.9631218234928027,0.9631218234928027,0.0,0,False
2023-03-07,0.9631218234928027,0.9631218234928027,0.0,0,False
2023-03-08,0.9631218234928027,0.9631218234928027,0.0,0,False
2023-03-09,0.9631218234928027,0.9631218234928027,0.0,0,False
2023-03-10,0.9631218234928027,0.9583072166945781,-0.49989593017052414,1,True
2023-03-11,0.9583072166945781,0.9724975771042123,1.480773614392672,3,True
2023-03-12,0.9724975771042123,0.9764876270247007,0.4102889317595615,0,True
2023-03-13,0.9764876270247007,0.9764876270247007,0.0,0,False
2023-03-14,0.9764876270247007,0.9764876270247007,0.0,0,False
2023-03-15,0.9764876270247007,0.9764876270247007,0.0,0,False
2023-03-16,0.9764876270247007,0.9830862171615148,0.6757474395164165,5,True
2023-03-17,0.9830862171615148,0.9791782853756025,-0.39751668955300135,2,True
2023-03-18,0.9791782853756025,0.9769823982689502,-0.22425814986388737,0,True
2023-03-19,0.9769823982689502,0.9769823982689502,0.0,0,False
2023-03-20,0.9769823982689502,0.9769823982689502,0.0,0,False
2023-03-21,0.9769823982689502,0.9672540899977933,-0.9957506182704856,2,True
2023-03-22,0.9672540899977933,0.9672540899977933,0.0,0,False
2023-03-23,0.9672540899977933,0.9762864716601958,0.9338168487272203,3,True
2023-03-24,0.9762864716601958,0.9778881500137512,0.1640582349596409,0,True
2023-03-25,0.9778881500137512,0.9730077406294151,-0.4990764418474125,1,True
2023-03-26,0.9730077406294151,0.9730077406294151,0.0,0,False
2023-03-27,0.9730077406294151,0.9730077406294151,0.0,0,False
2023-03-28,0.9730077406294151,0.9730077406294151,0.0,0,False
2023-03-29,0.9730077406294151,0.9730077406294151,0.0,0,False
2023-03-30,0.9730077406294151,0.9730077406294151,0.0,0,False
2023-03-31,0.9730077406294151,0.9730077406294151,0.0,0,False
2023-04-01,0.9730077406294151,0.9730077406294151,0.0,0,False
2023-04-02,0.9730077406294151,0.9730077406294151,0.0,0,False
2023-04-03,0.9730077406294151,0.9730077406294151,0.0,0,False
2023-04-04,0.9730077406294151,0.9681497047610761,-0.49928028991799156,1,True
2023-04-05,0.9681497047610761,0.9681497047610761,0.0,0,False
2023-04-06,0.9681497047610761,0.9633184387364897,-0.4990205544481041,1,True
2023-04-07,0.9633184387364897,0.9585055163338642,-0.4996190469413464,1,True
2023-04-08,0.9585055163338642,0.9585055163338642,0.0,0,False
2023-04-09,0.9585055163338642,0.9585055163338642,0.0,0,False
2023-04-10,0.9585055163338642,0.9585055163338642,0.0,0,False
2023-04-11,0.9585055163338642,0.9585055163338642,0.0,0,False
2023-04-12,0.9585055163338642,0.9585055163338642,0.0,0,False
2023-04-13,0.9585055163338642,0.9585055163338642,0.0,0,False
2023-04-14,0.9585055163338642,0.9585055163338642,0.0,0,False
2023-04-15,0.9585055163338642,0.9585055163338642,0.0,0,False
2023-04-16,0.9585055163338642,0.9585055163338642,0.0,0,False
2023-04-17,0.9585055163338642,0.9537203200976201,-0.4992351274666351,1,True
2023-04-18,0.9537203200976201,0.9537203200976201,0.0,0,False
2023-04-19,0.9537203200976201,0.9394975824969652,-1.4912901928312738,3,True
2023-04-20,0.9394975824969652,0.9394975824969652,0.0,0,False
2023-04-21,0.9394975824969652,0.9394975824969652,0.0,0,False
2023-04-22,0.9394975824969652,0.9394975824969652,0.0,0,False
2023-04-23,0.9394975824969652,0.9394975824969652,0.0,0,False
2023-04-24,0.9394975824969652,0.9394975824969652,0.0,0,False
2023-04-25,0.9394975824969652,0.9394975824969652,0.0,0,False
2023-04-26,0.9394975824969652,0.9394975824969652,0.0,0,False
2023-04-27,0.9394975824969652,0.9394975824969652,0.0,0,False
2023-04-28,0.9394975824969652,0.9394975824969652,0.0,0,False
2023-04-29,0.9394975824969652,0.9394975824969652,0.0,0,False
2023-04-30,0.9394975824969652,0.9394975824969652,0.0,0,False
2023-05-01,0.9394975824969652,0.9394975824969652,0.0,0,False
2023-05-02,0.9394975824969652,0.9394975824969652,0.0,0,False
2023-05-03,0.9394975824969652,0.9394975824969652,0.0,0,False
2023-05-04,0.9394975824969652,0.9394975824969652,0.0,0,False
2023-05-05,0.9394975824969652,0.9394975824969652,0.0,0,False
2023-05-06,0.9394975824969652,0.9394975824969652,0.0,0,False
2023-05-07,0.9394975824969652,0.9394975824969652,0.0,0,False
2023-05-08,0.9394975824969652,0.9344847321559493,-0.533567135712365,5,True
2023-05-09,0.9344847321559493,0.9335340611982414,-0.10173210165933533,2,True
2023-05-10,0.9335340611982414,0.9353449593253488,0.19398308025129207,1,True
2023-05-11,0.9353449593253488,0.9373050707440843,0.2095602696302823,0,True
2023-05-12,0.9373050707440843,0.9373050707440843,0.0,0,False
2023-05-13,0.9373050707440843,0.9373050707440843,0.0,0,False
2023-05-14,0.9373050707440843,0.9373050707440843,0.0,0,False
2023-05-15,0.9373050707440843,0.9373050707440843,0.0,0,False
2023-05-16,0.9373050707440843,0.9373050707440843,0.0,0,False
2023-05-17,0.9373050707440843,0.9373050707440843,0.0,0,False
2023-05-18,0.9373050707440843,0.9373050707440843,0.0,0,False
2023-05-19,0.9373050707440843,0.9373050707440843,0.0,0,False
2023-05-20,0.9373050707440843,0.9373050707440843,0.0,0,False
2023-05-21,0.9373050707440843,0.9373050707440843,0.0,0,False
2023-05-22,0.9373050707440843,0.9373050707440843,0.0,0,False
2023-05-23,0.9373050707440843,0.9373050707440843,0.0,0,False
2023-05-24,0.9373050707440843,0.9373050707440843,0.0,0,False
2023-05-25,0.9373050707440843,0.9373050707440843,0.0,0,False
2023-05-26,0.9373050707440843,0.9396657723524339,0.2518605395440243,1,True
2023-05-27,0.9396657723524339,0.9394362892533664,-0.024421779085659345,1,True
2023-05-28,0.9394362892533664,0.9394362892533664,0.0,0,False
2023-05-29,0.9394362892533664,0.9394362892533664,0.0,0,False
2023-05-30,0.9394362892533664,0.9502122430310422,1.1470659480527612,1,True
2023-05-31,0.9502122430310422,0.9587293498304619,0.896337303785022,0,True
2023-06-01,0.9587293498304619,0.9587293498304619,0.0,0,False
2023-06-02,0.9587293498304619,0.9741585478026055,1.6093382324085637,3,True
2023-06-03,0.9741585478026055,0.9625974231686103,-1.1867805974780432,1,True
2023-06-04,0.9625974231686103,0.9625974231686103,0.0,0,False
2023-06-05,0.9625974231686103,0.9625974231686103,0.0,0,False
2023-06-06,0.9625974231686103,0.9434699097962982,-1.9870729873086024,4,True
2023-06-07,0.9434699097962982,0.9434699097962982,0.0,0,False
2023-06-08,0.9434699097962982,0.9387585332093908,-0.49936691546681455,1,True
2023-06-09,0.9387585332093908,0.9387585332093908,0.0,0,False
2023-06-10,0.9387585332093908,0.964377328476526,2.7290079781805643,5,True
2023-06-11,0.964377328476526,0.9638039435491575,-0.05945649181470225,0,True
2023-06-12,0.9638039435491575,0.9638039435491575,0.0,0,False
2023-06-13,0.9638039435491575,0.9589906922824283,-0.49940149124153566,1,True
2023-06-14,0.9589906922824283,0.9589906922824283,0.0,0,False
2023-06-15,0.9589906922824283,0.9589906922824283,0.0,0,False
2023-06-16,0.9589906922824283,0.9589906922824283,0.0,0,False
2023-06-17,0.9589906922824283,0.9589906922824283,0.0,0,False
2023-06-18,0.9589906922824283,0.9589906922824283,0.0,0,False
2023-06-19,0.9589906922824283,0.9660045404297988,0.7313781253369012,1,True
2023-06-20,0.9660045404297988,0.9671323968965054,0.11675477904118381,0,True
2023-06-21,0.9671323968965054,0.9671323968965054,0.0,0,False
2023-06-22,0.9671323968965054,0.9807910625244811,1.412284985158796,2,True
2023-06-23,0.9807910625244811,0.9807910625244811,0.0,0,False
2023-06-24,0.9807910625244811,0.9807910625244811,0.0,0,False
2023-06-25,0.9807910625244811,0.9758913665162693,-0.4995657276484988,1,True
2023-06-26,0.9758913665162693,0.9758913665162693,0.0,0,False
2023-06-27,0.9758913665162693,0.9758913665162693,0.0,0,False
2023-06-28,0.9758913665162693,0.9758913665162693,0.0,0,False
2023-06-29,0.9758913665162693,0.9758913665162693,0.0,0,False
2023-06-30,0.9758913665162693,0.9564675979775433,-1.9903617559467457,4,True
2023-07-01,0.9564675979775433,0.9516934999029554,-0.49913850554715866,1,True
2023-07-02,0.9516934999029554,0.9516934999029554,0.0,0,False
2023-07-03,0.9516934999029554,0.9516934999029554,0.0,0,False
2023-07-04,0.9516934999029554,0.9516934999029554,0.0,0,False
2023-07-05,0.9516934999029554,0.9469403799951029,-0.49943809727996946,1,True
2023-07-06,0.9469403799951029,0.9469403799951029,0.0,0,False
2023-07-07,0.9469403799951029,0.9469403799951029,0.0,0,False
2023-07-08,0.9469403799951029,0.9469403799951029,0.0,0,False
2023-07-09,0.9469403799951029,0.9469403799951029,0.0,0,False
2023-07-10,0.9469403799951029,0.9469403799951029,0.0,0,False
2023-07-11,0.9469403799951029,0.9469403799951029,0.0,0,False
2023-07-12,0.9469403799951029,0.9469403799951029,0.0,0,False
2023-07-13,0.9469403799951029,0.9469403799951029,0.0,0,False
2023-07-14,0.9469403799951029,0.9469403799951029,0.0,0,False
2023-07-15,0.9469403799951029,0.9469403799951029,0.0,0,False
2023-07-16,0.9469403799951029,0.9469403799951029,0.0,0,False
2023-07-17,0.9469403799951029,0.9469403799951029,0.0,0,False
2023-07-18,0.9469403799951029,0.9469403799951029,0.0,0,False
2023-07-19,0.9469403799951029,0.9469403799951029,0.0,0,False
2023-07-20,0.9469403799951029,0.9469403799951029,0.0,0,False
2023-07-21,0.9469403799951029,0.9469403799951029,0.0,0,False
2023-07-22,0.9469403799951029,0.9469403799951029,0.0,0,False
2023-07-23,0.9469403799951029,0.9469403799951029,0.0,0,False
2023-07-24,0.9469403799951029,0.9425725110586076,-0.4612612397538629,2,True
2023-07-25,0.9425725110586076,0.9423587286985675,-0.02268073358091538,0,True
2023-07-26,0.9423587286985675,0.9423587286985675,0.0,0,False
2023-07-27,0.9423587286985675,0.9423587286985675,0.0,0,False
2023-07-28,0.9423587286985675,0.9423587286985675,0.0,0,False
2023-07-29,0.9423587286985675,0.9423587286985675,0.0,0,False
2023-07-30,0.9423587286985675,0.9423587286985675,0.0,0,False
2023-07-31,0.9423587286985675,0.9423587286985675,0.0,0,False
2023-08-01,0.9423587286985675,0.9423587286985675,0.0,0,False
2023-08-02,0.9423587286985675,0.9423587286985675,0.0,0,False
2023-08-03,0.9423587286985675,0.9423587286985675,0.0,0,False
2023-08-04,0.9423587286985675,0.9423587286985675,0.0,0,False
2023-08-05,0.9423587286985675,0.9423587286985675,0.0,0,False
2023-08-06,0.9423587286985675,0.9423587286985675,0.0,0,False
2023-08-07,0.9423587286985675,0.9423587286985675,0.0,0,False
2023-08-08,0.9423587286985675,0.9423587286985675,0.0,0,False
2023-08-09,0.9423587286985675,0.9423587286985675,0.0,0,False
2023-08-10,0.9423587286985675,0.9423587286985675,0.0,0,False
2023-08-11,0.9423587286985675,0.9423587286985675,0.0,0,False
2023-08-12,0.9423587286985675,0.9423587286985675,0.0,0,False
2023-08-13,0.9423587286985675,0.9527278888532699,1.1003410738310349,1,True
2023-08-14,0.9527278888532699,0.9530586960752245,0.03472210962069955,1,True
2023-08-15,0.9530586960752245,0.9534378018778207,0.03977780216029014,0,True
2023-08-16,0.9534378018778207,0.9630725788948995,1.0105302095325897,4,True
2023-08-17,0.9630725788948995,0.9602597254680446,-0.2920707627334318,1,True
2023-08-18,0.9602597254680446,1.0187619684082736,6.092335374339908,4,True
2023-08-19,1.0187619684082736,1.038702395604399,1.9573195520127928,2,True
2023-08-20,1.038702395604399,1.0381426636522881,-0.05388761540163767,0,True
2023-08-21,1.0381426636522881,1.0381426636522881,0.0,0,False
2023-08-22,1.0381426636522881,1.0381426636522881,0.0,0,False
2023-08-23,1.0381426636522881,1.0381426636522881,0.0,0,False
2023-08-24,1.0381426636522881,1.0381426636522881,0.0,0,False
2023-08-25,1.0381426636522881,1.034094834820239,-0.3899106523383322,4,True
2023-08-26,1.034094834820239,1.036467250998781,0.22941959466939998,0,True
2023-08-27,1.036467250998781,1.036467250998781,0.0,0,False
2023-08-28,1.036467250998781,1.036467250998781,0.0,0,False
2023-08-29,1.036467250998781,1.0375359566096884,0.10311040796298077,1,True
2023-08-30,1.0375359566096884,1.0375359566096884,0.0,0,False
2023-08-31,1.0375359566096884,1.0375359566096884,0.0,0,False
2023-09-01,1.0375359566096884,1.0375359566096884,0.0,0,False
2023-09-02,1.0375359566096884,1.0702121952646417,3.149407829847939,3,True
2023-09-03,1.0702121952646417,1.100338259632835,2.8149617899601465,0,True
2023-09-04,1.100338259632835,1.099408225620944,-0.08452255510966733,1,True
2023-09-05,1.099408225620944,1.1082245747450028,0.8019176970482711,2,True
2023-09-06,1.1082245747450028,1.1233003738720684,1.3603559667077825,1,True
2023-09-07,1.1233003738720684,1.1233003738720684,0.0,0,False
2023-09-08,1.1233003738720684,1.1147996738929167,-0.7567610744977693,3,True
2023-09-09,1.1147996738929167,1.107636176970949,-0.6425815408567903,1,True
2023-09-10,1.107636176970949,1.0994250041200486,-0.7413240034607305,3,True
2023-09-11,1.0994250041200486,1.0949192744710528,-0.40982601197088186,1,True
2023-09-12,1.0949192744710528,1.0949192744710528,0.0,0,False
2023-09-13,1.0949192744710528,1.0894529022133792,-0.4992488839247411,1,True
2023-09-14,1.0894529022133792,1.0894529022133792,0.0,0,False
2023-09-15,1.0894529022133792,1.0894529022133792,0.0,0,False
2023-09-16,1.0894529022133792,1.0840061865780315,-0.49994961914203717,1,True
2023-09-17,1.0840061865780315,1.0896141462872446,0.5173365040393563,1,True
2023-09-18,1.0896141462872446,1.07337230230817,-1.4906050948785055,3,True
2023-09-19,1.07337230230817,1.07337230230817,0.0,0,False
2023-09-20,1.07337230230817,1.0769621472203335,0.3344454579686795,1,True
2023-09-21,1.0769621472203335,1.0815640796465094,0.42730679421312256,0,True
2023-09-22,1.0815640796465094,1.0815640796465094,0.0,0,False
2023-09-23,1.0815640796465094,1.0815640796465094,0.0,0,False
2023-09-24,1.0815640796465094,1.0815640796465094,0.0,0,False
2023-09-25,1.0815640796465094,1.0815640796465094,0.0,0,False
2023-09-26,1.0815640796465094,1.0827733647921889,0.11180892269229137,1,True
2023-09-27,1.0827733647921889,1.0753625543490954,-0.6844285871878464,1,True
2023-09-28,1.0753625543490954,1.0753625543490954,0.0,0,False
2023-09-29,1.0753625543490954,1.0753625543490954,0.0,0,False
2023-09-30,1.0753625543490954,1.0753625543490954,0.0,0,False
2023-10-01,1.0753625543490954,1.0753625543490954,0.0,0,False
2023-10-02,1.0753625543490954,1.0753625543490954,0.0,0,False
2023-10-03,1.0753625543490954,1.0756519973559988,0.02691585323784107,1,True
2023-10-04,1.0756519973559988,1.0699889714701731,-0.5264737944749465,0,True
2023-10-05,1.0699889714701731,1.0699889714701731,0.0,0,False
2023-10-06,1.0699889714701731,1.0699889714701731,0.0,0,False
2023-10-07,1.0699889714701731,1.0699889714701731,0.0,0,False
2023-10-08,1.0699889714701731,1.0699889714701731,0.0,0,False
2023-10-09,1.0699889714701731,1.0646414075378159,-0.49977748135194844,1,True
2023-10-10,1.0646414075378159,1.0646414075378159,0.0,0,False
2023-10-11,1.0646414075378159,1.0646414075378159,0.0,0,False
2023-10-12,1.0646414075378159,1.0646414075378159,0.0,0,False
2023-10-13,1.0646414075378159,1.0646414075378159,0.0,0,False
2023-10-14,1.0646414075378159,1.0646414075378159,0.0,0,False
2023-10-15,1.0646414075378159,1.0645117324160067,-0.012180168918007883,1,True
2023-10-16,1.0645117324160067,1.0655384441321372,0.09644907471335618,1,True
2023-10-17,1.0655384441321372,1.059502917322801,-0.5664297560142972,1,True
2023-10-18,1.059502917322801,1.059502917322801,0.0,0,False
2023-10-19,1.059502917322801,1.0489570135009667,-0.9953633585532917,2,True
2023-10-20,1.0489570135009667,1.0489570135009667,0.0,0,False
2023-10-21,1.0489570135009667,1.0500920639777307,0.10820753016138607,1,True
2023-10-22,1.0500920639777307,1.0500920639777307,0.0,0,False
2023-10-23,1.0500920639777307,1.0500920639777307,0.0,0,False
2023-10-24,1.0500920639777307,1.0448491809032405,-0.4992784208491363,1,True
2023-10-25,1.0448491809032405,1.04520706674743,0.03425239266399149,1,True
2023-10-26,1.04520706674743,1.0614045054456172,1.5496870633100235,5,True
2023-10-27,1.0614045054456172,1.0582836097964796,-0.2940345205928119,2,True
2023-10-28,1.0582836097964796,1.064560249173468,0.5930961529486023,1,True
2023-10-29,1.064560249173468,1.064560249173468,0.0,0,False
2023-10-30,1.064560249173468,1.064560249173468,0.0,0,False
2023-10-31,1.064560249173468,1.064560249173468,0.0,0,False
2023-11-01,1.064560249173468,1.064560249173468,0.0,0,False
2023-11-02,1.064560249173468,1.064560249173468,0.0,0,False
2023-11-03,1.064560249173468,1.0592456799412886,-0.49922672167269644,1,True
2023-11-04,1.0592456799412886,1.0592456799412886,0.0,0,False
2023-11-05,1.0592456799412886,1.0707738168956098,1.088334573614702,1,True
2023-11-06,1.0707738168956098,1.0728659029272585,0.19538076096350387,1,True
2023-11-07,1.0728659029272585,1.066628932334251,-0.5813373857804782,1,True
2023-11-08,1.066628932334251,1.066628932334251,0.0,0,False
2023-11-09,1.066628932334251,1.074333283221048,0.7223084479750952,4,True
2023-11-10,1.074333283221048,1.0858942711871722,1.0761081450871846,4,True
2023-11-11,1.0858942711871722,1.0858942711871722,0.0,0,False
2023-11-12,1.0858942711871722,1.0858942711871722,0.0,0,False
2023-11-13,1.0858942711871722,1.0847984981409369,-0.10090973636294187,1,True
2023-11-14,1.0847984981409369,1.0924075549428223,0.7014258237751481,1,True
2023-11-15,1.0924075549428223,1.0924075549428223,0.0,0,False
2023-11-16,1.0924075549428223,1.0924075549428223,0.0,0,False
2023-11-17,1.0924075549428223,1.0903431666046912,-0.18897602170456773,1,True
2023-11-18,1.0903431666046912,1.0821857642803414,-0.7481499929744007,2,True
2023-11-19,1.0821857642803414,1.0826952212876482,0.0470766687312274,0,True
2023-11-20,1.0826952212876482,1.0851280646702144,0.22470251412700648,1,True
2023-11-21,1.0851280646702144,1.079687183737276,-0.5014044987023736,0,True
2023-11-22,1.079687183737276,1.0742947443459314,-0.49944460511968103,1,True
2023-11-23,1.0742947443459314,1.0742947443459314,0.0,0,False
2023-11-24,1.0742947443459314,1.0742947443459314,0.0,0,False
2023-11-25,1.0742947443459314,1.0709291857984578,-0.3132807421042272,1,True
2023-11-26,1.0709291857984578,1.0709291857984578,0.0,0,False
2023-11-27,1.0709291857984578,1.0625146417990166,-0.7857236604460915,2,True
2023-11-28,1.0625146417990166,1.0572082571207886,-0.4994175580718019,1,True
2023-11-29,1.0572082571207886,1.0466349270800868,-1.0001179965712037,2,True
2023-11-30,1.0466349270800868,1.044368747943445,-0.21652049611644575,1,True
2023-12-01,1.044368747943445,1.044368747943445,0.0,0,False
2023-12-02,1.044368747943445,1.0533573131498468,0.8606696843525885,1,True
2023-12-03,1.0533573131498468,1.0520860261186304,-0.12068905919633277,1,True
2023-12-04,1.0520860261186304,1.0594123677264473,0.6963633605937547,5,True
2023-12-05,1.0594123677264473,1.0696892815376702,0.9700579419586797,1,True
2023-12-06,1.0696892815376702,1.0633607062079338,-0.5916274416285727,0,True
2023-12-07,1.0633607062079338,1.058052629593961,-0.49917930792290344,1,True
2023-12-08,1.058052629593961,1.058052629593961,0.0,0,False
2023-12-09,1.058052629593961,1.058052629593961,0.0,0,False
2023-12-10,1.058052629593961,1.058052629593961,0.0,0,False
2023-12-11,1.058052629593961,1.0761898553828908,1.7142082805361225,4,True
2023-12-12,1.0761898553828908,1.0761898553828908,0.0,0,False
2023-12-13,1.0761898553828908,1.0750686836739238,-0.10417973216891863,1,True
2023-12-14,1.0750686836739238,1.0750686836739238,0.0,0,False
2023-12-15,1.0750686836739238,1.0750686836739238,0.0,0,False
2023-12-16,1.0750686836739238,1.0729264634456355,-0.19926356899985231,1,True
2023-12-17,1.0729264634456355,1.0675700088062294,-0.4992378156284949,1,True
2023-12-18,1.0675700088062294,1.0728802684181258,0.49741558568456856,1,True
2023-12-19,1.0728802684181258,1.0690465894439964,-0.3573258905937182,0,True
2023-12-20,1.0690465894439964,1.0690465894439964,0.0,0,False
2023-12-21,1.0690465894439964,1.063708899510167,-0.4992944167761304,1,True
2023-12-22,1.063708899510167,1.063708899510167,0.0,0,False
2023-12-23,1.063708899510167,1.063708899510167,0.0,0,False
2023-12-24,1.063708899510167,1.0613537423561317,-0.22140993227750538,1,True
2023-12-25,1.0613537423561317,1.0584024189518697,-0.2780716067114608,0,True
2023-12-26,1.0584024189518697,1.0584024189518697,0.0,0,False
2023-12-27,1.0584024189518697,1.0494338658537494,-0.8473670257671762,2,True
2023-12-28,1.0494338658537494,1.0515251647611472,0.19927877072047906,1,True
2023-12-29,1.0515251647611472,1.0443613581946178,-0.6812777103776368,1,True
2023-12-30,1.0443613581946178,1.04932046868925,0.4748462259466457,2,True
2023-12-31,1.04932046868925,1.0400469265879542,-0.8837664353274155,1,True
