day,start_equity,end_equity,return_pct,entries,active
2024-01-02,1.0,1.0,0.0,0,False
2024-01-03,1.0,1.0101188661844145,1.0118866184414488,4,True
2024-01-04,1.0101188661844145,1.0120595486172979,0.19212416457619064,1,True
2024-01-05,1.0120595486172979,1.0120595486172979,0.0,0,False
2024-01-06,1.0120595486172979,1.0120595486172979,0.0,0,False
2024-01-07,1.0120595486172979,1.0120595486172979,0.0,0,False
2024-01-08,1.0120595486172979,1.0091602977803087,-0.2864703802212265,1,True
2024-01-09,1.0091602977803087,1.0091902037021978,0.002963446139814252,0,True
2024-01-10,1.0091902037021978,1.0082775905138457,-0.09043024644950215,1,True
2024-01-11,1.0082775905138457,1.0082775905138457,0.0,0,False
2024-01-12,1.0082775905138457,1.0082775905138457,0.0,0,False
2024-01-13,1.0082775905138457,1.0082775905138457,0.0,0,False
2024-01-14,1.0082775905138457,1.0082775905138457,0.0,0,False
2024-01-15,1.0082775905138457,1.0082775905138457,0.0,0,False
2024-01-16,1.0082775905138457,1.0082775905138457,0.0,0,False
2024-01-17,1.0082775905138457,1.0082775905138457,0.0,0,False
2024-01-18,1.0082775905138457,1.0082775905138457,0.0,0,False
2024-01-19,1.0082775905138457,1.0082775905138457,0.0,0,False
2024-01-20,1.0082775905138457,1.0082775905138457,0.0,0,False
2024-01-21,1.0082775905138457,1.0082775905138457,0.0,0,False
2024-01-22,1.0082775905138457,1.0082775905138457,0.0,0,False
2024-01-23,1.0082775905138457,0.9982409229106435,-0.9954270230370987,2,True
2024-01-24,0.9982409229106435,0.9982409229106435,0.0,0,False
2024-01-25,0.9982409229106435,0.9982409229106435,0.0,0,False
2024-01-26,0.9982409229106435,0.9982409229106435,0.0,0,False
2024-01-27,0.9982409229106435,0.9982409229106435,0.0,0,False
2024-01-28,0.9982409229106435,0.9950590910304824,-0.31874388307819856,2,True
2024-01-29,0.9950590910304824,0.9949829296073611,-0.007653959830911106,0,True
2024-01-30,0.9949829296073611,0.9949829296073611,0.0,0,False
2024-01-31,0.9949829296073611,0.9949829296073611,0.0,0,False
2024-02-01,0.9949829296073611,0.9949829296073611,0.0,0,False
2024-02-02,0.9949829296073611,0.9949829296073611,0.0,0,False
2024-02-03,0.9949829296073611,0.9949829296073611,0.0,0,False
2024-02-04,0.9949829296073611,0.9949829296073611,0.0,0,False
2024-02-05,0.9949829296073611,0.9949829296073611,0.0,0,False
2024-02-06,0.9949829296073611,0.9883077387511285,-0.6708849627065194,2,True
2024-02-07,0.9883077387511285,0.9850736421657599,-0.327235784822999,0,True
2024-02-08,0.9850736421657599,0.9850736421657599,0.0,0,False
2024-02-09,0.9850736421657599,0.9850736421657599,0.0,0,False
2024-02-10,0.9850736421657599,0.9850736421657599,0.0,0,False
2024-02-11,0.9850736421657599,0.9850736421657599,0.0,0,False
2024-02-12,0.9850736421657599,0.9850736421657599,0.0,0,False
2024-02-13,0.9850736421657599,0.9850736421657599,0.0,0,False
2024-02-14,0.9850736421657599,0.9850736421657599,0.0,0,False
2024-02-15,0.9850736421657599,0.9943969336904488,0.9464562978449997,1,True
2024-02-16,0.9943969336904488,0.9943969336904488,0.0,0,False
2024-02-17,0.9943969336904488,0.9943969336904488,0.0,0,False
2024-02-18,0.9943969336904488,0.9943969336904488,0.0,0,False
2024-02-19,0.9943969336904488,0.9943969336904488,0.0,0,False
2024-02-20,0.9943969336904488,0.9943969336904488,0.0,0,False
2024-02-21,0.9943969336904488,1.0121062030686683,1.7809054692572435,5,True
2024-02-22,1.0121062030686683,1.0251931309071936,1.2930389912487739,1,True
2024-02-23,1.0251931309071936,1.0251931309071936,0.0,0,False
2024-02-24,1.0251931309071936,1.0251931309071936,0.0,0,False
2024-02-25,1.0251931309071936,1.0251931309071936,0.0,0,False
2024-02-26,1.0251931309071936,1.0240335327718149,-0.11311021313150649,1,True
2024-02-27,1.0240335327718149,1.0229580156986922,-0.10502752485179734,1,True
2024-02-28,1.0229580156986922,1.0229580156986922,0.0,0,False
2024-02-29,1.0229580156986922,1.030995648384126,0.7857245910472876,2,True
2024-03-01,1.030995648384126,1.030995648384126,0.0,0,False
2024-03-02,1.030995648384126,1.030995648384126,0.0,0,False
2024-03-03,1.030995648384126,1.047330676774358,1.5843935341369964,4,True
2024-03-04,1.047330676774358,1.0502924856577252,0.28279596397282614,0,True
2024-03-05,1.0502924856577252,1.0500198653911639,-0.025956604496746305,1,True
2024-03-06,1.0500198653911639,1.057508617829779,0.7132010246134968,1,True
2024-03-07,1.057508617829779,1.0553678881634057,-0.20243141571427703,2,True
2024-03-08,1.0553678881634057,1.0563255166610654,0.09073883224988144,0,True
2024-03-09,1.0563255166610654,1.0563255166610654,0.0,0,False
2024-03-10,1.0563255166610654,1.0563255166610654,0.0,0,False
2024-03-11,1.0563255166610654,1.0563255166610654,0.0,0,False
2024-03-12,1.0563255166610654,1.0663632570968289,0.9502506829042412,1,True
2024-03-13,1.0663632570968289,1.0663632570968289,0.0,0,False
2024-03-14,1.0663632570968289,1.0663632570968289,0.0,0,False
2024-03-15,1.0663632570968289,1.0663632570968289,0.0,0,False
2024-03-16,1.0663632570968289,1.0663632570968289,0.0,0,False
2024-03-17,1.0663632570968289,1.063630950895376,-0.25622658913544427,1,True
2024-03-18,1.063630950895376,1.0629985039235463,-0.059461129003191004,1,True
2024-03-19,1.0629985039235463,1.0538324199460103,-0.8622856893686914,1,True
2024-03-20,1.0538324199460103,1.0538324199460103,0.0,0,False
2024-03-21,1.0538324199460103,1.043334307638404,-0.9961842233079166,2,True
2024-03-22,1.043334307638404,1.043334307638404,0.0,0,False
2024-03-23,1.043334307638404,1.0447842807434715,0.13897492821350887,1,True
2024-03-24,1.0447842807434715,1.0447842807434715,0.0,0,False
2024-03-25,1.0447842807434715,1.0447842807434715,0.0,0,False
2024-03-26,1.0447842807434715,1.0485774962970424,0.36306208118594974,1,True
2024-03-27,1.0485774962970424,1.0471389131477455,-0.13719378437713203,2,True
2024-03-28,1.0471389131477455,1.0471389131477455,0.0,0,False
2024-03-29,1.0471389131477455,1.0419102145041348,-0.49933190123677695,1,True
2024-03-30,1.0419102145041348,1.0419102145041348,0.0,0,False
2024-03-31,1.0419102145041348,1.0419102145041348,0.0,0,False
2024-04-01,1.0419102145041348,1.0419102145041348,0.0,0,False
2024-04-02,1.0419102145041348,1.0419102145041348,0.0,0,False
2024-04-03,1.0419102145041348,1.0419102145041348,0.0,0,False
2024-04-04,1.0419102145041348,1.0419102145041348,0.0,0,False
2024-04-05,1.0419102145041348,1.0411720816247358,-0.07084419263038155,2,True
2024-04-06,1.0411720816247358,1.0393172861375073,-0.17814495028853905,0,True
2024-04-07,1.0393172861375073,1.0424732413661566,0.30365657059145956,1,True
2024-04-08,1.0424732413661566,1.041767721695948,-0.0676774848708872,0,True
2024-04-09,1.041767721695948,1.039401733625643,-0.22711282189213922,1,True
2024-04-10,1.039401733625643,1.0313859453413086,-0.7711925067099612,1,True
2024-04-11,1.0313859453413086,1.0313859453413086,0.0,0,False
2024-04-12,1.0313859453413086,1.041009069837032,0.9330284690411306,1,True
2024-04-13,1.041009069837032,1.0157565677053706,-2.4257715771501043,8,True
2024-04-14,1.0157565677053706,0.9953692892609429,-2.0071027933871277,5,True
2024-04-15,0.9953692892609429,0.9973021160760014,0.1941818816304508,1,True
2024-04-16,0.9973021160760014,0.9903945712935773,-0.69262309495568,0,True
2024-04-17,0.9903945712935773,0.9877345073495394,-0.268586280775307,1,True
2024-04-18,0.9877345073495394,0.9879528130812817,0.022101660933970813,0,True
2024-04-19,0.9879528130812817,0.9879528130812817,0.0,0,False
2024-04-20,0.9879528130812817,0.9879528130812817,0.0,0,False
2024-04-21,0.9879528130812817,0.9879528130812817,0.0,0,False
2024-04-22,0.9879528130812817,0.9879528130812817,0.0,0,False
2024-04-23,0.9879528130812817,0.9879528130812817,0.0,0,False
2024-04-24,0.9879528130812817,0.9879528130812817,0.0,0,False
2024-04-25,0.9879528130812817,0.9951955263318676,0.733103155807302,1,True
2024-04-26,0.9951955263318676,0.9972283318256389,0.20426192039506574,0,True
2024-04-27,0.9972283318256389,0.9922461432734375,-0.49960359059197934,1,True
2024-04-28,0.9922461432734375,0.9922461432734375,0.0,0,False
2024-04-29,0.9922461432734375,1.0014833208554366,0.9309361033669861,1,True
2024-04-30,1.0014833208554366,1.0014833208554366,0.0,0,False
2024-05-01,1.0014833208554366,1.0014833208554366,0.0,0,False
2024-05-02,1.0014833208554366,1.0014833208554366,0.0,0,False
2024-05-03,1.0014833208554366,1.0014833208554366,0.0,0,False
2024-05-04,1.0014833208554366,1.0014833208554366,0.0,0,False
2024-05-05,1.0014833208554366,1.0014833208554366,0.0,0,False
2024-05-06,1.0014833208554366,1.0014833208554366,0.0,0,False
2024-05-07,1.0014833208554366,0.9987485916087534,-0.27306787739083127,1,True
2024-05-08,0.9987485916087534,0.9987556262140008,0.0007043419441687959,0,True
2024-05-09,0.9987556262140008,0.9960527986430922,-0.27061950891373865,1,True
2024-05-10,0.9960527986430922,0.9960527986430922,0.0,0,False
2024-05-11,0.9960527986430922,0.9964062613921387,0.035486346660351664,1,True
2024-05-12,0.9964062613921387,0.9910782276790563,-0.5347250333050169,0,True
2024-05-13,0.9910782276790563,1.0004017622729136,0.9407465862398601,1,True
2024-05-14,1.0004017622729136,1.0004017622729136,0.0,0,False
2024-05-15,1.0004017622729136,1.0004017622729136,0.0,0,False
2024-05-16,1.0004017622729136,1.0004017622729136,0.0,0,False
2024-05-17,1.0004017622729136,1.0004017622729136,0.0,0,False
2024-05-18,1.0004017622729136,1.0004017622729136,0.0,0,False
2024-05-19,1.0004017622729136,1.0004017622729136,0.0,0,False
2024-05-20,1.0004017622729136,1.0004017622729136,0.0,0,False
2024-05-21,1.0004017622729136,1.0004017622729136,0.0,0,False
2024-05-22,1.0004017622729136,1.0004017622729136,0.0,0,False
2024-05-23,1.0004017622729136,1.0097721289637602,0.9366603542917851,1,True
2024-05-24,1.0097721289637602,1.0128220355333486,0.30203909199972845,1,True
2024-05-25,1.0128220355333486,1.0128220355333486,0.0,0,False
2024-05-26,1.0128220355333486,1.0128220355333486,0.0,0,False
2024-05-27,1.0128220355333486,1.0128220355333486,0.0,0,False
2024-05-28,1.0128220355333486,1.0128220355333486,0.0,0,False
2024-05-29,1.0128220355333486,1.0128220355333486,0.0,0,False
2024-05-30,1.0128220355333486,1.0128220355333486,0.0,0,False
2024-05-31,1.0128220355333486,1.0128220355333486,0.0,0,False
2024-06-01,1.0128220355333486,1.0128220355333486,0.0,0,False
2024-06-02,1.0128220355333486,1.0128220355333486,0.0,0,False
2024-06-03,1.0128220355333486,1.0041823328293074,-0.853032655385666,3,True
2024-06-04,1.0041823328293074,1.0053558177957056,0.11685975026984874,1,True
2024-06-05,1.0053558177957056,1.0053558177957056,0.0,0,False
2024-06-06,1.0053558177957056,1.000335542763762,-0.49935305919359685,1,True
2024-06-07,1.000335542763762,1.000335542763762,0.0,0,False
2024-06-08,1.000335542763762,1.0268161249427197,2.6471699791648096,5,True
2024-06-09,1.0268161249427197,1.0268161249427197,0.0,0,False
2024-06-10,1.0268161249427197,1.0268161249427197,0.0,0,False
2024-06-11,1.0268161249427197,1.0268161249427197,0.0,0,False
2024-06-12,1.0268161249427197,1.0268161249427197,0.0,0,False
2024-06-13,1.0268161249427197,1.0194268332258458,-0.7196314449469776,2,True
2024-06-14,1.0194268332258458,1.0143377899961332,-0.49920632495115136,1,True
2024-06-15,1.0143377899961332,1.0233920680440534,0.8926294708939686,1,True
2024-06-16,1.0233920680440534,1.0233920680440534,0.0,0,False
2024-06-17,1.0233920680440534,1.0233920680440534,0.0,0,False
2024-06-18,1.0233920680440534,1.031408772769549,0.783346380709915,4,True
2024-06-19,1.031408772769549,1.031408772769549,0.0,0,False
2024-06-20,1.031408772769549,1.031408772769549,0.0,0,False
2024-06-21,1.031408772769549,1.031408772769549,0.0,0,False
2024-06-22,1.031408772769549,1.031408772769549,0.0,0,False
2024-06-23,1.031408772769549,1.04040920176021,0.8726345197251906,1,True
2024-06-24,1.04040920176021,1.0408477381761618,0.04215037844819136,1,True
2024-06-25,1.0408477381761618,1.0502542930190328,0.9037397592229768,0,True
2024-06-26,1.0502542930190328,1.0502542930190328,0.0,0,False
2024-06-27,1.0502542930190328,1.0506801303182232,0.04054611364321392,1,True
2024-06-28,1.0506801303182232,1.0450040232449527,-0.5402316946406249,0,True
2024-06-29,1.0450040232449527,1.0345986974436574,-0.9957211235402275,2,True
2024-06-30,1.0345986974436574,1.0345986974436574,0.0,0,False
2024-07-01,1.0345986974436574,1.0345986974436574,0.0,0,False
2024-07-02,1.0345986974436574,1.0345986974436574,0.0,0,False
2024-07-03,1.0345986974436574,1.0345986974436574,0.0,0,False
2024-07-04,1.0345986974436574,1.0345986974436574,0.0,0,False
2024-07-05,1.0345986974436574,1.0529057441846519,1.7694828715934419,5,True
2024-07-06,1.0529057441846519,1.0529057441846519,0.0,0,False
2024-07-07,1.0529057441846519,1.0504074791427966,-0.23727337946948257,1,True
2024-07-08,1.0504074791427966,1.0476412154637285,-0.2633514834952999,0,True
2024-07-09,1.0476412154637285,1.0476412154637285,0.0,0,False
2024-07-10,1.0476412154637285,1.0476412154637285,0.0,0,False
2024-07-11,1.0476412154637285,1.0476412154637285,0.0,0,False
2024-07-12,1.0476412154637285,1.0476412154637285,0.0,0,False
2024-07-13,1.0476412154637285,1.0476412154637285,0.0,0,False
2024-07-14,1.0476412154637285,1.0476412154637285,0.0,0,False
2024-07-15,1.0476412154637285,1.0476412154637285,0.0,0,False
2024-07-16,1.0476412154637285,1.0424058964051863,-0.49972442676615714,1,True
2024-07-17,1.0424058964051863,1.037201419912897,-0.49927542718603,1,True
2024-07-18,1.037201419912897,1.037201419912897,0.0,0,False
2024-07-19,1.037201419912897,1.037201419912897,0.0,0,False
2024-07-20,1.037201419912897,1.03868965450222,0.14348559120251902,1,True
2024-07-21,1.03868965450222,1.03868965450222,0.0,0,False
2024-07-22,1.03868965450222,1.03868965450222,0.0,0,False
2024-07-23,1.03868965450222,1.033497762574125,-0.4998501627113128,1,True
2024-07-24,1.033497762574125,1.033497762574125,0.0,0,False
2024-07-25,1.033497762574125,1.033497762574125,0.0,0,False
2024-07-26,1.033497762574125,1.033497762574125,0.0,0,False
2024-07-27,1.033497762574125,1.033497762574125,0.0,0,False
2024-07-28,1.033497762574125,1.033497762574125,0.0,0,False
2024-07-29,1.033497762574125,1.033497762574125,0.0,0,False
2024-07-30,1.033497762574125,1.033497762574125,0.0,0,False
2024-07-31,1.033497762574125,1.0283380653146863,-0.4992460986647518,1,True
2024-08-01,1.0283380653146863,1.0283380653146863,0.0,0,False
2024-08-02,1.0283380653146863,1.0283380653146863,0.0,0,False
2024-08-03,1.0283380653146863,1.0232051911851356,-0.49914267522324085,1,True
2024-08-04,1.0232051911851356,1.0232051911851356,0.0,0,False
2024-08-05,1.0232051911851356,1.0027734627096165,-1.9968358889827287,4,True
2024-08-06,1.0027734627096165,1.0027734627096165,0.0,0,False
2024-08-07,1.0027734627096165,1.0027734627096165,0.0,0,False
2024-08-08,1.0027734627096165,1.0027734627096165,0.0,0,False
2024-08-09,1.0027734627096165,1.0027734627096165,0.0,0,False
2024-08-10,1.0027734627096165,1.0027734627096165,0.0,0,False
2024-08-11,1.0027734627096165,1.0027734627096165,0.0,0,False
2024-08-12,1.0027734627096165,1.0027734627096165,0.0,0,False
2024-08-13,1.0027734627096165,1.0027734627096165,0.0,0,False
2024-08-14,1.0027734627096165,1.0027734627096165,0.0,0,False
2024-08-15,1.0027734627096165,1.0027734627096165,0.0,0,False
2024-08-16,1.0027734627096165,1.0027734627096165,0.0,0,False
2024-08-17,1.0027734627096165,1.0027734627096165,0.0,0,False
2024-08-18,1.0027734627096165,1.0027734627096165,0.0,0,False
2024-08-19,1.0027734627096165,1.0027734627096165,0.0,0,False
2024-08-20,1.0027734627096165,1.0027734627096165,0.0,0,False
2024-08-21,1.0027734627096165,1.0027734627096165,0.0,0,False
2024-08-22,1.0027734627096165,1.0027734627096165,0.0,0,False
2024-08-23,1.0027734627096165,1.0027734627096165,0.0,0,False
2024-08-24,1.0027734627096165,1.0027734627096165,0.0,0,False
2024-08-25,1.0027734627096165,1.0027734627096165,0.0,0,False
2024-08-26,1.0027734627096165,1.0027734627096165,0.0,0,False
2024-08-27,1.0027734627096165,1.0027734627096165,0.0,0,False
2024-08-28,1.0027734627096165,1.0027734627096165,0.0,0,False
2024-08-29,1.0027734627096165,0.9977695801305868,-0.4990042881179435,1,True
2024-08-30,0.9977695801305868,0.9977695801305868,0.0,0,False
2024-08-31,0.9977695801305868,0.9977695801305868,0.0,0,False
2024-09-01,0.9977695801305868,0.9927982227602193,-0.49824703712822993,1,True
2024-09-02,0.9927982227602193,0.9927982227602193,0.0,0,False
2024-09-03,0.9927982227602193,0.9927982227602193,0.0,0,False
2024-09-04,0.9927982227602193,0.9927982227602193,0.0,0,False
2024-09-05,0.9927982227602193,0.9927982227602193,0.0,0,False
2024-09-06,0.9927982227602193,0.9927982227602193,0.0,0,False
2024-09-07,0.9927982227602193,0.9927982227602193,0.0,0,False
2024-09-08,0.9927982227602193,0.9927982227602193,0.0,0,False
2024-09-09,0.9927982227602193,0.9927982227602193,0.0,0,False
2024-09-10,0.9927982227602193,0.9927982227602193,0.0,0,False
2024-09-11,0.9927982227602193,0.9927982227602193,0.0,0,False
2024-09-12,0.9927982227602193,0.9927982227602193,0.0,0,False
2024-09-13,0.9927982227602193,0.9927982227602193,0.0,0,False
2024-09-14,0.9927982227602193,0.9927982227602193,0.0,0,False
2024-09-15,0.9927982227602193,0.9927982227602193,0.0,0,False
2024-09-16,0.9927982227602193,0.9927982227602193,0.0,0,False
2024-09-17,0.9927982227602193,0.9927982227602193,0.0,0,False
2024-09-18,0.9927982227602193,0.9927982227602193,0.0,0,False
2024-09-19,0.9927982227602193,0.9923151587905258,-0.04865681249414111,1,True
2024-09-20,0.9923151587905258,0.9950276498634502,0.2733497567678489,1,True
2024-09-21,0.9950276498634502,0.9863369410529755,-0.8734138002765346,1,True
2024-09-22,0.9863369410529755,0.9956872951861343,0.9479878268755293,1,True
2024-09-23,0.9956872951861343,0.9956872951861343,0.0,0,False
2024-09-24,0.9956872951861343,0.9956872951861343,0.0,0,False
2024-09-25,0.9956872951861343,0.9956872951861343,0.0,0,False
2024-09-26,0.9956872951861343,0.9956872951861343,0.0,0,False
2024-09-27,0.9956872951861343,0.9956872951861343,0.0,0,False
2024-09-28,0.9956872951861343,0.9956872951861343,0.0,0,False
2024-09-29,0.9956872951861343,0.9956872951861343,0.0,0,False
2024-09-30,0.9956872951861343,0.9956872951861343,0.0,0,False
2024-10-01,0.9956872951861343,0.9956872951861343,0.0,0,False
2024-10-02,0.9956872951861343,0.9956872951861343,0.0,0,False
2024-10-03,0.9956872951861343,1.005068278647486,0.9421616110505848,1,True
2024-10-04,1.005068278647486,1.005068278647486,0.0,0,False
2024-10-05,1.005068278647486,1.005068278647486,0.0,0,False
2024-10-06,1.005068278647486,1.005068278647486,0.0,0,False
2024-10-07,1.005068278647486,1.005068278647486,0.0,0,False
2024-10-08,1.005068278647486,1.005068278647486,0.0,0,False
2024-10-09,1.005068278647486,1.005068278647486,0.0,0,False
2024-10-10,1.005068278647486,1.005068278647486,0.0,0,False
2024-10-11,1.005068278647486,1.004081975604372,-0.09813293923088828,1,True
2024-10-12,1.004081975604372,1.0048030061349542,0.07180992668933683,0,True
2024-10-13,1.0048030061349542,1.0048030061349542,0.0,0,False
2024-10-14,1.0048030061349542,1.0048030061349542,0.0,0,False
2024-10-15,1.0048030061349542,1.0048030061349542,0.0,0,False
2024-10-16,1.0048030061349542,1.0048030061349542,0.0,0,False
2024-10-17,1.0048030061349542,1.0048030061349542,0.0,0,False
2024-10-18,1.0048030061349542,1.0053410708551764,0.053549274528141844,1,True
2024-10-19,1.0053410708551764,1.0014598585304875,-0.3860592625930859,1,True
2024-10-20,1.0014598585304875,1.0014598585304875,0.0,0,False
2024-10-21,1.0014598585304875,1.01097764694387,0.9503914043393236,1,True
2024-10-22,1.01097764694387,1.01097764694387,0.0,0,False
2024-10-23,1.01097764694387,1.0059295270803947,-0.4993305122754643,1,True
2024-10-24,1.0059295270803947,1.0009069882953536,-0.4992933053291071,1,True
2024-10-25,1.0009069882953536,1.0037797801143777,0.28701885915660696,1,True
2024-10-26,1.0037797801143777,1.013966450431582,1.0148311929578213,2,True
2024-10-27,1.013966450431582,1.013966450431582,0.0,0,False
2024-10-28,1.013966450431582,1.013966450431582,0.0,0,False
2024-10-29,1.013966450431582,1.013966450431582,0.0,0,False
2024-10-30,1.013966450431582,1.013966450431582,0.0,0,False
2024-10-31,1.013966450431582,1.013966450431582,0.0,0,False
2024-11-01,1.013966450431582,1.013966450431582,0.0,0,False
2024-11-02,1.013966450431582,1.013966450431582,0.0,0,False
2024-11-03,1.013966450431582,1.013966450431582,0.0,0,False
2024-11-04,1.013966450431582,1.013966450431582,0.0,0,False
2024-11-05,1.013966450431582,1.013966450431582,0.0,0,False
2024-11-06,1.013966450431582,1.013966450431582,0.0,0,False
2024-11-07,1.013966450431582,1.013966450431582,0.0,0,False
2024-11-08,1.013966450431582,1.013966450431582,0.0,0,False
2024-11-09,1.013966450431582,1.012372836417568,-0.15716634542846109,1,True
2024-11-10,1.012372836417568,1.0150121515465507,0.26070584216011383,0,True
2024-11-11,1.0150121515465507,1.0140515104190915,-0.09464331298847384,1,True
2024-11-12,1.0140515104190915,1.0153094071505684,0.12404663062501875,0,True
2024-11-13,1.0153094071505684,1.0153094071505684,0.0,0,False
2024-11-14,1.0153094071505684,1.0153094071505684,0.0,0,False
2024-11-15,1.0153094071505684,1.0153094071505684,0.0,0,False
2024-11-16,1.0153094071505684,1.0153094071505684,0.0,0,False
2024-11-17,1.0153094071505684,1.0153094071505684,0.0,0,False
2024-11-18,1.0153094071505684,1.0153094071505684,0.0,0,False
2024-11-19,1.0153094071505684,1.0153094071505684,0.0,0,False
2024-11-20,1.0153094071505684,1.0153094071505684,0.0,0,False
2024-11-21,1.0153094071505684,1.0153094071505684,0.0,0,False
2024-11-22,1.0153094071505684,1.0153094071505684,0.0,0,False
2024-11-23,1.0153094071505684,1.0190275566099984,0.36620851074993244,1,True
2024-11-24,1.0190275566099984,1.0318847429999651,1.2617113547683356,4,True
2024-11-25,1.0318847429999651,1.0319813466561525,0.00936186496047764,1,True
2024-11-26,1.0319813466561525,1.0319813466561525,0.0,0,False
2024-11-27,1.0319813466561525,1.0319813466561525,0.0,0,False
2024-11-28,1.0319813466561525,1.0319813466561525,0.0,0,False
2024-11-29,1.0319813466561525,1.0319813466561525,0.0,0,False
2024-11-30,1.0319813466561525,1.0319813466561525,0.0,0,False
2024-12-01,1.0319813466561525,1.0319813466561525,0.0,0,False
2024-12-02,1.0319813466561525,1.0319813466561525,0.0,0,False
2024-12-03,1.0319813466561525,1.0319813466561525,0.0,0,False
2024-12-04,1.0319813466561525,1.0319813466561525,0.0,0,False
2024-12-05,1.0319813466561525,1.0362712933247253,0.4157000203999006,1,True
2024-12-06,1.0362712933247253,1.0362712933247253,0.0,0,False
2024-12-07,1.0362712933247253,1.0362712933247253,0.0,0,False
2024-12-08,1.0362712933247253,1.0362712933247253,0.0,0,False
2024-12-09,1.0362712933247253,1.0310908197201267,-0.49991480396777144,1,True
2024-12-10,1.0310908197201267,1.0310908197201267,0.0,0,False
2024-12-11,1.0310908197201267,1.0310908197201267,0.0,0,False
2024-12-12,1.0310908197201267,1.0310908197201267,0.0,0,False
2024-12-13,1.0310908197201267,1.0310908197201267,0.0,0,False
2024-12-14,1.0310908197201267,1.0310908197201267,0.0,0,False
2024-12-15,1.0310908197201267,1.0246920872309682,-0.6205789409409523,2,True
2024-12-16,1.0246920872309682,1.020819676887079,-0.3779096561927764,0,True
2024-12-17,1.020819676887079,1.020819676887079,0.0,0,False
2024-12-18,1.020819676887079,1.020819676887079,0.0,0,False
2024-12-19,1.020819676887079,1.020819676887079,0.0,0,False
2024-12-20,1.020819676887079,1.0160419176207358,-0.4680316587266975,2,True
2024-12-21,1.0160419176207358,1.0160419176207358,0.0,0,False
2024-12-22,1.0160419176207358,1.0160419176207358,0.0,0,False
2024-12-23,1.0160419176207358,1.0160419176207358,0.0,0,False
2024-12-24,1.0160419176207358,1.0160419176207358,0.0,0,False
2024-12-25,1.0160419176207358,1.023224712062665,0.7069387903551272,1,True
2024-12-26,1.023224712062665,1.025618857605439,0.23398042624946935,0,True
2024-12-27,1.025618857605439,1.025618857605439,0.0,0,False
2024-12-28,1.025618857605439,1.025618857605439,0.0,0,False
2024-12-29,1.025618857605439,1.025618857605439,0.0,0,False
2024-12-30,1.025618857605439,1.025618857605439,0.0,0,False
2024-12-31,1.025618857605439,1.025618857605439,0.0,0,False
