day,start_equity,end_equity,return_pct,entries,active
2024-01-02,1.00371343555889,0.9922079032340996,-1.1462965341680231,1,True
2024-01-03,0.9922079032340996,0.9874631006405894,-0.4782064905998529,10,True
2024-01-04,0.9874631006405894,0.9992862020756346,1.1973208343051267,0,True
2024-01-05,0.9992862020756346,0.9993589903644156,0.007284028202314552,8,True
2024-01-06,0.9993589903644156,1.0089128630242716,0.9560000712429018,7,True
2024-01-07,1.0089128630242716,1.0482741658929082,3.9013580172472917,7,True
2024-01-08,1.0482741658929082,1.0155344274215308,-3.123203789295914,12,True
2024-01-09,1.0155344274215308,1.0219719758804091,0.6339074565126612,4,True
2024-01-10,1.0219719758804091,0.9964520640646963,-2.4971244239576973,5,True
2024-01-11,0.9964520640646963,1.0390438411131326,4.274342799260933,5,True
2024-01-12,1.0390438411131326,1.0315685642705947,-0.7194380589879201,6,True
2024-01-13,1.0315685642705947,1.0272613618619493,-0.41753913000354137,7,True
2024-01-14,1.0272613618619493,1.0246844056011264,-0.2508569246829295,0,True
2024-01-15,1.0246844056011264,1.0398222928455592,1.4773219111841707,4,True
2024-01-16,1.0398222928455592,1.0342644141693356,-0.5345027428690696,1,True
2024-01-17,1.0342644141693356,1.0427538536032677,0.8208190591910025,0,True
2024-01-18,1.0427538536032677,1.041544405947341,-0.11598592052642909,1,True
2024-01-19,1.041544405947341,1.0323734832480451,-0.880511925072891,1,True
2024-01-20,1.0323734832480451,1.0598332950999094,2.659871867831254,7,True
2024-01-21,1.0598332950999094,1.0568166059572188,-0.28463808002995306,3,True
2024-01-22,1.0568166059572188,1.0295717679950371,-2.578010016932364,4,True
2024-01-23,1.0295717679950371,0.9917930051605064,-3.669366624931858,10,True
2024-01-24,0.9917930051605064,0.9911649690753819,-0.06332330252952767,1,True
2024-01-25,0.9911649690753819,0.9811676695361684,-1.0086413312750064,3,True
2024-01-26,0.9811676695361684,0.976415435250365,-0.4843447693348879,0,True
2024-01-27,0.976415435250365,0.976415435250365,0.0,0,False
2024-01-28,0.976415435250365,0.9735808476583924,-0.29030548777077003,1,True
2024-01-29,0.9735808476583924,0.9715411167468374,-0.20950811804287817,0,True
2024-01-30,0.9715411167468374,0.9715411167468374,0.0,0,False
2024-01-31,0.9715411167468374,0.9667019337014422,-0.498093488991902,1,True
2024-02-01,0.9667019337014422,0.9667019337014422,0.0,0,False
2024-02-02,0.9667019337014422,0.9662833831256468,-0.04329675582553927,3,True
2024-02-03,0.9662833831256468,0.9677048362246969,0.14710519955876133,1,True
2024-02-04,0.9677048362246969,0.9691251350159684,0.14676983498527196,1,True
2024-02-05,0.9691251350159684,0.9691251350159684,0.0,0,False
2024-02-06,0.9691251350159684,0.9618635408747579,-0.7492937577241676,2,True
2024-02-07,0.9618635408747579,0.9547589320693856,-0.738629598010454,5,True
2024-02-08,0.9547589320693856,0.991207340289778,3.8175509017121856,1,True
2024-02-09,0.991207340289778,1.0111816680189425,2.015151312673402,0,True
2024-02-10,1.0111816680189425,1.0047516609618474,-0.6358903904668756,2,True
2024-02-11,1.0047516609618474,1.0018558681043968,-0.2882098104399766,0,True
2024-02-12,1.0018558681043968,1.0051099363856602,0.3248040346782055,3,True
2024-02-13,1.0051099363856602,1.0070484865873004,0.1928694694444344,0,True
2024-02-14,1.0070484865873004,1.0097601738410218,0.26927077393370524,2,True
2024-02-15,1.0097601738410218,1.0291627977092144,1.9215081334003292,6,True
2024-02-16,1.0291627977092144,1.0249066178288304,-0.41355749448558354,5,True
2024-02-17,1.0249066178288304,1.0087863462481925,-1.5728527165515982,5,True
2024-02-18,1.0087863462481925,1.0020140750165119,-0.6713285976626904,4,True
2024-02-19,1.0020140750165119,0.9952503997762875,-0.6750080072590703,6,True
2024-02-20,0.9952503997762875,0.9858206819436086,-0.9474718959970763,10,True
2024-02-21,0.9858206819436086,0.9686867999426313,-1.7380323130568476,7,True
2024-02-22,0.9686867999426313,0.9936712456743144,2.579207823742702,3,True
2024-02-23,0.9936712456743144,0.9748486300613003,-1.8942498029356658,7,True
2024-02-24,0.9748486300613003,0.979407746918653,0.4676743359700808,8,True
2024-02-25,0.979407746918653,0.9885256972577098,0.93096571552993,8,True
2024-02-26,0.9885256972577098,1.0034775351095686,1.5125391169230173,6,True
2024-02-27,1.0034775351095686,1.0055417373850672,0.20570488160187583,4,True
2024-02-28,1.0055417373850672,1.0553702259858948,4.955387404446054,6,True
2024-02-29,1.0553702259858948,1.0827293894835524,2.592375909799749,12,True
2024-03-01,1.0827293894835524,1.1051530018417859,2.071026479564697,8,True
2024-03-02,1.1051530018417859,1.1140546528888817,0.8054677526334153,6,True
2024-03-03,1.1140546528888817,1.1173975914949466,0.30006953405707915,11,True
2024-03-04,1.1173975914949466,1.1679005792948047,4.519697212904417,4,True
2024-03-05,1.1679005792948047,1.1532762289679719,-1.2521913753706038,8,True
2024-03-06,1.1532762289679719,1.1276782803661267,-2.2195852094126556,16,True
2024-03-07,1.1276782803661267,1.1291784283907504,0.13302978790517006,6,True
2024-03-08,1.1291784283907504,1.1563128268041376,2.4030213233933173,5,True
2024-03-09,1.1563128268041376,1.168869115460178,1.0858902854813168,6,True
2024-03-10,1.168869115460178,1.195334275396424,2.264167953982321,7,True
2024-03-11,1.195334275396424,1.2278534685218365,2.720510387324726,8,True
2024-03-12,1.2278534685218365,1.2264977450837493,-0.11041410663760187,5,True
2024-03-13,1.2264977450837493,1.205049932965317,-1.748703754605574,6,True
2024-03-14,1.205049932965317,1.2410193390962987,2.9848892686521467,6,True
2024-03-15,1.2410193390962987,1.2161377679748437,-2.004930168096619,16,True
2024-03-16,1.2161377679748437,1.2358825234333217,1.623562393869049,2,True
2024-03-17,1.2358825234333217,1.2026400338106762,-2.689777466089316,9,True
2024-03-18,1.2026400338106762,1.214394909349037,0.9774226042612577,4,True
2024-03-19,1.214394909349037,1.1761864114048624,-3.146299251588247,15,True
2024-03-20,1.1761864114048624,1.1681621079093767,-0.682230590124,5,True
2024-03-21,1.1681621079093767,1.211469660361372,3.707323851610056,5,True
2024-03-22,1.211469660361372,1.2034643662343252,-0.6607919611176127,7,True
2024-03-23,1.2034643662343252,1.2334301343723308,2.489958903541889,5,True
2024-03-24,1.2334301343723308,1.2287476277664078,-0.37963290140514694,7,True
2024-03-25,1.2287476277664078,1.262387298775657,2.7377201183613975,4,True
2024-03-26,1.262387298775657,1.3115092940496302,3.891198471468682,7,True
2024-03-27,1.3115092940496302,1.3136117104470073,0.16030510854294633,6,True
2024-03-28,1.3136117104470073,1.2896236067499187,-1.8261182894697026,7,True
2024-03-29,1.2896236067499187,1.271825240776104,-1.3801209810876403,8,True
2024-03-30,1.271825240776104,1.2589202049991288,-1.0146862448727645,2,True
2024-03-31,1.2589202049991288,1.2526427194591794,-0.49864046307476206,1,True
2024-04-01,1.2526427194591794,1.2437373534986944,-0.7109262539225725,6,True
2024-04-02,1.2437373534986944,1.2093116217465358,-2.767926174711832,8,True
2024-04-03,1.2093116217465358,1.2213037760352257,0.9916512892988116,4,True
2024-04-04,1.2213037760352257,1.2162282438268555,-0.4155831094575957,3,True
2024-04-05,1.2162282438268555,1.1794306349749342,-3.0255512514770877,5,True
2024-04-06,1.1794306349749342,1.1616151299413322,-1.510517406051659,3,True
2024-04-07,1.1616151299413322,1.192346028620756,2.645531888085495,4,True
2024-04-08,1.192346028620756,1.169271652978315,-1.935207992358745,2,True
2024-04-09,1.169271652978315,1.1568643669468905,-1.0611123599739258,3,True
2024-04-10,1.1568643669468905,1.1453586580427724,-0.9945598838421499,6,True
2024-04-11,1.1453586580427724,1.1708613004834,2.2266075575145594,1,True
2024-04-12,1.1708613004834,1.1698042600308458,-0.09027887864411221,8,True
2024-04-13,1.1698042600308458,1.1213010929750538,-4.1462635000588115,10,True
2024-04-14,1.1213010929750538,1.0802318922571224,-3.662638070651114,15,True
2024-04-15,1.0802318922571224,1.0898233737335479,0.8879094891731443,1,True
2024-04-16,1.0898233737335479,1.0772989274310738,-1.14921799296408,1,True
2024-04-17,1.0772989274310738,1.0692171806433415,-0.7501860980223984,1,True
2024-04-18,1.0692171806433415,1.105646709779362,3.4071215647789366,1,True
2024-04-19,1.105646709779362,1.1638476931991981,5.263976540159954,10,True
2024-04-20,1.1638476931991981,1.1703408204631573,0.5579018029507665,0,True
2024-04-21,1.1703408204631573,1.1703408204631573,0.0,0,False
2024-04-22,1.1703408204631573,1.1703408204631573,0.0,0,False
2024-04-23,1.1703408204631573,1.1793099307538217,0.7663673806673543,4,True
2024-04-24,1.1793099307538217,1.1656228218454932,-1.1606032096736163,5,True
2024-04-25,1.1656228218454932,1.1526704873082398,-1.111194315563102,3,True
2024-04-26,1.1526704873082398,1.14709393888521,-0.4837938061598601,1,True
2024-04-27,1.14709393888521,1.1478780580443697,0.06835701354344081,6,True
2024-04-28,1.1478780580443697,1.160203381945065,1.0737485409986647,3,True
2024-04-29,1.160203381945065,1.1673695609477328,0.6176657570721611,3,True
2024-04-30,1.1673695609477328,1.1549693898584859,-1.0622318333518899,2,True
2024-05-01,1.1549693898584859,1.1397898218153208,-1.314283146934736,6,True
2024-05-02,1.1397898218153208,1.1486800037607185,0.7799843247624727,4,True
2024-05-03,1.1486800037607185,1.1605789743895967,1.0358821072815383,3,True
2024-05-04,1.1605789743895967,1.1619538911935643,0.11846818133947057,0,True
2024-05-05,1.1619538911935643,1.1561703354173705,-0.49774400000097696,1,True
2024-05-06,1.1561703354173705,1.150405452422296,-0.49861882963754267,1,True
2024-05-07,1.150405452422296,1.1551059861953434,0.40859800891503983,4,True
2024-05-08,1.1551059861953434,1.1510173641575914,-0.3539607695410729,3,True
2024-05-09,1.1510173641575914,1.1395878235415686,-0.9929946299626735,8,True
2024-05-10,1.1395878235415686,1.123653704423559,-1.3982352907641715,4,True
2024-05-11,1.123653704423559,1.1042795622743957,-1.7242093425129057,4,True
2024-05-12,1.1042795622743957,1.0972667555527875,-0.6350571867113519,0,True
2024-05-13,1.0972667555527875,1.0975927248851627,0.029707391637034952,4,True
2024-05-14,1.0975927248851627,1.0733943588402806,-2.204676242493675,3,True
2024-05-15,1.0733943588402806,1.0548711997452078,-1.7256620497880792,3,True
2024-05-16,1.0548711997452078,1.0296554785073373,-2.390407591368604,4,True
2024-05-17,1.0296554785073373,1.0281672004854345,-0.1445413590243083,1,True
2024-05-18,1.0281672004854345,1.0432333636797884,1.4653417447318517,2,True
2024-05-19,1.0432333636797884,1.0412802754503396,-0.1872148933733886,0,True
2024-05-20,1.0412802754503396,1.0541677780754342,1.2376593438803818,2,True
2024-05-21,1.0541677780754342,1.0454450409217402,-0.8274524544488404,2,True
2024-05-22,1.0454450409217402,1.052591124407263,0.683544634658384,1,True
2024-05-23,1.052591124407263,1.039848320504791,-1.210612896783425,5,True
2024-05-24,1.039848320504791,1.0609922446109294,2.0333661832404815,5,True
2024-05-25,1.0609922446109294,1.048702115315595,-1.1583618407918883,3,True
2024-05-26,1.048702115315595,1.0608837893410186,1.1615952564143939,3,True
2024-05-27,1.0608837893410186,1.0810661316429375,1.9024083980447637,4,True
2024-05-28,1.0810661316429375,1.0907039513516261,0.8915106510682724,2,True
2024-05-29,1.0907039513516261,1.0794516953967683,-1.0316507922166873,4,True
2024-05-30,1.0794516953967683,1.0461789367167118,-3.0823758786007183,6,True
2024-05-31,1.0461789367167118,1.0322118039424883,-1.335061554389283,3,True
2024-06-01,1.0322118039424883,1.0184202229713144,-1.336119284675641,3,True
2024-06-02,1.0184202229713144,1.0131773614453115,-0.5148033599241097,3,True
2024-06-03,1.0131773614453115,0.9968825422288078,-1.6082889172788883,12,True
2024-06-04,0.9968825422288078,0.9874389777823909,-0.9473096424482685,5,True
2024-06-05,0.9874389777823909,0.9910610713653625,0.3668169542087707,0,True
2024-06-06,0.9910610713653625,0.9835297247999595,-0.759927595080212,3,True
2024-06-07,0.9835297247999595,0.9821972109435827,-0.1354828250511475,0,True
2024-06-08,0.9821972109435827,1.020275396583282,3.8768370766516513,7,True
2024-06-09,1.020275396583282,1.0223002765241336,0.19846405662946598,3,True
2024-06-10,1.0223002765241336,1.0122265835627544,-0.9853947213660286,0,True
2024-06-11,1.0122265835627544,0.9929457202259258,-1.9047971718906487,4,True
2024-06-12,0.9929457202259258,0.9845702192923449,-0.8435003810354447,4,True
2024-06-13,0.9845702192923449,0.9888289282048396,0.43254496520883645,3,True
2024-06-14,0.9888289282048396,0.961922037664609,-2.721086506750814,6,True
2024-06-15,0.961922037664609,0.9736003044393331,1.2140554345835497,5,True
2024-06-16,0.9736003044393331,0.97523061533331,0.16745176501518078,0,True
2024-06-17,0.97523061533331,0.9558274634511499,-1.9895962633954656,4,True
2024-06-18,0.9558274634511499,0.9646940794929691,0.9276377150542414,6,True
2024-06-19,0.9646940794929691,0.9839979051419571,2.001030799228465,2,True
2024-06-20,0.9839979051419571,0.9903454198143584,0.645074002620527,1,True
2024-06-21,0.9903454198143584,0.9852930961449555,-0.5101577256095058,1,True
2024-06-22,0.9852930961449555,0.9762615241486978,-0.9166381081522346,3,True
2024-06-23,0.9762615241486978,0.9798859391424029,0.37125451572677104,2,True
2024-06-24,0.9798859391424029,0.9807049915308781,0.0835865028527838,2,True
2024-06-25,0.9807049915308781,0.98603036941147,0.5430152723378212,1,True
2024-06-26,0.98603036941147,0.9855001335792567,-0.053774797274230846,0,True
2024-06-27,0.9855001335792567,0.9806054730491118,-0.4966676678538673,1,True
2024-06-28,0.9806054730491118,0.9777153517094995,-0.29472824892825544,2,True
2024-06-29,0.9777153517094995,0.9496652214717163,-2.8689464872100667,7,True
2024-06-30,0.9496652214717163,0.9624692464153336,1.3482672266101003,0,True
2024-07-01,0.9624692464153336,0.9529202908875021,-0.9921309759658437,2,True
2024-07-02,0.9529202908875021,0.9529202908875021,0.0,0,False
2024-07-03,0.9529202908875021,0.948184960355822,-0.4969282926350349,1,True
2024-07-04,0.948184960355822,0.9276224408276338,-2.168619034040764,5,True
2024-07-05,0.9276224408276338,0.8738085669149156,-5.801269087960503,19,True
2024-07-06,0.8738085669149156,0.886797968931824,1.4865271992891005,1,True
2024-07-07,0.886797968931824,0.8852377615068405,-0.17593718971445904,2,True
2024-07-08,0.8852377615068405,0.884423833903635,-0.09194451915608415,2,True
2024-07-09,0.884423833903635,0.9056465290655612,2.3996068794589487,2,True
2024-07-10,0.9056465290655612,0.9078190265729491,0.23988360112521256,1,True
2024-07-11,0.9078190265729491,0.8962435252023169,-1.2750890906450985,3,True
2024-07-12,0.8962435252023169,0.8963100005641196,0.007417109293772484,0,True
2024-07-13,0.8963100005641196,0.8907236719284712,-0.623258541367655,2,True
2024-07-14,0.8907236719284712,0.895049242538121,0.48562430144969415,2,True
2024-07-15,0.895049242538121,0.895049242538121,0.0,0,False
2024-07-16,0.895049242538121,0.8861509028282013,-0.9941732015421145,2,True
2024-07-17,0.8861509028282013,0.8933157248989577,0.8085329539121888,1,True
2024-07-18,0.8933157248989577,0.8950517548445563,0.19433554086323301,0,True
2024-07-19,0.8950517548445563,0.8936516185665628,-0.15643076173138537,2,True
2024-07-20,0.8936516185665628,0.8909934319185706,-0.29745222777708413,2,True
2024-07-21,0.8909934319185706,0.8965828568990218,0.6273250486724224,1,True
2024-07-22,0.8965828568990218,0.8949701021764511,-0.17987793433266175,1,True
2024-07-23,0.8949701021764511,0.890551006013166,-0.49377025584860235,3,True
2024-07-24,0.890551006013166,0.8839042290717092,-0.7463667882666503,1,True
2024-07-25,0.8839042290717092,0.8772780137617721,-0.7496530836712978,3,True
2024-07-26,0.8772780137617721,0.8647583298741373,-1.42710562572409,1,True
2024-07-27,0.8647583298741373,0.8698938048263389,0.5938624439673301,1,True
2024-07-28,0.8698938048263389,0.8563588219632764,-1.5559350794278393,2,True
2024-07-29,0.8563588219632764,0.8563588219632764,0.0,0,False
2024-07-30,0.8563588219632764,0.8518285047109327,-0.5290209122803868,2,True
2024-07-31,0.8518285047109327,0.8453610647339406,-0.7592420236262054,7,True
2024-08-01,0.8453610647339406,0.8342449794234105,-1.3149511817212245,1,True
2024-08-02,0.8342449794234105,0.8177097608053021,-1.9820579117583281,4,True
2024-08-03,0.8177097608053021,0.8193539148660958,0.20106817107996555,9,True
2024-08-04,0.8193539148660958,0.7797663309356886,-4.831560966774273,6,True
2024-08-05,0.7797663309356886,0.759477972204452,-2.6018510836305686,20,True
2024-08-06,0.759477972204452,0.7766085033033833,2.2555665504304656,0,True
2024-08-07,0.7766085033033833,0.776229291528719,-0.048829207129619245,1,True
2024-08-08,0.776229291528719,0.7727403639711751,-0.4494712574776405,0,True
2024-08-09,0.7727403639711751,0.7727403639711751,0.0,0,False
2024-08-10,0.7727403639711751,0.7727403639711751,0.0,0,False
2024-08-11,0.7727403639711751,0.7688808522364893,-0.4994577628702368,1,True
2024-08-12,0.7688808522364893,0.7786375429501382,1.2689470267427172,3,True
2024-08-13,0.7786375429501382,0.7707664699946909,-1.0108776576101097,0,True
2024-08-14,0.7707664699946909,0.7707664699946909,0.0,0,False
2024-08-15,0.7707664699946909,0.7707664699946909,0.0,0,False
2024-08-16,0.7707664699946909,0.7707664699946909,0.0,0,False
2024-08-17,0.7707664699946909,0.8038158273570143,4.287856133979351,1,True
2024-08-18,0.8038158273570143,0.8276411575032583,2.964028492021975,4,True
2024-08-19,0.8276411575032583,0.809620181141098,-2.1773900680004954,6,True
2024-08-20,0.809620181141098,0.807117890248683,-0.30906972809006117,3,True
2024-08-21,0.807117890248683,0.8061293842284873,-0.12247356081910299,1,True
2024-08-22,0.8061293842284873,0.8099473065069255,0.4736116004618873,2,True
2024-08-23,0.8099473065069255,0.8105418443698603,0.07340451139949966,0,True
2024-08-24,0.8105418443698603,0.8094842055766227,-0.1304854031391578,3,True
2024-08-25,0.8094842055766227,0.8081573199891492,-0.1639174153531875,2,True
2024-08-26,0.8081573199891492,0.8005535634541827,-0.9408757858022754,2,True
2024-08-27,0.8005535634541827,0.8004445938735081,-0.01361177885518261,1,True
2024-08-28,0.8004445938735081,0.7964809519775952,-0.49518004447154373,4,True
2024-08-29,0.7964809519775952,0.794053046749271,-0.30482903857221855,3,True
2024-08-30,0.794053046749271,0.79740583862294,0.42223776955390147,0,True
2024-08-31,0.79740583862294,0.79740583862294,0.0,0,False
2024-09-01,0.79740583862294,0.7934585117287554,-0.49502106744055974,1,True
2024-09-02,0.7934585117287554,0.7952209357655561,0.2221192426256513,1,True
2024-09-03,0.7952209357655561,0.7941714844592207,-0.13196977835160384,1,True
2024-09-04,0.7941714844592207,0.7936837255137232,-0.061417333037283584,0,True
2024-09-05,0.7936837255137232,0.7880056035969061,-0.7154136760385121,2,True
2024-09-06,0.7880056035969061,0.7856100839662956,-0.30399779134513416,1,True
2024-09-07,0.7856100839662956,0.7818687233079955,-0.4762363333488784,0,True
2024-09-08,0.7818687233079955,0.7818687233079955,0.0,0,False
2024-09-09,0.7818687233079955,0.7818687233079955,0.0,0,False
2024-09-10,0.7818687233079955,0.7818687233079955,0.0,0,False
2024-09-11,0.7818687233079955,0.7741021154056532,-0.9933391208542863,2,True
2024-09-12,0.7741021154056532,0.7741021154056532,0.0,0,False
2024-09-13,0.7741021154056532,0.7702489308101138,-0.49776179639041684,1,True
2024-09-14,0.7702489308101138,0.7702489308101138,0.0,0,False
2024-09-15,0.7702489308101138,0.775524724589331,0.6849465891070272,3,True
2024-09-16,0.775524724589331,0.7653847025359496,-1.3075046780424593,1,True
2024-09-17,0.7653847025359496,0.7615724366857511,-0.4980849287380962,1,True
2024-09-18,0.7615724366857511,0.7501768440225584,-1.496324199019683,3,True
2024-09-19,0.7501768440225584,0.7525270989597821,0.3132934528639053,2,True
2024-09-20,0.7525270989597821,0.7635001507665385,1.4581603535506638,3,True
2024-09-21,0.7635001507665385,0.7501538841744939,-1.7480371914328052,7,True
2024-09-22,0.7501538841744939,0.7514588656247261,0.17396183340012694,3,True
2024-09-23,0.7514588656247261,0.7580994874993836,0.8836973224258804,0,True
2024-09-24,0.7580994874993836,0.7580994874993836,0.0,0,False
2024-09-25,0.7580994874993836,0.7580994874993836,0.0,0,False
2024-09-26,0.7580994874993836,0.7580994874993836,0.0,0,False
2024-09-27,0.7580994874993836,0.754319195218325,-0.4986538499752835,1,True
2024-09-28,0.754319195218325,0.754319195218325,0.0,0,False
2024-09-29,0.754319195218325,0.754319195218325,0.0,0,False
2024-09-30,0.754319195218325,0.7487580151926635,-0.73724493038414,2,True
2024-10-01,0.7487580151926635,0.7518060337163646,0.4070765803978471,0,True
2024-10-02,0.7518060337163646,0.7281459445315744,-3.147100199213937,13,True
2024-10-03,0.7281459445315744,0.731350200402254,0.44005681755747705,3,True
2024-10-04,0.731350200402254,0.7364031231568616,0.6909033116868635,2,True
2024-10-05,0.7364031231568616,0.7335224701896804,-0.3911788090784074,0,True
2024-10-06,0.7335224701896804,0.7335224701896804,0.0,0,False
2024-10-07,0.7335224701896804,0.7335224701896804,0.0,0,False
2024-10-08,0.7335224701896804,0.7262139279779259,-0.9963624168002116,2,True
2024-10-09,0.7262139279779259,0.7262139279779259,0.0,0,False
2024-10-10,0.7262139279779259,0.7262139279779259,0.0,0,False
2024-10-11,0.7262139279779259,0.7245934735803826,-0.22313733393345414,1,True
2024-10-12,0.7245934735803826,0.725854757492915,0.17406779918953674,1,True
2024-10-13,0.725854757492915,0.7245640972089471,-0.1778124715233309,0,True
2024-10-14,0.7245640972089471,0.7245640972089471,0.0,0,False
2024-10-15,0.7245640972089471,0.7176827705898993,-0.9497195135054315,3,True
2024-10-16,0.7176827705898993,0.7076118524889685,-1.4032548242244869,5,True
2024-10-17,0.7076118524889685,0.7040772998427351,-0.4995044435449847,2,True
2024-10-18,0.7040772998427351,0.7268807080546333,3.238764865305499,3,True
2024-10-19,0.7268807080546333,0.7376350287982864,1.4795166007961713,2,True
2024-10-20,0.7376350287982864,0.742974619536192,0.7238797683733367,3,True
2024-10-21,0.742974619536192,0.7337931514913257,-1.2357714252201335,4,True
2024-10-22,0.7337931514913257,0.7277270015395555,-0.8266839148664329,2,True
2024-10-23,0.7277270015395555,0.7169294685148566,-1.4837340103989516,4,True
2024-10-24,0.7169294685148566,0.706544910294769,-1.448476966862533,3,True
2024-10-25,0.706544910294769,0.6992224115702337,-1.03638121481624,3,True
2024-10-26,0.6992224115702337,0.6864453825472334,-1.8273197213898085,9,True
2024-10-27,0.6864453825472334,0.6970987336388957,1.551959028718386,0,True
2024-10-28,0.6970987336388957,0.6936246245086363,-0.4983668686535103,1,True
2024-10-29,0.6936246245086363,0.7128956488196202,2.778307405772318,2,True
2024-10-30,0.7128956488196202,0.7164448361700405,0.4978551007145171,0,True
2024-10-31,0.7164448361700405,0.7136850690499614,-0.3852030164432807,1,True
2024-11-01,0.7136850690499614,0.7113542495604293,-0.32658935861372695,3,True
2024-11-02,0.7113542495604293,0.702622481840521,-1.2274851419393218,1,True
2024-11-03,0.702622481840521,0.6932498952682059,-1.3339434496550062,3,True
2024-11-04,0.6932498952682059,0.704266544995957,1.5891311059612834,4,True
2024-11-05,0.704266544995957,0.6950066732718829,-1.3148248755912695,1,True
2024-11-06,0.6950066732718829,0.701038538833386,0.8678859921023241,3,True
2024-11-07,0.701038538833386,0.6979191007994893,-0.4449738296966932,4,True
2024-11-08,0.6979191007994893,0.69103936196268,-0.9857501863651974,2,True
2024-11-09,0.69103936196268,0.6927612830470792,0.2491784374639039,2,True
2024-11-10,0.6927612830470792,0.703082578477008,1.4898776364249189,7,True
2024-11-11,0.703082578477008,0.6887934716435311,-2.032351144929434,7,True
2024-11-12,0.6887934716435311,0.6763057621871676,-1.8129831321668233,9,True
2024-11-13,0.6763057621871676,0.6927740779299285,2.435039986869625,6,True
2024-11-14,0.6927740779299285,0.6856954301831262,-1.0217829985720517,6,True
2024-11-15,0.6856954301831262,0.6945951661064547,1.2979138450655459,8,True
2024-11-16,0.6945951661064547,0.7103426199297883,2.267141292042929,7,True
2024-11-17,0.7103426199297883,0.6984209055344256,-1.6783048152933744,8,True
2024-11-18,0.6984209055344256,0.7091054557629037,1.5298153511459356,5,True
2024-11-19,0.7091054557629037,0.7037633374060548,-0.7533602108732218,7,True
2024-11-20,0.7037633374060548,0.6962504365237847,-1.067532291460549,3,True
2024-11-21,0.6962504365237847,0.7122087781278305,2.2920404450619714,6,True
2024-11-22,0.7122087781278305,0.7076484318930812,-0.6403103099539065,4,True
2024-11-23,0.7076484318930812,0.7436706448027032,5.090410899838549,0,True
2024-11-24,0.7436706448027032,0.7360958578673176,-1.0185674247495946,12,True
2024-11-25,0.7360958578673176,0.7568323777281051,2.817095034452066,1,True
2024-11-26,0.7568323777281051,0.7299980825947222,-3.545606124031764,12,True
2024-11-27,0.7299980825947222,0.7383703887745589,1.1468942699243811,3,True
2024-11-28,0.7383703887745589,0.7334125096048633,-0.6714623507483752,3,True
2024-11-29,0.7334125096048633,0.7429629705084989,1.3021949828454726,5,True
2024-11-30,0.7429629705084989,0.7662178024422954,3.1300122424513965,3,True
2024-12-01,0.7662178024422954,0.7603569912461826,-0.7649014650183861,4,True
2024-12-02,0.7603569912461826,0.7615001741276356,0.15034817784465027,9,True
2024-12-03,0.7615001741276356,0.7744122281086387,1.695607488966755,8,True
2024-12-04,0.7744122281086387,0.7844821254612097,1.3003277824221282,6,True
2024-12-05,0.7844821254612097,0.7840719614620234,-0.052284683853709435,9,True
2024-12-06,0.7840719614620234,0.7717530011265458,-1.571151748942412,6,True
2024-12-07,0.7717530011265458,0.7707931560074531,-0.12437206174663595,4,True
2024-12-08,0.7707931560074531,0.7675859318074525,-0.41609401627453746,0,True
2024-12-09,0.7675859318074525,0.7667458180753876,-0.10944881833447884,2,True
2024-12-10,0.7667458180753876,0.7179860994731903,-6.3593067549542415,21,True
2024-12-11,0.7179860994731903,0.7529863756435646,4.874784650574049,5,True
2024-12-12,0.7529863756435646,0.7451295810842283,-1.0434178908776737,2,True
2024-12-13,0.7451295810842283,0.7448439786298986,-0.03832923314011083,1,True
2024-12-14,0.7448439786298986,0.7473154358519822,0.3318087133670211,0,True
2024-12-15,0.7473154358519822,0.7348831256114224,-1.6635960725722487,4,True
2024-12-16,0.7348831256114224,0.732529559244666,-0.3202640371961496,0,True
2024-12-17,0.732529559244666,0.732529559244666,0.0,0,False
2024-12-18,0.732529559244666,0.7218528547794153,-1.4575117591513753,4,True
2024-12-19,0.7218528547794153,0.7116703407585635,-1.4106079865769061,11,True
2024-12-20,0.7116703407585635,0.6598508842729468,-7.281384865692553,21,True
2024-12-21,0.6598508842729468,0.6895100117474099,4.494822721521818,3,True
2024-12-22,0.6895100117474099,0.7012587032378302,1.703918912017821,2,True
2024-12-23,0.7012587032378302,0.7189701442149312,2.5256643369022447,3,True
2024-12-24,0.7189701442149312,0.7166765022708106,-0.3190176897574948,0,True
2024-12-25,0.7166765022708106,0.7272190677817847,1.4710354640580015,4,True
2024-12-26,0.7272190677817847,0.7193924815436751,-1.0762350142967003,3,True
2024-12-27,0.7193924815436751,0.7159549872172709,-0.47783295135750414,0,True
2024-12-28,0.7159549872172709,0.7047229402296292,-1.5688202733663004,4,True
2024-12-29,0.7047229402296292,0.744361906407035,5.624758882475112,5,True
2024-12-30,0.744361906407035,0.7377638892340305,-0.8863990911158526,4,True
2024-12-31,0.7377638892340305,0.7319399518097652,-0.7894039691088484,3,True
