day,start_equity,end_equity,return_pct,entries,active
2021-09-02,1.0,1.0,0.0,0,False
2021-09-03,1.0,1.0,0.0,0,False
2021-09-04,1.0,1.0,0.0,0,False
2021-09-05,1.0,1.0,0.0,0,False
2021-09-06,1.0,1.0,0.0,0,False
2021-09-07,1.0,1.0,0.0,0,False
2021-09-08,1.0,1.0,0.0,0,False
2021-09-09,1.0,1.0,0.0,0,False
2021-09-10,1.0,1.0,0.0,0,False
2021-09-11,1.0,1.0,0.0,0,False
2021-09-12,1.0,1.0,0.0,0,False
2021-09-13,1.0,1.0,0.0,0,False
2021-09-14,1.0,1.0,0.0,0,False
2021-09-15,1.0,1.0,0.0,0,False
2021-09-16,1.0,1.0,0.0,0,False
2021-09-17,1.0,1.0,0.0,0,False
2021-09-18,1.0,1.0,0.0,0,False
2021-09-19,1.0,1.0,0.0,0,False
2021-09-20,1.0,1.0,0.0,0,False
2021-09-21,1.0,1.0,0.0,0,False
2021-09-22,1.0,1.0,0.0,0,False
2021-09-23,1.0,1.0,0.0,0,False
2021-09-24,1.0,1.0,0.0,0,False
2021-09-25,1.0,1.0,0.0,0,False
2021-09-26,1.0,1.0,0.0,0,False
2021-09-27,1.0,1.0,0.0,0,False
2021-09-28,1.0,1.0,0.0,0,False
2021-09-29,1.0,1.0,0.0,0,False
2021-09-30,1.0,1.0,0.0,0,False
2021-10-01,1.0,1.0,0.0,0,False
2021-10-02,1.0,1.0,0.0,0,False
2021-10-03,1.0,1.0,0.0,0,False
2021-10-04,1.0,1.0,0.0,0,False
2021-10-05,1.0,0.9995269898820623,-0.04730101179376556,1,True
2021-10-06,0.9995269898820623,1.0056427254528877,0.6118629744602533,3,True
2021-10-07,1.0056427254528877,1.0021688361039471,-0.3454397134306397,2,True
2021-10-08,1.0021688361039471,1.0017162051081354,-0.045165143786685125,1,True
2021-10-09,1.0017162051081354,1.0030233166455422,0.1304872109227473,2,True
2021-10-10,1.0030233166455422,1.0103719913524045,0.7326524303980175,1,True
2021-10-11,1.0103719913524045,1.00700488777491,-0.33325385168164745,0,True
2021-10-12,1.00700488777491,1.00700488777491,0.0,0,False
2021-10-13,1.00700488777491,1.0251713803346236,1.8040123519017293,4,True
2021-10-14,1.0251713803346236,1.0413608569298323,1.5791970889710516,0,True
2021-10-15,1.0413608569298323,1.0467751702943178,0.5199267216983827,4,True
2021-10-16,1.0467751702943178,1.0445340038447493,-0.2141019880074535,2,True
2021-10-17,1.0445340038447493,1.0449227251647768,0.03721480761724738,0,True
2021-10-18,1.0449227251647768,1.0436612305997657,-0.12072611061380023,1,True
2021-10-19,1.0436612305997657,1.0464539387393168,0.2675876096256191,0,True
2021-10-20,1.0464539387393168,1.0464539387393168,0.0,0,False
2021-10-21,1.0464539387393168,1.0464539387393168,0.0,0,False
2021-10-22,1.0464539387393168,1.0464539387393168,0.0,0,False
2021-10-23,1.0464539387393168,1.0464539387393168,0.0,0,False
2021-10-24,1.0464539387393168,1.0464539387393168,0.0,0,False
2021-10-25,1.0464539387393168,1.0597986908088346,1.275235495371585,2,True
2021-10-26,1.0597986908088346,1.0658981680836197,0.575531686129005,0,True
2021-10-27,1.0658981680836197,1.0693603921266268,0.3248175244762619,7,True
2021-10-28,1.0693603921266268,1.0696620478193586,0.028208983141020383,1,True
2021-10-29,1.0696620478193586,1.063884089487319,-0.5401667137596156,0,True
2021-10-30,1.063884089487319,1.0655714994463683,0.15860844012269837,1,True
2021-10-31,1.0655714994463683,1.0582397543203033,-0.6880575475108341,1,True
2021-11-01,1.0582397543203033,1.06985379500498,1.0974867119915022,2,True
2021-11-02,1.06985379500498,1.0715381392831056,0.15743686529781087,1,True
2021-11-03,1.0715381392831056,1.0698635677414123,-0.15627736244774315,1,True
2021-11-04,1.0698635677414123,1.0894029466475548,1.8263430492723387,1,True
2021-11-05,1.0894029466475548,1.0763936846331363,-1.1941643865065799,3,True
2021-11-06,1.0763936846331363,1.0656338927058948,-0.9996149253615139,2,True
2021-11-07,1.0656338927058948,1.0661688117369819,0.05019726143740133,0,True
2021-11-08,1.0661688117369819,1.0661688117369819,0.0,0,False
2021-11-09,1.0661688117369819,1.0661688117369819,0.0,0,False
2021-11-10,1.0661688117369819,1.0661688117369819,0.0,0,False
2021-11-11,1.0661688117369819,1.0443481502829606,-2.0466422590688538,8,True
2021-11-12,1.0443481502829606,1.0391353073929948,-0.49914799854372527,1,True
2021-11-13,1.0391353073929948,1.0377125851141273,-0.13691405428584158,1,True
2021-11-14,1.0377125851141273,1.0381582741355713,0.042949177627527035,0,True
2021-11-15,1.0381582741355713,1.0381582741355713,0.0,0,False
2021-11-16,1.0381582741355713,1.0582256923216986,1.9329825409171386,7,True
2021-11-17,1.0582256923216986,1.0520964153179426,-0.579203193442468,0,True
2021-11-18,1.0520964153179426,1.0428448296328656,-0.8793477052463139,4,True
2021-11-19,1.0428448296328656,1.0587551661273285,1.525666718802654,4,True
2021-11-20,1.0587551661273285,1.0594660733148809,0.06714556965541352,0,True
2021-11-21,1.0594660733148809,1.0554200014633506,-0.3818972549890942,1,True
2021-11-22,1.0554200014633506,1.040049914233888,-1.4563005446316946,4,True
2021-11-23,1.040049914233888,1.03701594368658,-0.2917139365895549,0,True
2021-11-24,1.03701594368658,1.0322621872507212,-0.4584072660406058,2,True
2021-11-25,1.0322621872507212,1.0421224832217462,0.9552123571712423,5,True
2021-11-26,1.0421224832217462,1.0148708004267513,-2.615017258887431,3,True
2021-11-27,1.0148708004267513,1.0148708004267513,0.0,0,False
2021-11-28,1.0148708004267513,0.9945485473245955,-2.0024473158169798,5,True
2021-11-29,0.9945485473245955,0.9958149017738199,0.1273295760806148,1,True
2021-11-30,0.9958149017738199,0.985511001345125,-1.034720449587645,3,True
2021-12-01,0.985511001345125,0.9799146029902673,-0.5678676693836149,1,True
2021-12-02,0.9799146029902673,0.9788599261897013,-0.10762946050070221,5,True
2021-12-03,0.9788599261897013,0.9724034860764523,-0.65958774493724,2,True
2021-12-04,0.9724034860764523,0.950875098544861,-2.2139356594098825,10,True
2021-12-05,0.950875098544861,0.9459478263006166,-0.5181829087526513,3,True
2021-12-06,0.9459478263006166,0.9404822873189845,-0.5777844009649535,12,True
2021-12-07,0.9404822873189845,0.9517442508996946,1.1974668457408466,0,True
2021-12-08,0.9517442508996946,0.9547802503039757,0.3189931960619896,2,True
2021-12-09,0.9547802503039757,0.9541560105344236,-0.0653804652278267,2,True
2021-12-10,0.9541560105344236,0.9450789860566418,-0.9513144996799561,3,True
2021-12-11,0.9450789860566418,0.9403665775981501,-0.49862588503361005,2,True
2021-12-12,0.9403665775981501,0.9403665775981501,0.0,0,False
2021-12-13,0.9403665775981501,0.9356731586997142,-0.49910524366185705,2,True
2021-12-14,0.9356731586997142,0.9354192023399366,-0.02714156726806305,1,True
2021-12-15,0.9354192023399366,0.9337427826007978,-0.17921587828699792,1,True
2021-12-16,0.9337427826007978,0.9341919645070312,0.04810552912466459,0,True
2021-12-17,0.9341919645070312,0.9321259819774209,-0.22115181976549714,4,True
2021-12-18,0.9321259819774209,0.9325994159485067,0.050790770801323326,1,True
2021-12-19,0.9325994159485067,0.9301243372228327,-0.2653956975896987,1,True
2021-12-20,0.9301243372228327,0.9301243372228327,0.0,0,False
2021-12-21,0.9301243372228327,0.9290015636712508,-0.12071220014888695,1,True
2021-12-22,0.9290015636712508,0.9290015636712508,0.0,0,False
2021-12-23,0.9290015636712508,0.9290015636712508,0.0,0,False
2021-12-24,0.9290015636712508,0.9290015636712508,0.0,0,False
2021-12-25,0.9290015636712508,0.9290015636712508,0.0,0,False
2021-12-26,0.9290015636712508,0.9290015636712508,0.0,0,False
2021-12-27,0.9290015636712508,0.9290015636712508,0.0,0,False
2021-12-28,0.9290015636712508,0.9290015636712508,0.0,0,False
2021-12-29,0.9290015636712508,0.9290015636712508,0.0,0,False
2021-12-30,0.9290015636712508,0.9290015636712508,0.0,0,False
2021-12-31,0.9290015636712508,0.9290015636712508,0.0,0,False
2022-01-01,0.9290015636712508,0.9290015636712508,0.0,0,False
2022-01-02,0.9290015636712508,0.9290015636712508,0.0,0,False
2022-01-03,0.9290015636712508,0.9290015636712508,0.0,0,False
2022-01-04,0.9290015636712508,0.9290015636712508,0.0,0,False
2022-01-05,0.9290015636712508,0.9290015636712508,0.0,0,False
2022-01-06,0.9290015636712508,0.9290015636712508,0.0,0,False
2022-01-07,0.9290015636712508,0.9290015636712508,0.0,0,False
2022-01-08,0.9290015636712508,0.9290015636712508,0.0,0,False
2022-01-09,0.9290015636712508,0.9290015636712508,0.0,0,False
2022-01-10,0.9290015636712508,0.9290015636712508,0.0,0,False
2022-01-11,0.9290015636712508,0.9290015636712508,0.0,0,False
2022-01-12,0.9290015636712508,0.9290015636712508,0.0,0,False
2022-01-13,0.9290015636712508,0.9290015636712508,0.0,0,False
2022-01-14,0.9290015636712508,0.9290015636712508,0.0,0,False
2022-01-15,0.9290015636712508,0.9290015636712508,0.0,0,False
2022-01-16,0.9290015636712508,0.9290015636712508,0.0,0,False
2022-01-17,0.9290015636712508,0.9290015636712508,0.0,0,False
2022-01-18,0.9290015636712508,0.9290015636712508,0.0,0,False
2022-01-19,0.9290015636712508,0.9290015636712508,0.0,0,False
2022-01-20,0.9290015636712508,0.9290015636712508,0.0,0,False
2022-01-21,0.9290015636712508,0.9290015636712508,0.0,0,False
2022-01-22,0.9290015636712508,0.9290015636712508,0.0,0,False
2022-01-23,0.9290015636712508,0.9290015636712508,0.0,0,False
2022-01-24,0.9290015636712508,0.9290015636712508,0.0,0,False
2022-01-25,0.9290015636712508,0.9290015636712508,0.0,0,False
2022-01-26,0.9290015636712508,0.9290015636712508,0.0,0,False
2022-01-27,0.9290015636712508,0.9290015636712508,0.0,0,False
2022-01-28,0.9290015636712508,0.9290015636712508,0.0,0,False
2022-01-29,0.9290015636712508,0.9290015636712508,0.0,0,False
2022-01-30,0.9290015636712508,0.9290015636712508,0.0,0,False
2022-01-31,0.9290015636712508,0.9290015636712508,0.0,0,False
2022-02-01,0.9290015636712508,0.9290015636712508,0.0,0,False
2022-02-02,0.9290015636712508,0.9290015636712508,0.0,0,False
2022-02-03,0.9290015636712508,0.9290015636712508,0.0,0,False
2022-02-04,0.9290015636712508,0.9290015636712508,0.0,0,False
2022-02-05,0.9290015636712508,0.9290015636712508,0.0,0,False
2022-02-06,0.9290015636712508,0.9290015636712508,0.0,0,False
2022-02-07,0.9290015636712508,0.9290015636712508,0.0,0,False
2022-02-08,0.9290015636712508,0.9290015636712508,0.0,0,False
2022-02-09,0.9290015636712508,0.9290015636712508,0.0,0,False
2022-02-10,0.9290015636712508,0.9290015636712508,0.0,0,False
2022-02-11,0.9290015636712508,0.9290015636712508,0.0,0,False
2022-02-12,0.9290015636712508,0.9290015636712508,0.0,0,False
2022-02-13,0.9290015636712508,0.9290015636712508,0.0,0,False
2022-02-14,0.9290015636712508,0.9290015636712508,0.0,0,False
2022-02-15,0.9290015636712508,0.9290015636712508,0.0,0,False
2022-02-16,0.9290015636712508,0.9290015636712508,0.0,0,False
2022-02-17,0.9290015636712508,0.9290015636712508,0.0,0,False
2022-02-18,0.9290015636712508,0.9290015636712508,0.0,0,False
2022-02-19,0.9290015636712508,0.9290015636712508,0.0,0,False
2022-02-20,0.9290015636712508,0.9290015636712508,0.0,0,False
2022-02-21,0.9290015636712508,0.9290015636712508,0.0,0,False
2022-02-22,0.9290015636712508,0.9290015636712508,0.0,0,False
2022-02-23,0.9290015636712508,0.9290015636712508,0.0,0,False
2022-02-24,0.9290015636712508,0.9290015636712508,0.0,0,False
2022-02-25,0.9290015636712508,0.9290015636712508,0.0,0,False
2022-02-26,0.9290015636712508,0.9290015636712508,0.0,0,False
2022-02-27,0.9290015636712508,0.9290015636712508,0.0,0,False
2022-02-28,0.9290015636712508,0.9290015636712508,0.0,0,False
2022-03-01,0.9290015636712508,0.9290015636712508,0.0,0,False
2022-03-02,0.9290015636712508,0.9290015636712508,0.0,0,False
2022-03-03,0.9290015636712508,0.9290015636712508,0.0,0,False
2022-03-04,0.9290015636712508,0.9290015636712508,0.0,0,False
2022-03-05,0.9290015636712508,0.9290015636712508,0.0,0,False
2022-03-06,0.9290015636712508,0.9290015636712508,0.0,0,False
2022-03-07,0.9290015636712508,0.9290015636712508,0.0,0,False
2022-03-08,0.9290015636712508,0.9290015636712508,0.0,0,False
2022-03-09,0.9290015636712508,0.9290015636712508,0.0,0,False
2022-03-10,0.9290015636712508,0.9290015636712508,0.0,0,False
2022-03-11,0.9290015636712508,0.9290015636712508,0.0,0,False
2022-03-12,0.9290015636712508,0.9290015636712508,0.0,0,False
2022-03-13,0.9290015636712508,0.9290015636712508,0.0,0,False
2022-03-14,0.9290015636712508,0.9290015636712508,0.0,0,False
2022-03-15,0.9290015636712508,0.9290015636712508,0.0,0,False
2022-03-16,0.9290015636712508,0.9290015636712508,0.0,0,False
2022-03-17,0.9290015636712508,0.9290015636712508,0.0,0,False
2022-03-18,0.9290015636712508,0.9290015636712508,0.0,0,False
2022-03-19,0.9290015636712508,0.9290015636712508,0.0,0,False
2022-03-20,0.9290015636712508,0.9290015636712508,0.0,0,False
2022-03-21,0.9290015636712508,0.9290015636712508,0.0,0,False
2022-03-22,0.9290015636712508,0.9290015636712508,0.0,0,False
2022-03-23,0.9290015636712508,0.9290015636712508,0.0,0,False
2022-03-24,0.9290015636712508,0.9290015636712508,0.0,0,False
2022-03-25,0.9290015636712508,0.9290015636712508,0.0,0,False
2022-03-26,0.9290015636712508,0.9290015636712508,0.0,0,False
2022-03-27,0.9290015636712508,0.9290015636712508,0.0,0,False
2022-03-28,0.9290015636712508,0.9290015636712508,0.0,0,False
2022-03-29,0.9290015636712508,0.9290015636712508,0.0,0,False
2022-03-30,0.9290015636712508,0.9290015636712508,0.0,0,False
2022-03-31,0.9290015636712508,0.9290015636712508,0.0,0,False
2022-04-01,0.9290015636712508,0.9290015636712508,0.0,0,False
2022-04-02,0.9290015636712508,0.9290015636712508,0.0,0,False
2022-04-03,0.9290015636712508,0.9290015636712508,0.0,0,False
2022-04-04,0.9290015636712508,0.9290015636712508,0.0,0,False
2022-04-05,0.9290015636712508,0.9290015636712508,0.0,0,False
2022-04-06,0.9290015636712508,0.9290015636712508,0.0,0,False
2022-04-07,0.9290015636712508,0.9290015636712508,0.0,0,False
2022-04-08,0.9290015636712508,0.9290015636712508,0.0,0,False
2022-04-09,0.9290015636712508,0.9290015636712508,0.0,0,False
2022-04-10,0.9290015636712508,0.9290015636712508,0.0,0,False
2022-04-11,0.9290015636712508,0.9290015636712508,0.0,0,False
2022-04-12,0.9290015636712508,0.9290015636712508,0.0,0,False
2022-04-13,0.9290015636712508,0.9290015636712508,0.0,0,False
2022-04-14,0.9290015636712508,0.9290015636712508,0.0,0,False
2022-04-15,0.9290015636712508,0.9290015636712508,0.0,0,False
2022-04-16,0.9290015636712508,0.9290015636712508,0.0,0,False
2022-04-17,0.9290015636712508,0.9290015636712508,0.0,0,False
2022-04-18,0.9290015636712508,0.9290015636712508,0.0,0,False
2022-04-19,0.9290015636712508,0.9290015636712508,0.0,0,False
2022-04-20,0.9290015636712508,0.9290015636712508,0.0,0,False
2022-04-21,0.9290015636712508,0.9290015636712508,0.0,0,False
2022-04-22,0.9290015636712508,0.9290015636712508,0.0,0,False
2022-04-23,0.9290015636712508,0.9290015636712508,0.0,0,False
2022-04-24,0.9290015636712508,0.9290015636712508,0.0,0,False
2022-04-25,0.9290015636712508,0.9290015636712508,0.0,0,False
2022-04-26,0.9290015636712508,0.9290015636712508,0.0,0,False
2022-04-27,0.9290015636712508,0.9290015636712508,0.0,0,False
2022-04-28,0.9290015636712508,0.9290015636712508,0.0,0,False
2022-04-29,0.9290015636712508,0.9290015636712508,0.0,0,False
2022-04-30,0.9290015636712508,0.9290015636712508,0.0,0,False
2022-05-01,0.9290015636712508,0.9290015636712508,0.0,0,False
2022-05-02,0.9290015636712508,0.9290015636712508,0.0,0,False
2022-05-03,0.9290015636712508,0.9290015636712508,0.0,0,False
2022-05-04,0.9290015636712508,0.9290015636712508,0.0,0,False
2022-05-05,0.9290015636712508,0.9290015636712508,0.0,0,False
2022-05-06,0.9290015636712508,0.9290015636712508,0.0,0,False
2022-05-07,0.9290015636712508,0.9290015636712508,0.0,0,False
2022-05-08,0.9290015636712508,0.9290015636712508,0.0,0,False
2022-05-09,0.9290015636712508,0.9290015636712508,0.0,0,False
2022-05-10,0.9290015636712508,0.9290015636712508,0.0,0,False
2022-05-11,0.9290015636712508,0.9290015636712508,0.0,0,False
2022-05-12,0.9290015636712508,0.9290015636712508,0.0,0,False
2022-05-13,0.9290015636712508,0.9290015636712508,0.0,0,False
2022-05-14,0.9290015636712508,0.9290015636712508,0.0,0,False
2022-05-15,0.9290015636712508,0.9290015636712508,0.0,0,False
2022-05-16,0.9290015636712508,0.9290015636712508,0.0,0,False
2022-05-17,0.9290015636712508,0.9290015636712508,0.0,0,False
2022-05-18,0.9290015636712508,0.9290015636712508,0.0,0,False
2022-05-19,0.9290015636712508,0.9290015636712508,0.0,0,False
2022-05-20,0.9290015636712508,0.9290015636712508,0.0,0,False
2022-05-21,0.9290015636712508,0.9290015636712508,0.0,0,False
2022-05-22,0.9290015636712508,0.9290015636712508,0.0,0,False
2022-05-23,0.9290015636712508,0.9290015636712508,0.0,0,False
2022-05-24,0.9290015636712508,0.9290015636712508,0.0,0,False
2022-05-25,0.9290015636712508,0.9290015636712508,0.0,0,False
2022-05-26,0.9290015636712508,0.9290015636712508,0.0,0,False
2022-05-27,0.9290015636712508,0.9290015636712508,0.0,0,False
2022-05-28,0.9290015636712508,0.9290015636712508,0.0,0,False
2022-05-29,0.9290015636712508,0.9290015636712508,0.0,0,False
2022-05-30,0.9290015636712508,0.9290015636712508,0.0,0,False
2022-05-31,0.9290015636712508,0.9290015636712508,0.0,0,False
2022-06-01,0.9290015636712508,0.9290015636712508,0.0,0,False
2022-06-02,0.9290015636712508,0.9290015636712508,0.0,0,False
2022-06-03,0.9290015636712508,0.9290015636712508,0.0,0,False
2022-06-04,0.9290015636712508,0.9290015636712508,0.0,0,False
2022-06-05,0.9290015636712508,0.9290015636712508,0.0,0,False
2022-06-06,0.9290015636712508,0.9290015636712508,0.0,0,False
2022-06-07,0.9290015636712508,0.9290015636712508,0.0,0,False
2022-06-08,0.9290015636712508,0.9290015636712508,0.0,0,False
2022-06-09,0.9290015636712508,0.9290015636712508,0.0,0,False
2022-06-10,0.9290015636712508,0.9290015636712508,0.0,0,False
2022-06-11,0.9290015636712508,0.9290015636712508,0.0,0,False
2022-06-12,0.9290015636712508,0.9290015636712508,0.0,0,False
2022-06-13,0.9290015636712508,0.9290015636712508,0.0,0,False
2022-06-14,0.9290015636712508,0.9290015636712508,0.0,0,False
2022-06-15,0.9290015636712508,0.9290015636712508,0.0,0,False
2022-06-16,0.9290015636712508,0.9290015636712508,0.0,0,False
2022-06-17,0.9290015636712508,0.9290015636712508,0.0,0,False
2022-06-18,0.9290015636712508,0.9290015636712508,0.0,0,False
2022-06-19,0.9290015636712508,0.9290015636712508,0.0,0,False
2022-06-20,0.9290015636712508,0.9290015636712508,0.0,0,False
2022-06-21,0.9290015636712508,0.9290015636712508,0.0,0,False
2022-06-22,0.9290015636712508,0.9290015636712508,0.0,0,False
2022-06-23,0.9290015636712508,0.9290015636712508,0.0,0,False
2022-06-24,0.9290015636712508,0.9290015636712508,0.0,0,False
2022-06-25,0.9290015636712508,0.9290015636712508,0.0,0,False
2022-06-26,0.9290015636712508,0.9290015636712508,0.0,0,False
2022-06-27,0.9290015636712508,0.9290015636712508,0.0,0,False
2022-06-28,0.9290015636712508,0.9290015636712508,0.0,0,False
2022-06-29,0.9290015636712508,0.9290015636712508,0.0,0,False
2022-06-30,0.9290015636712508,0.9290015636712508,0.0,0,False
2022-07-01,0.9290015636712508,0.9290015636712508,0.0,0,False
2022-07-02,0.9290015636712508,0.9290015636712508,0.0,0,False
2022-07-03,0.9290015636712508,0.9290015636712508,0.0,0,False
2022-07-04,0.9290015636712508,0.9290015636712508,0.0,0,False
2022-07-05,0.9290015636712508,0.9290015636712508,0.0,0,False
2022-07-06,0.9290015636712508,0.9290015636712508,0.0,0,False
2022-07-07,0.9290015636712508,0.9290015636712508,0.0,0,False
2022-07-08,0.9290015636712508,0.9290015636712508,0.0,0,False
2022-07-09,0.9290015636712508,0.9290015636712508,0.0,0,False
2022-07-10,0.9290015636712508,0.9290015636712508,0.0,0,False
2022-07-11,0.9290015636712508,0.9290015636712508,0.0,0,False
2022-07-12,0.9290015636712508,0.9290015636712508,0.0,0,False
2022-07-13,0.9290015636712508,0.9290015636712508,0.0,0,False
2022-07-14,0.9290015636712508,0.9290015636712508,0.0,0,False
2022-07-15,0.9290015636712508,0.9290015636712508,0.0,0,False
2022-07-16,0.9290015636712508,0.9290015636712508,0.0,0,False
2022-07-17,0.9290015636712508,0.9290015636712508,0.0,0,False
2022-07-18,0.9290015636712508,0.9290015636712508,0.0,0,False
2022-07-19,0.9290015636712508,0.9290015636712508,0.0,0,False
2022-07-20,0.9290015636712508,0.9290015636712508,0.0,0,False
2022-07-21,0.9290015636712508,0.9290015636712508,0.0,0,False
2022-07-22,0.9290015636712508,0.9290015636712508,0.0,0,False
2022-07-23,0.9290015636712508,0.9290015636712508,0.0,0,False
2022-07-24,0.9290015636712508,0.9290015636712508,0.0,0,False
2022-07-25,0.9290015636712508,0.9290015636712508,0.0,0,False
2022-07-26,0.9290015636712508,0.9290015636712508,0.0,0,False
2022-07-27,0.9290015636712508,0.9290015636712508,0.0,0,False
2022-07-28,0.9290015636712508,0.9290015636712508,0.0,0,False
2022-07-29,0.9290015636712508,0.9290015636712508,0.0,0,False
2022-07-30,0.9290015636712508,0.9290015636712508,0.0,0,False
2022-07-31,0.9290015636712508,0.9290015636712508,0.0,0,False
2022-08-01,0.9290015636712508,0.9290015636712508,0.0,0,False
2022-08-02,0.9290015636712508,0.9290015636712508,0.0,0,False
2022-08-03,0.9290015636712508,0.9290015636712508,0.0,0,False
2022-08-04,0.9290015636712508,0.9290015636712508,0.0,0,False
2022-08-05,0.9290015636712508,0.9290015636712508,0.0,0,False
2022-08-06,0.9290015636712508,0.9290015636712508,0.0,0,False
2022-08-07,0.9290015636712508,0.9290015636712508,0.0,0,False
2022-08-08,0.9290015636712508,0.9290015636712508,0.0,0,False
2022-08-09,0.9290015636712508,0.9290015636712508,0.0,0,False
2022-08-10,0.9290015636712508,0.9290015636712508,0.0,0,False
2022-08-11,0.9290015636712508,0.9290015636712508,0.0,0,False
2022-08-12,0.9290015636712508,0.9290015636712508,0.0,0,False
2022-08-13,0.9290015636712508,0.9290015636712508,0.0,0,False
2022-08-14,0.9290015636712508,0.9290015636712508,0.0,0,False
2022-08-15,0.9290015636712508,0.9290015636712508,0.0,0,False
2022-08-16,0.9290015636712508,0.9290015636712508,0.0,0,False
2022-08-17,0.9290015636712508,0.9290015636712508,0.0,0,False
2022-08-18,0.9290015636712508,0.9290015636712508,0.0,0,False
2022-08-19,0.9290015636712508,0.9290015636712508,0.0,0,False
2022-08-20,0.9290015636712508,0.9290015636712508,0.0,0,False
2022-08-21,0.9290015636712508,0.9290015636712508,0.0,0,False
2022-08-22,0.9290015636712508,0.9290015636712508,0.0,0,False
2022-08-23,0.9290015636712508,0.9290015636712508,0.0,0,False
2022-08-24,0.9290015636712508,0.9290015636712508,0.0,0,False
2022-08-25,0.9290015636712508,0.9290015636712508,0.0,0,False
2022-08-26,0.9290015636712508,0.9290015636712508,0.0,0,False
2022-08-27,0.9290015636712508,0.9290015636712508,0.0,0,False
2022-08-28,0.9290015636712508,0.9290015636712508,0.0,0,False
2022-08-29,0.9290015636712508,0.9290015636712508,0.0,0,False
2022-08-30,0.9290015636712508,0.9290015636712508,0.0,0,False
2022-08-31,0.9290015636712508,0.9290015636712508,0.0,0,False
2022-09-01,0.9290015636712508,0.9290015636712508,0.0,0,False
2022-09-02,0.9290015636712508,0.9290015636712508,0.0,0,False
2022-09-03,0.9290015636712508,0.9290015636712508,0.0,0,False
2022-09-04,0.9290015636712508,0.9290015636712508,0.0,0,False
2022-09-05,0.9290015636712508,0.9290015636712508,0.0,0,False
2022-09-06,0.9290015636712508,0.9290015636712508,0.0,0,False
2022-09-07,0.9290015636712508,0.9290015636712508,0.0,0,False
2022-09-08,0.9290015636712508,0.9290015636712508,0.0,0,False
2022-09-09,0.9290015636712508,0.9290015636712508,0.0,0,False
2022-09-10,0.9290015636712508,0.9290015636712508,0.0,0,False
2022-09-11,0.9290015636712508,0.9290015636712508,0.0,0,False
2022-09-12,0.9290015636712508,0.9290015636712508,0.0,0,False
2022-09-13,0.9290015636712508,0.9290015636712508,0.0,0,False
2022-09-14,0.9290015636712508,0.9290015636712508,0.0,0,False
2022-09-15,0.9290015636712508,0.9290015636712508,0.0,0,False
2022-09-16,0.9290015636712508,0.9290015636712508,0.0,0,False
2022-09-17,0.9290015636712508,0.9290015636712508,0.0,0,False
2022-09-18,0.9290015636712508,0.9290015636712508,0.0,0,False
2022-09-19,0.9290015636712508,0.9290015636712508,0.0,0,False
2022-09-20,0.9290015636712508,0.9290015636712508,0.0,0,False
2022-09-21,0.9290015636712508,0.9290015636712508,0.0,0,False
2022-09-22,0.9290015636712508,0.9290015636712508,0.0,0,False
2022-09-23,0.9290015636712508,0.9290015636712508,0.0,0,False
2022-09-24,0.9290015636712508,0.9290015636712508,0.0,0,False
2022-09-25,0.9290015636712508,0.9290015636712508,0.0,0,False
2022-09-26,0.9290015636712508,0.9290015636712508,0.0,0,False
2022-09-27,0.9290015636712508,0.9290015636712508,0.0,0,False
2022-09-28,0.9290015636712508,0.9290015636712508,0.0,0,False
2022-09-29,0.9290015636712508,0.9290015636712508,0.0,0,False
2022-09-30,0.9290015636712508,0.9290015636712508,0.0,0,False
2022-10-01,0.9290015636712508,0.9290015636712508,0.0,0,False
2022-10-02,0.9290015636712508,0.9290015636712508,0.0,0,False
2022-10-03,0.9290015636712508,0.9290015636712508,0.0,0,False
2022-10-04,0.9290015636712508,0.9290015636712508,0.0,0,False
2022-10-05,0.9290015636712508,0.9290015636712508,0.0,0,False
2022-10-06,0.9290015636712508,0.9290015636712508,0.0,0,False
2022-10-07,0.9290015636712508,0.9290015636712508,0.0,0,False
2022-10-08,0.9290015636712508,0.9290015636712508,0.0,0,False
2022-10-09,0.9290015636712508,0.9290015636712508,0.0,0,False
2022-10-10,0.9290015636712508,0.9290015636712508,0.0,0,False
2022-10-11,0.9290015636712508,0.9290015636712508,0.0,0,False
2022-10-12,0.9290015636712508,0.9290015636712508,0.0,0,False
2022-10-13,0.9290015636712508,0.9290015636712508,0.0,0,False
2022-10-14,0.9290015636712508,0.9290015636712508,0.0,0,False
2022-10-15,0.9290015636712508,0.9290015636712508,0.0,0,False
2022-10-16,0.9290015636712508,0.9290015636712508,0.0,0,False
2022-10-17,0.9290015636712508,0.9290015636712508,0.0,0,False
2022-10-18,0.9290015636712508,0.9290015636712508,0.0,0,False
2022-10-19,0.9290015636712508,0.9290015636712508,0.0,0,False
2022-10-20,0.9290015636712508,0.9290015636712508,0.0,0,False
2022-10-21,0.9290015636712508,0.9290015636712508,0.0,0,False
2022-10-22,0.9290015636712508,0.9290015636712508,0.0,0,False
2022-10-23,0.9290015636712508,0.9290015636712508,0.0,0,False
2022-10-24,0.9290015636712508,0.9290015636712508,0.0,0,False
2022-10-25,0.9290015636712508,0.9290015636712508,0.0,0,False
2022-10-26,0.9290015636712508,0.9290015636712508,0.0,0,False
2022-10-27,0.9290015636712508,0.9290015636712508,0.0,0,False
2022-10-28,0.9290015636712508,0.9290015636712508,0.0,0,False
2022-10-29,0.9290015636712508,0.9290015636712508,0.0,0,False
2022-10-30,0.9290015636712508,0.9290015636712508,0.0,0,False
2022-10-31,0.9290015636712508,0.9290015636712508,0.0,0,False
2022-11-01,0.9290015636712508,0.9290015636712508,0.0,0,False
2022-11-02,0.9290015636712508,0.9290015636712508,0.0,0,False
2022-11-03,0.9290015636712508,0.9290015636712508,0.0,0,False
2022-11-04,0.9290015636712508,0.9290015636712508,0.0,0,False
2022-11-05,0.9290015636712508,0.9290015636712508,0.0,0,False
2022-11-06,0.9290015636712508,0.9290015636712508,0.0,0,False
2022-11-07,0.9290015636712508,0.9290015636712508,0.0,0,False
2022-11-08,0.9290015636712508,0.9290015636712508,0.0,0,False
2022-11-09,0.9290015636712508,0.9290015636712508,0.0,0,False
2022-11-10,0.9290015636712508,0.9290015636712508,0.0,0,False
2022-11-11,0.9290015636712508,0.9290015636712508,0.0,0,False
2022-11-12,0.9290015636712508,0.9290015636712508,0.0,0,False
2022-11-13,0.9290015636712508,0.9290015636712508,0.0,0,False
2022-11-14,0.9290015636712508,0.9290015636712508,0.0,0,False
2022-11-15,0.9290015636712508,0.9290015636712508,0.0,0,False
2022-11-16,0.9290015636712508,0.9290015636712508,0.0,0,False
2022-11-17,0.9290015636712508,0.9290015636712508,0.0,0,False
2022-11-18,0.9290015636712508,0.9290015636712508,0.0,0,False
2022-11-19,0.9290015636712508,0.9290015636712508,0.0,0,False
2022-11-20,0.9290015636712508,0.9290015636712508,0.0,0,False
2022-11-21,0.9290015636712508,0.9290015636712508,0.0,0,False
2022-11-22,0.9290015636712508,0.9290015636712508,0.0,0,False
2022-11-23,0.9290015636712508,0.9290015636712508,0.0,0,False
2022-11-24,0.9290015636712508,0.9290015636712508,0.0,0,False
2022-11-25,0.9290015636712508,0.9290015636712508,0.0,0,False
2022-11-26,0.9290015636712508,0.9290015636712508,0.0,0,False
2022-11-27,0.9290015636712508,0.9290015636712508,0.0,0,False
2022-11-28,0.9290015636712508,0.9290015636712508,0.0,0,False
2022-11-29,0.9290015636712508,0.9290015636712508,0.0,0,False
2022-11-30,0.9290015636712508,0.9290015636712508,0.0,0,False
2022-12-01,0.9290015636712508,0.9290015636712508,0.0,0,False
2022-12-02,0.9290015636712508,0.9290015636712508,0.0,0,False
2022-12-03,0.9290015636712508,0.9290015636712508,0.0,0,False
2022-12-04,0.9290015636712508,0.9290015636712508,0.0,0,False
2022-12-05,0.9290015636712508,0.9290015636712508,0.0,0,False
2022-12-06,0.9290015636712508,0.9290015636712508,0.0,0,False
2022-12-07,0.9290015636712508,0.9290015636712508,0.0,0,False
2022-12-08,0.9290015636712508,0.9290015636712508,0.0,0,False
2022-12-09,0.9290015636712508,0.9290015636712508,0.0,0,False
2022-12-10,0.9290015636712508,0.9290015636712508,0.0,0,False
2022-12-11,0.9290015636712508,0.9290015636712508,0.0,0,False
2022-12-12,0.9290015636712508,0.9290015636712508,0.0,0,False
2022-12-13,0.9290015636712508,0.9290015636712508,0.0,0,False
2022-12-14,0.9290015636712508,0.9290015636712508,0.0,0,False
2022-12-15,0.9290015636712508,0.9290015636712508,0.0,0,False
2022-12-16,0.9290015636712508,0.9290015636712508,0.0,0,False
2022-12-17,0.9290015636712508,0.9290015636712508,0.0,0,False
2022-12-18,0.9290015636712508,0.9290015636712508,0.0,0,False
2022-12-19,0.9290015636712508,0.9290015636712508,0.0,0,False
2022-12-20,0.9290015636712508,0.9290015636712508,0.0,0,False
2022-12-21,0.9290015636712508,0.9290015636712508,0.0,0,False
2022-12-22,0.9290015636712508,0.9290015636712508,0.0,0,False
2022-12-23,0.9290015636712508,0.9290015636712508,0.0,0,False
2022-12-24,0.9290015636712508,0.9290015636712508,0.0,0,False
2022-12-25,0.9290015636712508,0.9290015636712508,0.0,0,False
2022-12-26,0.9290015636712508,0.9290015636712508,0.0,0,False
2022-12-27,0.9290015636712508,0.9290015636712508,0.0,0,False
2022-12-28,0.9290015636712508,0.9290015636712508,0.0,0,False
2022-12-29,0.9290015636712508,0.9290015636712508,0.0,0,False
2022-12-30,0.9290015636712508,0.9290015636712508,0.0,0,False
2022-12-31,0.9290015636712508,0.9290015636712508,0.0,0,False
2023-01-01,0.9290015636712508,0.9290015636712508,0.0,0,False
2023-01-02,0.9290015636712508,0.9290015636712508,0.0,0,False
2023-01-03,0.9290015636712508,0.9290015636712508,0.0,0,False
2023-01-04,0.9290015636712508,0.9290015636712508,0.0,0,False
2023-01-05,0.9290015636712508,0.9290015636712508,0.0,0,False
2023-01-06,0.9290015636712508,0.9290015636712508,0.0,0,False
2023-01-07,0.9290015636712508,0.9290015636712508,0.0,0,False
2023-01-08,0.9290015636712508,0.9290015636712508,0.0,0,False
2023-01-09,0.9290015636712508,0.9290015636712508,0.0,0,False
2023-01-10,0.9290015636712508,0.9290015636712508,0.0,0,False
2023-01-11,0.9290015636712508,0.9290015636712508,0.0,0,False
2023-01-12,0.9290015636712508,0.9290015636712508,0.0,0,False
2023-01-13,0.9290015636712508,0.9290015636712508,0.0,0,False
2023-01-14,0.9290015636712508,0.9290015636712508,0.0,0,False
2023-01-15,0.9290015636712508,0.9290015636712508,0.0,0,False
2023-01-16,0.9290015636712508,0.9290015636712508,0.0,0,False
2023-01-17,0.9290015636712508,0.9290015636712508,0.0,0,False
2023-01-18,0.9290015636712508,0.9290015636712508,0.0,0,False
2023-01-19,0.9290015636712508,0.9290015636712508,0.0,0,False
2023-01-20,0.9290015636712508,0.9290015636712508,0.0,0,False
2023-01-21,0.9290015636712508,0.9290015636712508,0.0,0,False
2023-01-22,0.9290015636712508,0.9290015636712508,0.0,0,False
2023-01-23,0.9290015636712508,0.9290015636712508,0.0,0,False
2023-01-24,0.9290015636712508,0.9290015636712508,0.0,0,False
2023-01-25,0.9290015636712508,0.9290015636712508,0.0,0,False
2023-01-26,0.9290015636712508,0.9290015636712508,0.0,0,False
2023-01-27,0.9290015636712508,0.9290015636712508,0.0,0,False
2023-01-28,0.9290015636712508,0.9290015636712508,0.0,0,False
2023-01-29,0.9290015636712508,0.9290015636712508,0.0,0,False
2023-01-30,0.9290015636712508,0.9290015636712508,0.0,0,False
2023-01-31,0.9290015636712508,0.9290015636712508,0.0,0,False
2023-02-01,0.9290015636712508,0.9290015636712508,0.0,0,False
2023-02-02,0.9290015636712508,0.9290015636712508,0.0,0,False
2023-02-03,0.9290015636712508,0.9290015636712508,0.0,0,False
2023-02-04,0.9290015636712508,0.9290015636712508,0.0,0,False
2023-02-05,0.9290015636712508,0.9290015636712508,0.0,0,False
2023-02-06,0.9290015636712508,0.9290015636712508,0.0,0,False
2023-02-07,0.9290015636712508,0.9290015636712508,0.0,0,False
2023-02-08,0.9290015636712508,0.9290015636712508,0.0,0,False
2023-02-09,0.9290015636712508,0.9290015636712508,0.0,0,False
2023-02-10,0.9290015636712508,0.9290015636712508,0.0,0,False
2023-02-11,0.9290015636712508,0.9290015636712508,0.0,0,False
2023-02-12,0.9290015636712508,0.9290015636712508,0.0,0,False
2023-02-13,0.9290015636712508,0.9290015636712508,0.0,0,False
2023-02-14,0.9290015636712508,0.9290015636712508,0.0,0,False
2023-02-15,0.9290015636712508,0.9290015636712508,0.0,0,False
2023-02-16,0.9290015636712508,0.9290015636712508,0.0,0,False
2023-02-17,0.9290015636712508,0.9290015636712508,0.0,0,False
2023-02-18,0.9290015636712508,0.9290015636712508,0.0,0,False
2023-02-19,0.9290015636712508,0.9290015636712508,0.0,0,False
2023-02-20,0.9290015636712508,0.9290015636712508,0.0,0,False
2023-02-21,0.9290015636712508,0.9290015636712508,0.0,0,False
2023-02-22,0.9290015636712508,0.9290015636712508,0.0,0,False
2023-02-23,0.9290015636712508,0.9290015636712508,0.0,0,False
2023-02-24,0.9290015636712508,0.9290015636712508,0.0,0,False
2023-02-25,0.9290015636712508,0.9290015636712508,0.0,0,False
2023-02-26,0.9290015636712508,0.9290015636712508,0.0,0,False
2023-02-27,0.9290015636712508,0.9290015636712508,0.0,0,False
2023-02-28,0.9290015636712508,0.9290015636712508,0.0,0,False
2023-03-01,0.9290015636712508,0.9290015636712508,0.0,0,False
2023-03-02,0.9290015636712508,0.9290015636712508,0.0,0,False
2023-03-03,0.9290015636712508,0.9290015636712508,0.0,0,False
2023-03-04,0.9290015636712508,0.9290015636712508,0.0,0,False
2023-03-05,0.9290015636712508,0.9290015636712508,0.0,0,False
2023-03-06,0.9290015636712508,0.9290015636712508,0.0,0,False
2023-03-07,0.9290015636712508,0.9290015636712508,0.0,0,False
2023-03-08,0.9290015636712508,0.9290015636712508,0.0,0,False
2023-03-09,0.9290015636712508,0.9290015636712508,0.0,0,False
2023-03-10,0.9290015636712508,0.9290015636712508,0.0,0,False
2023-03-11,0.9290015636712508,0.9290015636712508,0.0,0,False
2023-03-12,0.9290015636712508,0.9290015636712508,0.0,0,False
2023-03-13,0.9290015636712508,0.9290015636712508,0.0,0,False
2023-03-14,0.9290015636712508,0.9290015636712508,0.0,0,False
2023-03-15,0.9290015636712508,0.9290015636712508,0.0,0,False
2023-03-16,0.9290015636712508,0.9290015636712508,0.0,0,False
2023-03-17,0.9290015636712508,0.9290015636712508,0.0,0,False
2023-03-18,0.9290015636712508,0.9290015636712508,0.0,0,False
2023-03-19,0.9290015636712508,0.9290015636712508,0.0,0,False
2023-03-20,0.9290015636712508,0.9290015636712508,0.0,0,False
2023-03-21,0.9290015636712508,0.9290015636712508,0.0,0,False
2023-03-22,0.9290015636712508,0.9290015636712508,0.0,0,False
2023-03-23,0.9290015636712508,0.9290015636712508,0.0,0,False
2023-03-24,0.9290015636712508,0.9290015636712508,0.0,0,False
2023-03-25,0.9290015636712508,0.9290015636712508,0.0,0,False
2023-03-26,0.9290015636712508,0.9290015636712508,0.0,0,False
2023-03-27,0.9290015636712508,0.9290015636712508,0.0,0,False
2023-03-28,0.9290015636712508,0.9290015636712508,0.0,0,False
2023-03-29,0.9290015636712508,0.9290015636712508,0.0,0,False
2023-03-30,0.9290015636712508,0.9290015636712508,0.0,0,False
2023-03-31,0.9290015636712508,0.9290015636712508,0.0,0,False
2023-04-01,0.9290015636712508,0.9290015636712508,0.0,0,False
2023-04-02,0.9290015636712508,0.9290015636712508,0.0,0,False
2023-04-03,0.9290015636712508,0.9290015636712508,0.0,0,False
2023-04-04,0.9290015636712508,0.9290015636712508,0.0,0,False
2023-04-05,0.9290015636712508,0.9290015636712508,0.0,0,False
2023-04-06,0.9290015636712508,0.9290015636712508,0.0,0,False
2023-04-07,0.9290015636712508,0.9290015636712508,0.0,0,False
2023-04-08,0.9290015636712508,0.9290015636712508,0.0,0,False
2023-04-09,0.9290015636712508,0.9290015636712508,0.0,0,False
2023-04-10,0.9290015636712508,0.9290015636712508,0.0,0,False
2023-04-11,0.9290015636712508,0.9290015636712508,0.0,0,False
2023-04-12,0.9290015636712508,0.9290015636712508,0.0,0,False
2023-04-13,0.9290015636712508,0.9290015636712508,0.0,0,False
2023-04-14,0.9290015636712508,0.9290015636712508,0.0,0,False
2023-04-15,0.9290015636712508,0.9290015636712508,0.0,0,False
2023-04-16,0.9290015636712508,0.9290015636712508,0.0,0,False
2023-04-17,0.9290015636712508,0.9290015636712508,0.0,0,False
2023-04-18,0.9290015636712508,0.9290015636712508,0.0,0,False
2023-04-19,0.9290015636712508,0.9290015636712508,0.0,0,False
2023-04-20,0.9290015636712508,0.9290015636712508,0.0,0,False
2023-04-21,0.9290015636712508,0.9290015636712508,0.0,0,False
2023-04-22,0.9290015636712508,0.9290015636712508,0.0,0,False
2023-04-23,0.9290015636712508,0.9290015636712508,0.0,0,False
2023-04-24,0.9290015636712508,0.9290015636712508,0.0,0,False
2023-04-25,0.9290015636712508,0.9290015636712508,0.0,0,False
2023-04-26,0.9290015636712508,0.9290015636712508,0.0,0,False
2023-04-27,0.9290015636712508,0.9290015636712508,0.0,0,False
2023-04-28,0.9290015636712508,0.9290015636712508,0.0,0,False
2023-04-29,0.9290015636712508,0.9290015636712508,0.0,0,False
2023-04-30,0.9290015636712508,0.9290015636712508,0.0,0,False
2023-05-01,0.9290015636712508,0.9290015636712508,0.0,0,False
2023-05-02,0.9290015636712508,0.9290015636712508,0.0,0,False
2023-05-03,0.9290015636712508,0.9290015636712508,0.0,0,False
2023-05-04,0.9290015636712508,0.9290015636712508,0.0,0,False
2023-05-05,0.9290015636712508,0.9290015636712508,0.0,0,False
2023-05-06,0.9290015636712508,0.9290015636712508,0.0,0,False
2023-05-07,0.9290015636712508,0.9290015636712508,0.0,0,False
2023-05-08,0.9290015636712508,0.9290015636712508,0.0,0,False
2023-05-09,0.9290015636712508,0.9290015636712508,0.0,0,False
2023-05-10,0.9290015636712508,0.9290015636712508,0.0,0,False
2023-05-11,0.9290015636712508,0.9290015636712508,0.0,0,False
2023-05-12,0.9290015636712508,0.9290015636712508,0.0,0,False
2023-05-13,0.9290015636712508,0.9290015636712508,0.0,0,False
2023-05-14,0.9290015636712508,0.9290015636712508,0.0,0,False
2023-05-15,0.9290015636712508,0.9290015636712508,0.0,0,False
2023-05-16,0.9290015636712508,0.9290015636712508,0.0,0,False
2023-05-17,0.9290015636712508,0.9290015636712508,0.0,0,False
2023-05-18,0.9290015636712508,0.9290015636712508,0.0,0,False
2023-05-19,0.9290015636712508,0.9290015636712508,0.0,0,False
2023-05-20,0.9290015636712508,0.9290015636712508,0.0,0,False
2023-05-21,0.9290015636712508,0.9290015636712508,0.0,0,False
2023-05-22,0.9290015636712508,0.9290015636712508,0.0,0,False
2023-05-23,0.9290015636712508,0.9290015636712508,0.0,0,False
2023-05-24,0.9290015636712508,0.9290015636712508,0.0,0,False
2023-05-25,0.9290015636712508,0.9290015636712508,0.0,0,False
2023-05-26,0.9290015636712508,0.9290015636712508,0.0,0,False
2023-05-27,0.9290015636712508,0.9290015636712508,0.0,0,False
2023-05-28,0.9290015636712508,0.9290015636712508,0.0,0,False
2023-05-29,0.9290015636712508,0.9290015636712508,0.0,0,False
2023-05-30,0.9290015636712508,0.9290015636712508,0.0,0,False
2023-05-31,0.9290015636712508,0.9290015636712508,0.0,0,False
2023-06-01,0.9290015636712508,0.9290015636712508,0.0,0,False
2023-06-02,0.9290015636712508,0.9290015636712508,0.0,0,False
2023-06-03,0.9290015636712508,0.9290015636712508,0.0,0,False
2023-06-04,0.9290015636712508,0.9290015636712508,0.0,0,False
2023-06-05,0.9290015636712508,0.9290015636712508,0.0,0,False
2023-06-06,0.9290015636712508,0.9290015636712508,0.0,0,False
2023-06-07,0.9290015636712508,0.9290015636712508,0.0,0,False
2023-06-08,0.9290015636712508,0.9290015636712508,0.0,0,False
2023-06-09,0.9290015636712508,0.9290015636712508,0.0,0,False
2023-06-10,0.9290015636712508,0.9290015636712508,0.0,0,False
2023-06-11,0.9290015636712508,0.9290015636712508,0.0,0,False
2023-06-12,0.9290015636712508,0.9290015636712508,0.0,0,False
2023-06-13,0.9290015636712508,0.9290015636712508,0.0,0,False
2023-06-14,0.9290015636712508,0.9290015636712508,0.0,0,False
2023-06-15,0.9290015636712508,0.9290015636712508,0.0,0,False
2023-06-16,0.9290015636712508,0.9290015636712508,0.0,0,False
2023-06-17,0.9290015636712508,0.9290015636712508,0.0,0,False
2023-06-18,0.9290015636712508,0.9290015636712508,0.0,0,False
2023-06-19,0.9290015636712508,0.9290015636712508,0.0,0,False
2023-06-20,0.9290015636712508,0.9290015636712508,0.0,0,False
2023-06-21,0.9290015636712508,0.9290015636712508,0.0,0,False
2023-06-22,0.9290015636712508,0.9290015636712508,0.0,0,False
2023-06-23,0.9290015636712508,0.9290015636712508,0.0,0,False
2023-06-24,0.9290015636712508,0.9290015636712508,0.0,0,False
2023-06-25,0.9290015636712508,0.9290015636712508,0.0,0,False
2023-06-26,0.9290015636712508,0.9290015636712508,0.0,0,False
2023-06-27,0.9290015636712508,0.9290015636712508,0.0,0,False
2023-06-28,0.9290015636712508,0.9290015636712508,0.0,0,False
2023-06-29,0.9290015636712508,0.9290015636712508,0.0,0,False
2023-06-30,0.9290015636712508,0.9290015636712508,0.0,0,False
2023-07-01,0.9290015636712508,0.9290015636712508,0.0,0,False
2023-07-02,0.9290015636712508,0.9290015636712508,0.0,0,False
2023-07-03,0.9290015636712508,0.9290015636712508,0.0,0,False
2023-07-04,0.9290015636712508,0.9290015636712508,0.0,0,False
2023-07-05,0.9290015636712508,0.9290015636712508,0.0,0,False
2023-07-06,0.9290015636712508,0.9290015636712508,0.0,0,False
2023-07-07,0.9290015636712508,0.9290015636712508,0.0,0,False
2023-07-08,0.9290015636712508,0.9290015636712508,0.0,0,False
2023-07-09,0.9290015636712508,0.9290015636712508,0.0,0,False
2023-07-10,0.9290015636712508,0.9290015636712508,0.0,0,False
2023-07-11,0.9290015636712508,0.9290015636712508,0.0,0,False
2023-07-12,0.9290015636712508,0.9290015636712508,0.0,0,False
2023-07-13,0.9290015636712508,0.9290015636712508,0.0,0,False
2023-07-14,0.9290015636712508,0.9290015636712508,0.0,0,False
2023-07-15,0.9290015636712508,0.9290015636712508,0.0,0,False
2023-07-16,0.9290015636712508,0.9290015636712508,0.0,0,False
2023-07-17,0.9290015636712508,0.9290015636712508,0.0,0,False
2023-07-18,0.9290015636712508,0.9290015636712508,0.0,0,False
2023-07-19,0.9290015636712508,0.9290015636712508,0.0,0,False
2023-07-20,0.9290015636712508,0.9290015636712508,0.0,0,False
2023-07-21,0.9290015636712508,0.9290015636712508,0.0,0,False
2023-07-22,0.9290015636712508,0.9290015636712508,0.0,0,False
2023-07-23,0.9290015636712508,0.9290015636712508,0.0,0,False
2023-07-24,0.9290015636712508,0.9290015636712508,0.0,0,False
2023-07-25,0.9290015636712508,0.9290015636712508,0.0,0,False
2023-07-26,0.9290015636712508,0.9290015636712508,0.0,0,False
2023-07-27,0.9290015636712508,0.9290015636712508,0.0,0,False
2023-07-28,0.9290015636712508,0.9290015636712508,0.0,0,False
2023-07-29,0.9290015636712508,0.9290015636712508,0.0,0,False
2023-07-30,0.9290015636712508,0.9290015636712508,0.0,0,False
2023-07-31,0.9290015636712508,0.9290015636712508,0.0,0,False
2023-08-01,0.9290015636712508,0.9290015636712508,0.0,0,False
2023-08-02,0.9290015636712508,0.9290015636712508,0.0,0,False
2023-08-03,0.9290015636712508,0.9290015636712508,0.0,0,False
2023-08-04,0.9290015636712508,0.9290015636712508,0.0,0,False
2023-08-05,0.9290015636712508,0.9290015636712508,0.0,0,False
2023-08-06,0.9290015636712508,0.9290015636712508,0.0,0,False
2023-08-07,0.9290015636712508,0.9290015636712508,0.0,0,False
2023-08-08,0.9290015636712508,0.9290015636712508,0.0,0,False
2023-08-09,0.9290015636712508,0.9290015636712508,0.0,0,False
2023-08-10,0.9290015636712508,0.9290015636712508,0.0,0,False
2023-08-11,0.9290015636712508,0.9290015636712508,0.0,0,False
2023-08-12,0.9290015636712508,0.9290015636712508,0.0,0,False
2023-08-13,0.9290015636712508,0.9290015636712508,0.0,0,False
2023-08-14,0.9290015636712508,0.9290015636712508,0.0,0,False
2023-08-15,0.9290015636712508,0.9290015636712508,0.0,0,False
2023-08-16,0.9290015636712508,0.9290015636712508,0.0,0,False
2023-08-17,0.9290015636712508,0.9290015636712508,0.0,0,False
2023-08-18,0.9290015636712508,0.9290015636712508,0.0,0,False
2023-08-19,0.9290015636712508,0.9290015636712508,0.0,0,False
2023-08-20,0.9290015636712508,0.9290015636712508,0.0,0,False
2023-08-21,0.9290015636712508,0.9290015636712508,0.0,0,False
2023-08-22,0.9290015636712508,0.9290015636712508,0.0,0,False
2023-08-23,0.9290015636712508,0.9290015636712508,0.0,0,False
2023-08-24,0.9290015636712508,0.9290015636712508,0.0,0,False
2023-08-25,0.9290015636712508,0.9290015636712508,0.0,0,False
2023-08-26,0.9290015636712508,0.9290015636712508,0.0,0,False
2023-08-27,0.9290015636712508,0.9290015636712508,0.0,0,False
2023-08-28,0.9290015636712508,0.9290015636712508,0.0,0,False
2023-08-29,0.9290015636712508,0.9290015636712508,0.0,0,False
2023-08-30,0.9290015636712508,0.9290015636712508,0.0,0,False
2023-08-31,0.9290015636712508,0.9290015636712508,0.0,0,False
2023-09-01,0.9290015636712508,0.9290015636712508,0.0,0,False
2023-09-02,0.9290015636712508,0.9290015636712508,0.0,0,False
2023-09-03,0.9290015636712508,0.9290015636712508,0.0,0,False
2023-09-04,0.9290015636712508,0.9290015636712508,0.0,0,False
2023-09-05,0.9290015636712508,0.9290015636712508,0.0,0,False
2023-09-06,0.9290015636712508,0.9290015636712508,0.0,0,False
2023-09-07,0.9290015636712508,0.9290015636712508,0.0,0,False
2023-09-08,0.9290015636712508,0.9290015636712508,0.0,0,False
2023-09-09,0.9290015636712508,0.9290015636712508,0.0,0,False
2023-09-10,0.9290015636712508,0.9290015636712508,0.0,0,False
2023-09-11,0.9290015636712508,0.9290015636712508,0.0,0,False
2023-09-12,0.9290015636712508,0.9290015636712508,0.0,0,False
2023-09-13,0.9290015636712508,0.9290015636712508,0.0,0,False
2023-09-14,0.9290015636712508,0.9290015636712508,0.0,0,False
2023-09-15,0.9290015636712508,0.9290015636712508,0.0,0,False
2023-09-16,0.9290015636712508,0.9290015636712508,0.0,0,False
2023-09-17,0.9290015636712508,0.9290015636712508,0.0,0,False
2023-09-18,0.9290015636712508,0.9290015636712508,0.0,0,False
2023-09-19,0.9290015636712508,0.9290015636712508,0.0,0,False
2023-09-20,0.9290015636712508,0.9290015636712508,0.0,0,False
2023-09-21,0.9290015636712508,0.9290015636712508,0.0,0,False
2023-09-22,0.9290015636712508,0.9290015636712508,0.0,0,False
2023-09-23,0.9290015636712508,0.9290015636712508,0.0,0,False
2023-09-24,0.9290015636712508,0.9290015636712508,0.0,0,False
2023-09-25,0.9290015636712508,0.9290015636712508,0.0,0,False
2023-09-26,0.9290015636712508,0.9290015636712508,0.0,0,False
2023-09-27,0.9290015636712508,0.9290015636712508,0.0,0,False
2023-09-28,0.9290015636712508,0.9290015636712508,0.0,0,False
2023-09-29,0.9290015636712508,0.9290015636712508,0.0,0,False
2023-09-30,0.9290015636712508,0.9290015636712508,0.0,0,False
2023-10-01,0.9290015636712508,0.9290015636712508,0.0,0,False
2023-10-02,0.9290015636712508,0.9290015636712508,0.0,0,False
2023-10-03,0.9290015636712508,0.9290015636712508,0.0,0,False
2023-10-04,0.9290015636712508,0.9290015636712508,0.0,0,False
2023-10-05,0.9290015636712508,0.9290015636712508,0.0,0,False
2023-10-06,0.9290015636712508,0.9290015636712508,0.0,0,False
2023-10-07,0.9290015636712508,0.9290015636712508,0.0,0,False
2023-10-08,0.9290015636712508,0.9290015636712508,0.0,0,False
2023-10-09,0.9290015636712508,0.9290015636712508,0.0,0,False
2023-10-10,0.9290015636712508,0.9290015636712508,0.0,0,False
2023-10-11,0.9290015636712508,0.9290015636712508,0.0,0,False
2023-10-12,0.9290015636712508,0.9290015636712508,0.0,0,False
2023-10-13,0.9290015636712508,0.9290015636712508,0.0,0,False
2023-10-14,0.9290015636712508,0.9290015636712508,0.0,0,False
2023-10-15,0.9290015636712508,0.9290015636712508,0.0,0,False
2023-10-16,0.9290015636712508,0.9290015636712508,0.0,0,False
2023-10-17,0.9290015636712508,0.9290015636712508,0.0,0,False
2023-10-18,0.9290015636712508,0.9290015636712508,0.0,0,False
2023-10-19,0.9290015636712508,0.9290015636712508,0.0,0,False
2023-10-20,0.9290015636712508,0.9290015636712508,0.0,0,False
2023-10-21,0.9290015636712508,0.9290015636712508,0.0,0,False
2023-10-22,0.9290015636712508,0.9290015636712508,0.0,0,False
2023-10-23,0.9290015636712508,0.9290015636712508,0.0,0,False
2023-10-24,0.9290015636712508,0.9290015636712508,0.0,0,False
2023-10-25,0.9290015636712508,0.9290015636712508,0.0,0,False
2023-10-26,0.9290015636712508,0.9290015636712508,0.0,0,False
2023-10-27,0.9290015636712508,0.9290015636712508,0.0,0,False
2023-10-28,0.9290015636712508,0.9290015636712508,0.0,0,False
2023-10-29,0.9290015636712508,0.9290015636712508,0.0,0,False
2023-10-30,0.9290015636712508,0.9290015636712508,0.0,0,False
2023-10-31,0.9290015636712508,0.9290015636712508,0.0,0,False
2023-11-01,0.9290015636712508,0.9290015636712508,0.0,0,False
2023-11-02,0.9290015636712508,0.9290015636712508,0.0,0,False
2023-11-03,0.9290015636712508,0.9290015636712508,0.0,0,False
2023-11-04,0.9290015636712508,0.9290015636712508,0.0,0,False
2023-11-05,0.9290015636712508,0.9290015636712508,0.0,0,False
2023-11-06,0.9290015636712508,0.9290015636712508,0.0,0,False
2023-11-07,0.9290015636712508,0.9290015636712508,0.0,0,False
2023-11-08,0.9290015636712508,0.9290015636712508,0.0,0,False
2023-11-09,0.9290015636712508,0.9290015636712508,0.0,0,False
2023-11-10,0.9290015636712508,0.9290015636712508,0.0,0,False
2023-11-11,0.9290015636712508,0.9290015636712508,0.0,0,False
2023-11-12,0.9290015636712508,0.9290015636712508,0.0,0,False
2023-11-13,0.9290015636712508,0.9290015636712508,0.0,0,False
2023-11-14,0.9290015636712508,0.9290015636712508,0.0,0,False
2023-11-15,0.9290015636712508,0.9290015636712508,0.0,0,False
2023-11-16,0.9290015636712508,0.9290015636712508,0.0,0,False
2023-11-17,0.9290015636712508,0.9290015636712508,0.0,0,False
2023-11-18,0.9290015636712508,0.9290015636712508,0.0,0,False
2023-11-19,0.9290015636712508,0.9290015636712508,0.0,0,False
2023-11-20,0.9290015636712508,0.9290015636712508,0.0,0,False
2023-11-21,0.9290015636712508,0.9290015636712508,0.0,0,False
2023-11-22,0.9290015636712508,0.9290015636712508,0.0,0,False
2023-11-23,0.9290015636712508,0.9290015636712508,0.0,0,False
2023-11-24,0.9290015636712508,0.9290015636712508,0.0,0,False
2023-11-25,0.9290015636712508,0.9290015636712508,0.0,0,False
2023-11-26,0.9290015636712508,0.9290015636712508,0.0,0,False
2023-11-27,0.9290015636712508,0.9290015636712508,0.0,0,False
2023-11-28,0.9290015636712508,0.9290015636712508,0.0,0,False
2023-11-29,0.9290015636712508,0.9290015636712508,0.0,0,False
2023-11-30,0.9290015636712508,0.9290015636712508,0.0,0,False
2023-12-01,0.9290015636712508,0.9290015636712508,0.0,0,False
2023-12-02,0.9290015636712508,0.9290015636712508,0.0,0,False
2023-12-03,0.9290015636712508,0.9290015636712508,0.0,0,False
2023-12-04,0.9290015636712508,0.9290015636712508,0.0,0,False
2023-12-05,0.9290015636712508,0.9290015636712508,0.0,0,False
2023-12-06,0.9290015636712508,0.9290015636712508,0.0,0,False
2023-12-07,0.9290015636712508,0.9290015636712508,0.0,0,False
2023-12-08,0.9290015636712508,0.9290015636712508,0.0,0,False
2023-12-09,0.9290015636712508,0.9290015636712508,0.0,0,False
2023-12-10,0.9290015636712508,0.9290015636712508,0.0,0,False
2023-12-11,0.9290015636712508,0.9290015636712508,0.0,0,False
2023-12-12,0.9290015636712508,0.9290015636712508,0.0,0,False
2023-12-13,0.9290015636712508,0.9290015636712508,0.0,0,False
2023-12-14,0.9290015636712508,0.9290015636712508,0.0,0,False
2023-12-15,0.9290015636712508,0.9290015636712508,0.0,0,False
2023-12-16,0.9290015636712508,0.9290015636712508,0.0,0,False
2023-12-17,0.9290015636712508,0.9290015636712508,0.0,0,False
2023-12-18,0.9290015636712508,0.9290015636712508,0.0,0,False
2023-12-19,0.9290015636712508,0.9290015636712508,0.0,0,False
2023-12-20,0.9290015636712508,0.9290015636712508,0.0,0,False
2023-12-21,0.9290015636712508,0.9290015636712508,0.0,0,False
2023-12-22,0.9290015636712508,0.9290015636712508,0.0,0,False
2023-12-23,0.9290015636712508,0.9290015636712508,0.0,0,False
2023-12-24,0.9290015636712508,0.9290015636712508,0.0,0,False
2023-12-25,0.9290015636712508,0.9290015636712508,0.0,0,False
2023-12-26,0.9290015636712508,0.9290015636712508,0.0,0,False
2023-12-27,0.9290015636712508,0.9290015636712508,0.0,0,False
2023-12-28,0.9290015636712508,0.9290015636712508,0.0,0,False
2023-12-29,0.9290015636712508,0.9290015636712508,0.0,0,False
2023-12-30,0.9290015636712508,0.9290015636712508,0.0,0,False
2023-12-31,0.9290015636712508,0.9290015636712508,0.0,0,False
