day,start_equity,end_equity,return_pct,entries,active
2024-01-02,1.0,1.0,0.0,0,False
2024-01-03,1.0,1.0101188661844145,1.0118866184414488,4,True
2024-01-04,1.0101188661844145,1.0120595486172979,0.19212416457619064,1,True
2024-01-05,1.0120595486172979,1.0120595486172979,0.0,0,False
2024-01-06,1.0120595486172979,1.0120595486172979,0.0,0,False
2024-01-07,1.0120595486172979,1.0120595486172979,0.0,0,False
2024-01-08,1.0120595486172979,1.0091602977803087,-0.2864703802212265,1,True
2024-01-09,1.0091602977803087,1.0091902037021978,0.002963446139814252,0,True
2024-01-10,1.0091902037021978,1.0082775905138457,-0.09043024644950215,1,True
2024-01-11,1.0082775905138457,1.0082775905138457,0.0,0,False
2024-01-12,1.0082775905138457,1.0082775905138457,0.0,0,False
2024-01-13,1.0082775905138457,1.0082775905138457,0.0,0,False
2024-01-14,1.0082775905138457,1.0082775905138457,0.0,0,False
2024-01-15,1.0082775905138457,1.0082775905138457,0.0,0,False
2024-01-16,1.0082775905138457,1.0082775905138457,0.0,0,False
2024-01-17,1.0082775905138457,1.0082775905138457,0.0,0,False
2024-01-18,1.0082775905138457,1.0082775905138457,0.0,0,False
2024-01-19,1.0082775905138457,1.0082775905138457,0.0,0,False
2024-01-20,1.0082775905138457,1.0082775905138457,0.0,0,False
2024-01-21,1.0082775905138457,1.0082775905138457,0.0,0,False
2024-01-22,1.0082775905138457,1.0082775905138457,0.0,0,False
2024-01-23,1.0082775905138457,0.9982409229106435,-0.9954270230370987,2,True
2024-01-24,0.9982409229106435,0.9982409229106435,0.0,0,False
2024-01-25,0.9982409229106435,0.9982409229106435,0.0,0,False
2024-01-26,0.9982409229106435,0.9982409229106435,0.0,0,False
2024-01-27,0.9982409229106435,0.9982409229106435,0.0,0,False
2024-01-28,0.9982409229106435,0.9950590910304824,-0.31874388307819856,2,True
2024-01-29,0.9950590910304824,0.9949829296073611,-0.007653959830911106,0,True
2024-01-30,0.9949829296073611,0.9949829296073611,0.0,0,False
2024-01-31,0.9949829296073611,0.9949829296073611,0.0,0,False
2024-02-01,0.9949829296073611,0.9949829296073611,0.0,0,False
2024-02-02,0.9949829296073611,0.9949829296073611,0.0,0,False
2024-02-03,0.9949829296073611,0.9949829296073611,0.0,0,False
2024-02-04,0.9949829296073611,0.9949829296073611,0.0,0,False
2024-02-05,0.9949829296073611,0.9949829296073611,0.0,0,False
2024-02-06,0.9949829296073611,0.9883077387511285,-0.6708849627065194,2,True
2024-02-07,0.9883077387511285,0.9850736421657599,-0.327235784822999,0,True
2024-02-08,0.9850736421657599,0.9850736421657599,0.0,0,False
2024-02-09,0.9850736421657599,0.9850736421657599,0.0,0,False
2024-02-10,0.9850736421657599,0.9850736421657599,0.0,0,False
2024-02-11,0.9850736421657599,0.9850736421657599,0.0,0,False
2024-02-12,0.9850736421657599,0.9850736421657599,0.0,0,False
2024-02-13,0.9850736421657599,0.9850736421657599,0.0,0,False
2024-02-14,0.9850736421657599,0.9850736421657599,0.0,0,False
2024-02-15,0.9850736421657599,1.0009395801763443,1.6106347110965258,1,True
2024-02-16,1.0009395801763443,0.9971388047535776,-0.3797207641741074,0,True
2024-02-17,0.9971388047535776,0.9971388047535776,0.0,0,False
2024-02-18,0.9971388047535776,0.9971388047535776,0.0,0,False
2024-02-19,0.9971388047535776,0.9971388047535776,0.0,0,False
2024-02-20,0.9971388047535776,0.9971388047535776,0.0,0,False
2024-02-21,0.9971388047535776,1.0124132447368475,1.531826854040097,5,True
2024-02-22,1.0124132447368475,1.026710858703866,1.4122310273345873,1,True
2024-02-23,1.026710858703866,1.0270172467980152,0.02984171167099703,0,True
2024-02-24,1.0270172467980152,1.0270172467980152,0.0,0,False
2024-02-25,1.0270172467980152,1.0270172467980152,0.0,0,False
2024-02-26,1.0270172467980152,1.0258555854012645,-0.11311021313151759,1,True
2024-02-27,1.0258555854012645,1.0247781546713635,-0.10502752485181954,1,True
2024-02-28,1.0247781546713635,1.0247781546713635,0.0,0,False
2024-02-29,1.0247781546713635,1.0328300886362969,0.7857245910472876,2,True
2024-03-01,1.0328300886362969,1.0328300886362969,0.0,0,False
2024-03-02,1.0328300886362969,1.0328300886362969,0.0,0,False
2024-03-03,1.0328300886362969,1.049194181779272,1.5843935341370186,4,True
2024-03-04,1.049194181779272,1.0521848377153291,0.28504313005104365,0,True
2024-03-05,1.0521848377153291,1.0519117262584283,-0.02595660449676851,1,True
2024-03-06,1.0519117262584283,1.059413971468133,0.7132010246134968,1,True
2024-03-07,1.059413971468133,1.0572693847674148,-0.20243141571431034,2,True
2024-03-08,1.0572693847674148,1.0582287386608884,0.09073883224988144,0,True
2024-03-09,1.0582287386608884,1.0582287386608884,0.0,0,False
2024-03-10,1.0582287386608884,1.0582287386608884,0.0,0,False
2024-03-11,1.0582287386608884,1.0582287386608884,0.0,0,False
2024-03-12,1.0582287386608884,1.068334241812539,0.9549450683449034,1,True
2024-03-13,1.068334241812539,1.068334241812539,0.0,0,False
2024-03-14,1.068334241812539,1.068334241812539,0.0,0,False
2024-03-15,1.068334241812539,1.068334241812539,0.0,0,False
2024-03-16,1.068334241812539,1.068334241812539,0.0,0,False
2024-03-17,1.068334241812539,1.0655968854241766,-0.2562265891354554,1,True
2024-03-18,1.0655968854241766,1.0649632694854805,-0.05946112900320211,1,True
2024-03-19,1.0649632694854805,1.0557802436156742,-0.8622856893686914,1,True
2024-03-20,1.0557802436156742,1.0557802436156742,0.0,0,False
2024-03-21,1.0557802436156742,1.045262727395973,-0.9961842233079277,2,True
2024-03-22,1.045262727395973,1.045262727395973,0.0,0,False
2024-03-23,1.045262727395973,1.046715380521014,0.13897492821350887,1,True
2024-03-24,1.046715380521014,1.046715380521014,0.0,0,False
2024-03-25,1.046715380521014,1.046715380521014,0.0,0,False
2024-03-26,1.046715380521014,1.0505156071656274,0.36306208118597194,1,True
2024-03-27,1.0505156071656274,1.0490743650486847,-0.13719378437710983,2,True
2024-03-28,1.0490743650486847,1.0490743650486847,0.0,0,False
2024-03-29,1.0490743650486847,1.0438360020762993,-0.49933190123678806,1,True
2024-03-30,1.0438360020762993,1.0438360020762993,0.0,0,False
2024-03-31,1.0438360020762993,1.0438360020762993,0.0,0,False
2024-04-01,1.0438360020762993,1.0438360020762993,0.0,0,False
2024-04-02,1.0438360020762993,1.0438360020762993,0.0,0,False
2024-04-03,1.0438360020762993,1.0438360020762993,0.0,0,False
2024-04-04,1.0438360020762993,1.0438360020762993,0.0,0,False
2024-04-05,1.0438360020762993,1.043096504888243,-0.07084419263039266,2,True
2024-04-06,1.043096504888243,1.0412382811381482,-0.17814495028855015,0,True
2024-04-07,1.0412382811381482,1.0444000695943376,0.30365657059143736,1,True
2024-04-08,1.0444000695943376,1.0436932458952466,-0.067677484870865,0,True
2024-04-09,1.0436932458952466,1.0413228847125962,-0.22711282189215032,1,True
2024-04-10,1.0413228847125962,1.0332922806550366,-0.7711925067099612,1,True
2024-04-11,1.0332922806550366,1.0332922806550366,0.0,0,False
2024-04-12,1.0332922806550366,1.0366791039057794,0.3277701105630859,1,True
2024-04-13,1.0366791039057794,1.0366233735533923,-0.005375853740774428,8,True
2024-04-14,1.0366233735533923,1.0235511696889428,-1.2610369588368364,5,True
2024-04-15,1.0235511696889428,1.025538720609695,0.1941818816304286,1,True
2024-04-16,1.025538720609695,1.0184356025830394,-0.6926230949556689,0,True
2024-04-17,1.0184356025830394,1.01570022427597,-0.268586280775307,1,True
2024-04-18,1.01570022427597,1.0159247108956453,0.022101660933993017,0,True
2024-04-19,1.0159247108956453,1.0159247108956453,0.0,0,False
2024-04-20,1.0159247108956453,1.0159247108956453,0.0,0,False
2024-04-21,1.0159247108956453,1.0159247108956453,0.0,0,False
2024-04-22,1.0159247108956453,1.0159247108956453,0.0,0,False
2024-04-23,1.0159247108956453,1.0159247108956453,0.0,0,False
2024-04-24,1.0159247108956453,1.0159247108956453,0.0,0,False
2024-04-25,1.0159247108956453,1.0233724870118475,0.733103155807302,1,True
2024-04-26,1.0233724870118475,1.0108454059267054,-1.224097896330989,0,True
2024-04-27,1.0108454059267054,1.0057951859833616,-0.49960359059196824,1,True
2024-04-28,1.0057951859833616,1.0057951859833616,0.0,0,False
2024-04-29,1.0057951859833616,1.016784265253869,1.0925762445127774,1,True
2024-04-30,1.016784265253869,1.0171606941334868,0.03702150913240665,0,True
2024-05-01,1.0171606941334868,1.0171606941334868,0.0,0,False
2024-05-02,1.0171606941334868,1.0171606941334868,0.0,0,False
2024-05-03,1.0171606941334868,1.0171606941334868,0.0,0,False
2024-05-04,1.0171606941334868,1.0171606941334868,0.0,0,False
2024-05-05,1.0171606941334868,1.0171606941334868,0.0,0,False
2024-05-06,1.0171606941334868,1.0171606941334868,0.0,0,False
2024-05-07,1.0171606941334868,1.0143831550163624,-0.2730678773908424,1,True
2024-05-08,1.0143831550163624,1.0143902997423977,0.0007043419441465915,0,True
2024-05-09,1.0143902997423977,1.0116451616947661,-0.27061950891374975,1,True
2024-05-10,1.0116451616947661,1.0116451616947661,0.0,0,False
2024-05-11,1.0116451616947661,1.012004157603818,0.035486346660351664,1,True
2024-05-12,1.012004157603818,1.0065927180350225,-0.5347250333050391,0,True
2024-05-13,1.0065927180350225,1.0031255926662936,-0.34444172966967557,1,True
2024-05-14,1.0031255926662936,1.0031255926662936,0.0,0,False
2024-05-15,1.0031255926662936,1.0031255926662936,0.0,0,False
2024-05-16,1.0031255926662936,1.0031255926662936,0.0,0,False
2024-05-17,1.0031255926662936,1.0031255926662936,0.0,0,False
2024-05-18,1.0031255926662936,1.0031255926662936,0.0,0,False
2024-05-19,1.0031255926662936,1.0031255926662936,0.0,0,False
2024-05-20,1.0031255926662936,1.0031255926662936,0.0,0,False
2024-05-21,1.0031255926662936,1.0031255926662936,0.0,0,False
2024-05-22,1.0031255926662936,1.0031255926662936,0.0,0,False
2024-05-23,1.0031255926662936,1.01238629193071,0.9231844279639523,1,True
2024-05-24,1.01238629193071,1.0154440942943872,0.30203909199972845,1,True
2024-05-25,1.0154440942943872,1.0154440942943872,0.0,0,False
2024-05-26,1.0154440942943872,1.0154440942943872,0.0,0,False
2024-05-27,1.0154440942943872,1.0154440942943872,0.0,0,False
2024-05-28,1.0154440942943872,1.0154440942943872,0.0,0,False
2024-05-29,1.0154440942943872,1.0154440942943872,0.0,0,False
2024-05-30,1.0154440942943872,1.0154440942943872,0.0,0,False
2024-05-31,1.0154440942943872,1.0154440942943872,0.0,0,False
2024-06-01,1.0154440942943872,1.0154440942943872,0.0,0,False
2024-06-02,1.0154440942943872,1.0154440942943872,0.0,0,False
2024-06-03,1.0154440942943872,1.0067820245728711,-0.8530326553856438,3,True
2024-06-04,1.0067820245728711,1.0079585475325485,0.11685975026982653,1,True
2024-06-05,1.0079585475325485,1.0079585475325485,0.0,0,False
2024-06-06,1.0079585475325485,1.0029252756900415,-0.49935305919358575,1,True
2024-06-07,1.0029252756900415,1.0029252756900415,0.0,0,False
2024-06-08,1.0029252756900415,1.0354174897893387,3.2397442647899677,5,True
2024-06-09,1.0354174897893387,1.0354174897893387,0.0,0,False
2024-06-10,1.0354174897893387,1.0354174897893387,0.0,0,False
2024-06-11,1.0354174897893387,1.0354174897893387,0.0,0,False
2024-06-12,1.0354174897893387,1.0354174897893387,0.0,0,False
2024-06-13,1.0354174897893387,1.027966299946334,-0.7196314449469776,2,True
2024-06-14,1.027966299946334,1.0228346271586355,-0.49920632495115136,1,True
2024-06-15,1.0228346271586355,1.0330201844077074,0.995816623589163,1,True
2024-06-16,1.0330201844077074,1.0330201844077074,0.0,0,False
2024-06-17,1.0330201844077074,1.0330201844077074,0.0,0,False
2024-06-18,1.0330201844077074,1.0411123106342681,0.783346380709915,4,True
2024-06-19,1.0411123106342681,1.0411123106342681,0.0,0,False
2024-06-20,1.0411123106342681,1.0411123106342681,0.0,0,False
2024-06-21,1.0411123106342681,1.0411123106342681,0.0,0,False
2024-06-22,1.0411123106342681,1.0411123106342681,0.0,0,False
2024-06-23,1.0411123106342681,1.0488942837565778,0.7474672081793754,1,True
2024-06-24,1.0488942837565778,1.0493363966667029,0.042150378448213566,1,True
2024-06-25,1.0493363966667029,1.060592829081939,1.0727191443080653,0,True
2024-06-26,1.060592829081939,1.060592829081939,0.0,0,False
2024-06-27,1.060592829081939,1.0610228582557104,0.04054611364321392,1,True
2024-06-28,1.0610228582557104,1.055290876488031,-0.540231694640636,0,True
2024-06-29,1.055290876488031,1.044783122316047,-0.9957211235402164,2,True
2024-06-30,1.044783122316047,1.044783122316047,0.0,0,False
2024-07-01,1.044783122316047,1.044783122316047,0.0,0,False
2024-07-02,1.044783122316047,1.044783122316047,0.0,0,False
2024-07-03,1.044783122316047,1.044783122316047,0.0,0,False
2024-07-04,1.044783122316047,1.044783122316047,0.0,0,False
2024-07-05,1.044783122316047,1.0654350273984254,1.9766690944047483,5,True
2024-07-06,1.0654350273984254,1.0654350273984254,0.0,0,False
2024-07-07,1.0654350273984254,1.0629070337028659,-0.23727337946946037,1,True
2024-07-08,1.0629070337028659,1.0601078522614333,-0.263351483495311,0,True
2024-07-09,1.0601078522614333,1.0601078522614333,0.0,0,False
2024-07-10,1.0601078522614333,1.0601078522614333,0.0,0,False
2024-07-11,1.0601078522614333,1.0601078522614333,0.0,0,False
2024-07-12,1.0601078522614333,1.0601078522614333,0.0,0,False
2024-07-13,1.0601078522614333,1.0601078522614333,0.0,0,False
2024-07-14,1.0601078522614333,1.0601078522614333,0.0,0,False
2024-07-15,1.0601078522614333,1.0601078522614333,0.0,0,False
2024-07-16,1.0601078522614333,1.054810234373617,-0.49972442676614603,1,True
2024-07-17,1.054810234373617,1.0495438260699461,-0.49927542718603,1,True
2024-07-18,1.0495438260699461,1.0495438260699461,0.0,0,False
2024-07-19,1.0495438260699461,1.0495438260699461,0.0,0,False
2024-07-20,1.0495438260699461,1.051049770233712,0.14348559120251902,1,True
2024-07-21,1.051049770233712,1.051049770233712,0.0,0,False
2024-07-22,1.051049770233712,1.051049770233712,0.0,0,False
2024-07-23,1.051049770233712,1.045796096247022,-0.49985016271130167,1,True
2024-07-24,1.045796096247022,1.045796096247022,0.0,0,False
2024-07-25,1.045796096247022,1.045796096247022,0.0,0,False
2024-07-26,1.045796096247022,1.045796096247022,0.0,0,False
2024-07-27,1.045796096247022,1.045796096247022,0.0,0,False
2024-07-28,1.045796096247022,1.045796096247022,0.0,0,False
2024-07-29,1.045796096247022,1.045796096247022,0.0,0,False
2024-07-30,1.045796096247022,1.045796096247022,0.0,0,False
2024-07-31,1.045796096247022,1.0405750000365206,-0.4992460986647518,1,True
2024-08-01,1.0405750000365206,1.0405750000365206,0.0,0,False
2024-08-02,1.0405750000365206,1.0405750000365206,0.0,0,False
2024-08-03,1.0405750000365206,1.035381046143634,-0.49914267522325195,1,True
2024-08-04,1.035381046143634,1.035381046143634,0.0,0,False
2024-08-05,1.035381046143634,1.0147061858265136,-1.9968358889826732,4,True
2024-08-06,1.0147061858265136,1.0147061858265136,0.0,0,False
2024-08-07,1.0147061858265136,1.0147061858265136,0.0,0,False
2024-08-08,1.0147061858265136,1.0147061858265136,0.0,0,False
2024-08-09,1.0147061858265136,1.0147061858265136,0.0,0,False
2024-08-10,1.0147061858265136,1.0147061858265136,0.0,0,False
2024-08-11,1.0147061858265136,1.0147061858265136,0.0,0,False
2024-08-12,1.0147061858265136,1.0147061858265136,0.0,0,False
2024-08-13,1.0147061858265136,1.0147061858265136,0.0,0,False
2024-08-14,1.0147061858265136,1.0147061858265136,0.0,0,False
2024-08-15,1.0147061858265136,1.0147061858265136,0.0,0,False
2024-08-16,1.0147061858265136,1.0147061858265136,0.0,0,False
2024-08-17,1.0147061858265136,1.0147061858265136,0.0,0,False
2024-08-18,1.0147061858265136,1.0147061858265136,0.0,0,False
2024-08-19,1.0147061858265136,1.0147061858265136,0.0,0,False
2024-08-20,1.0147061858265136,1.0147061858265136,0.0,0,False
2024-08-21,1.0147061858265136,1.0147061858265136,0.0,0,False
2024-08-22,1.0147061858265136,1.0147061858265136,0.0,0,False
2024-08-23,1.0147061858265136,1.0147061858265136,0.0,0,False
2024-08-24,1.0147061858265136,1.0147061858265136,0.0,0,False
2024-08-25,1.0147061858265136,1.0147061858265136,0.0,0,False
2024-08-26,1.0147061858265136,1.0147061858265136,0.0,0,False
2024-08-27,1.0147061858265136,1.0147061858265136,0.0,0,False
2024-08-28,1.0147061858265136,1.0147061858265136,0.0,0,False
2024-08-29,1.0147061858265136,1.0096427584474414,-0.4990042881179324,1,True
2024-08-30,1.0096427584474414,1.0096427584474414,0.0,0,False
2024-08-31,1.0096427584474414,1.0096427584474414,0.0,0,False
2024-09-01,1.0096427584474414,1.0046122433178972,-0.49824703712824103,1,True
2024-09-02,1.0046122433178972,1.0046122433178972,0.0,0,False
2024-09-03,1.0046122433178972,1.0046122433178972,0.0,0,False
2024-09-04,1.0046122433178972,1.0046122433178972,0.0,0,False
2024-09-05,1.0046122433178972,1.0046122433178972,0.0,0,False
2024-09-06,1.0046122433178972,1.0046122433178972,0.0,0,False
2024-09-07,1.0046122433178972,1.0046122433178972,0.0,0,False
2024-09-08,1.0046122433178972,1.0046122433178972,0.0,0,False
2024-09-09,1.0046122433178972,1.0046122433178972,0.0,0,False
2024-09-10,1.0046122433178972,1.0046122433178972,0.0,0,False
2024-09-11,1.0046122433178972,1.0046122433178972,0.0,0,False
2024-09-12,1.0046122433178972,1.0046122433178972,0.0,0,False
2024-09-13,1.0046122433178972,1.0046122433178972,0.0,0,False
2024-09-14,1.0046122433178972,1.0046122433178972,0.0,0,False
2024-09-15,1.0046122433178972,1.0046122433178972,0.0,0,False
2024-09-16,1.0046122433178972,1.0046122433178972,0.0,0,False
2024-09-17,1.0046122433178972,1.0046122433178972,0.0,0,False
2024-09-18,1.0046122433178972,1.0046122433178972,0.0,0,False
2024-09-19,1.0046122433178972,1.0041234310223728,-0.04865681249415221,1,True
2024-09-20,1.0041234310223728,1.0068681999787215,0.2733497567678489,1,True
2024-09-21,1.0068681999787215,0.9980740741695114,-0.8734138002765235,1,True
2024-09-22,0.9980740741695114,1.0090687032581862,1.1015844788697882,1,True
2024-09-23,1.0090687032581862,1.0088479726792567,-0.021874682884992502,0,True
2024-09-24,1.0088479726792567,1.0088479726792567,0.0,0,False
2024-09-25,1.0088479726792567,1.0088479726792567,0.0,0,False
2024-09-26,1.0088479726792567,1.0088479726792567,0.0,0,False
2024-09-27,1.0088479726792567,1.0088479726792567,0.0,0,False
2024-09-28,1.0088479726792567,1.0088479726792567,0.0,0,False
2024-09-29,1.0088479726792567,1.0088479726792567,0.0,0,False
2024-09-30,1.0088479726792567,1.0088479726792567,0.0,0,False
2024-10-01,1.0088479726792567,1.0088479726792567,0.0,0,False
2024-10-02,1.0088479726792567,1.0088479726792567,0.0,0,False
2024-10-03,1.0088479726792567,1.0150563723135717,0.6153949655890223,1,True
2024-10-04,1.0150563723135717,1.0178567109662104,0.2758801115898768,0,True
2024-10-05,1.0178567109662104,1.0178567109662104,0.0,0,False
2024-10-06,1.0178567109662104,1.0178567109662104,0.0,0,False
2024-10-07,1.0178567109662104,1.0178567109662104,0.0,0,False
2024-10-08,1.0178567109662104,1.0178567109662104,0.0,0,False
2024-10-09,1.0178567109662104,1.0178567109662104,0.0,0,False
2024-10-10,1.0178567109662104,1.0178567109662104,0.0,0,False
2024-10-11,1.0178567109662104,1.0168578582585805,-0.09813293923087718,1,True
2024-10-12,1.0168578582585805,1.0175880631411305,0.07180992668931463,0,True
2024-10-13,1.0175880631411305,1.0175880631411305,0.0,0,False
2024-10-14,1.0175880631411305,1.0175880631411305,0.0,0,False
2024-10-15,1.0175880631411305,1.0175880631411305,0.0,0,False
2024-10-16,1.0175880631411305,1.0175880631411305,0.0,0,False
2024-10-17,1.0175880631411305,1.0175880631411305,0.0,0,False
2024-10-18,1.0175880631411305,1.0181329741666276,0.053549274528141844,1,True
2024-10-19,1.0181329741666276,1.0142023775143427,-0.386059262593097,1,True
2024-10-20,1.0142023775143427,1.0142023775143427,0.0,0,False
2024-10-21,1.0142023775143427,1.0243686766395013,1.0023935410282236,1,True
2024-10-22,1.0243686766395013,1.0243686766395013,0.0,0,False
2024-10-23,1.0243686766395013,1.019253691278848,-0.4993305122754532,1,True
2024-10-24,1.019253691278848,1.0141646258339727,-0.4992933053291182,1,True
2024-10-25,1.0141646258339727,1.0170754695730113,0.28701885915660696,1,True
2024-10-26,1.0170754695730113,1.0273970686941605,1.0148311929578213,2,True
2024-10-27,1.0273970686941605,1.0273970686941605,0.0,0,False
2024-10-28,1.0273970686941605,1.0273970686941605,0.0,0,False
2024-10-29,1.0273970686941605,1.0273970686941605,0.0,0,False
2024-10-30,1.0273970686941605,1.0273970686941605,0.0,0,False
2024-10-31,1.0273970686941605,1.0273970686941605,0.0,0,False
2024-11-01,1.0273970686941605,1.0273970686941605,0.0,0,False
2024-11-02,1.0273970686941605,1.0273970686941605,0.0,0,False
2024-11-03,1.0273970686941605,1.0273970686941605,0.0,0,False
2024-11-04,1.0273970686941605,1.0273970686941605,0.0,0,False
2024-11-05,1.0273970686941605,1.0273970686941605,0.0,0,False
2024-11-06,1.0273970686941605,1.0273970686941605,0.0,0,False
2024-11-07,1.0273970686941605,1.0273970686941605,0.0,0,False
2024-11-08,1.0273970686941605,1.0273970686941605,0.0,0,False
2024-11-09,1.0273970686941605,1.025782346268255,-0.15716634542843888,1,True
2024-11-10,1.025782346268255,1.0284566207728232,0.2607058421600916,0,True
2024-11-11,1.0284566207728232,1.0274832553542748,-0.09464331298845163,1,True
2024-11-12,1.0274832553542748,1.0287578137127777,0.12404663062499655,0,True
2024-11-13,1.0287578137127777,1.0287578137127777,0.0,0,False
2024-11-14,1.0287578137127777,1.0287578137127777,0.0,0,False
2024-11-15,1.0287578137127777,1.0287578137127777,0.0,0,False
2024-11-16,1.0287578137127777,1.0287578137127777,0.0,0,False
2024-11-17,1.0287578137127777,1.0287578137127777,0.0,0,False
2024-11-18,1.0287578137127777,1.0287578137127777,0.0,0,False
2024-11-19,1.0287578137127777,1.0287578137127777,0.0,0,False
2024-11-20,1.0287578137127777,1.0287578137127777,0.0,0,False
2024-11-21,1.0287578137127777,1.0287578137127777,0.0,0,False
2024-11-22,1.0287578137127777,1.0287578137127777,0.0,0,False
2024-11-23,1.0287578137127777,1.032525212381599,0.36620851074993244,1,True
2024-11-24,1.032525212381599,1.045552700227063,1.2617113547682912,4,True
2024-11-25,1.045552700227063,1.045650583458949,0.00936186496047764,1,True
2024-11-26,1.045650583458949,1.045650583458949,0.0,0,False
2024-11-27,1.045650583458949,1.045650583458949,0.0,0,False
2024-11-28,1.045650583458949,1.045650583458949,0.0,0,False
2024-11-29,1.045650583458949,1.045650583458949,0.0,0,False
2024-11-30,1.045650583458949,1.045650583458949,0.0,0,False
2024-12-01,1.045650583458949,1.045650583458949,0.0,0,False
2024-12-02,1.045650583458949,1.045650583458949,0.0,0,False
2024-12-03,1.045650583458949,1.045650583458949,0.0,0,False
2024-12-04,1.045650583458949,1.045650583458949,0.0,0,False
2024-12-05,1.045650583458949,1.0499973531476994,0.4157000203999006,1,True
2024-12-06,1.0499973531476994,1.0499973531476994,0.0,0,False
2024-12-07,1.0499973531476994,1.0499973531476994,0.0,0,False
2024-12-08,1.0499973531476994,1.0499973531476994,0.0,0,False
2024-12-09,1.0499973531476994,1.0447482609380445,-0.49991480396774923,1,True
2024-12-10,1.0447482609380445,1.0447482609380445,0.0,0,False
2024-12-11,1.0447482609380445,1.0447482609380445,0.0,0,False
2024-12-12,1.0447482609380445,1.0447482609380445,0.0,0,False
2024-12-13,1.0447482609380445,1.0447482609380445,0.0,0,False
2024-12-14,1.0447482609380445,1.0447482609380445,0.0,0,False
2024-12-15,1.0447482609380445,1.0382647732448163,-0.6205789409409412,2,True
2024-12-16,1.0382647732448163,1.0343410704098759,-0.3779096561927986,0,True
2024-12-17,1.0343410704098759,1.0343410704098759,0.0,0,False
2024-12-18,1.0343410704098759,1.0343410704098759,0.0,0,False
2024-12-19,1.0343410704098759,1.0343410704098759,0.0,0,False
2024-12-20,1.0343410704098759,1.029500026741145,-0.4680316587267086,2,True
2024-12-21,1.029500026741145,1.029500026741145,0.0,0,False
2024-12-22,1.029500026741145,1.029500026741145,0.0,0,False
2024-12-23,1.029500026741145,1.029500026741145,0.0,0,False
2024-12-24,1.029500026741145,1.029500026741145,0.0,0,False
2024-12-25,1.029500026741145,1.0367779617768946,0.7069387903551494,1,True
2024-12-26,1.0367779617768946,1.0365935390460708,-0.01778806433229141,0,True
2024-12-27,1.0365935390460708,1.0365935390460708,0.0,0,False
2024-12-28,1.0365935390460708,1.0365935390460708,0.0,0,False
2024-12-29,1.0365935390460708,1.0365935390460708,0.0,0,False
2024-12-30,1.0365935390460708,1.0365935390460708,0.0,0,False
2024-12-31,1.0365935390460708,1.0365935390460708,0.0,0,False
