day,start_equity,end_equity,return_pct,entries,active
2024-01-02,1.0,0.9985290200988501,-0.14709799011498603,1,True
2024-01-03,0.9985290200988501,0.9953866927176827,-0.31469564909154535,10,True
2024-01-04,0.9953866927176827,1.0106166966081827,1.53005902147616,6,True
2024-01-05,1.0106166966081827,0.9995405741043685,-1.09597659933659,4,True
2024-01-06,0.9995405741043685,0.9934963798088514,-0.6046972431242192,7,True
2024-01-07,0.9934963798088514,0.9846834265217368,-0.8870644590381116,3,True
2024-01-08,0.9846834265217368,0.9860560403365256,0.1393964575637563,7,True
2024-01-09,0.9860560403365256,0.9840577966258066,-0.20265011611683148,0,True
2024-01-10,0.9840577966258066,0.9840230723630472,-0.0035286812297474768,4,True
2024-01-11,0.9840230723630472,0.9853573065398546,0.13558972490383958,3,True
2024-01-12,0.9853573065398546,0.9776846595979638,-0.778666468596434,7,True
2024-01-13,0.9776846595979638,0.9708989073993467,-0.6940634827396708,10,True
2024-01-14,0.9708989073993467,0.9775535654653884,0.6854120460251467,0,True
2024-01-15,0.9775535654653884,0.9728024473729907,-0.48602125348863323,2,True
2024-01-16,0.9728024473729907,0.972397010237025,-0.04167723231582876,1,True
2024-01-17,0.972397010237025,0.9752852596288923,0.2970236808074178,0,True
2024-01-18,0.9752852596288923,0.972963577320399,-0.23805161470161762,1,True
2024-01-19,0.972963577320399,0.9693946067067982,-0.3668144108158633,1,True
2024-01-20,0.9693946067067982,0.994591089340325,2.599197732193259,7,True
2024-01-21,0.994591089340325,0.9938433643096618,-0.07517914031978101,1,True
2024-01-22,0.9938433643096618,0.976742094414362,-1.7207208408720032,4,True
2024-01-23,0.976742094414362,0.9547327351903376,-2.2533439840350944,9,True
2024-01-24,0.9547327351903376,0.9571955231695541,0.2579557491265261,1,True
2024-01-25,0.9571955231695541,0.9520085462716904,-0.5418931422378703,2,True
2024-01-26,0.9520085462716904,0.9520085462716904,0.0,0,False
2024-01-27,0.9520085462716904,0.9520085462716904,0.0,0,False
2024-01-28,0.9520085462716904,0.950566210637449,-0.1515044838504842,1,True
2024-01-29,0.950566210637449,0.950566210637449,0.0,0,False
2024-01-30,0.950566210637449,0.950566210637449,0.0,0,False
2024-01-31,0.950566210637449,0.9462889285437174,-0.4499720320232381,1,True
2024-02-01,0.9462889285437174,0.9462889285437174,0.0,0,False
2024-02-02,0.9462889285437174,0.9460358161388387,-0.026747898791146252,2,True
2024-02-03,0.9460358161388387,0.9556946251029995,1.0209770919226369,1,True
2024-02-04,0.9556946251029995,0.9533034870472689,-0.2501989644938085,1,True
2024-02-05,0.9533034870472689,0.9533034870472689,0.0,0,False
2024-02-06,0.9533034870472689,0.9469214962219756,-0.6694605560565559,2,True
2024-02-07,0.9469214962219756,0.9444557812228505,-0.26039275789628835,4,True
2024-02-08,0.9444557812228505,0.9624280431848627,1.902922542201213,1,True
2024-02-09,0.9624280431848627,0.975736920112411,1.3828438418634015,0,True
2024-02-10,0.975736920112411,0.969966445836228,-0.5913965288428469,2,True
2024-02-11,0.969966445836228,0.9687335207979155,-0.12711007103441974,0,True
2024-02-12,0.9687335207979155,0.9696742041523404,0.09710444969943666,1,True
2024-02-13,0.9696742041523404,0.9696742041523404,0.0,0,False
2024-02-14,0.9696742041523404,0.9714669889742283,0.1848852753028707,2,True
2024-02-15,0.9714669889742283,0.9863592023546778,1.5329613408865406,1,True
2024-02-16,0.9863592023546778,0.9838025620532956,-0.2591997210832364,3,True
2024-02-17,0.9838025620532956,0.9810271096627069,-0.28211477563100384,5,True
2024-02-18,0.9810271096627069,0.9885373900897677,0.7655527918737137,1,True
2024-02-19,0.9885373900897677,0.9889201925880451,0.038724129417366804,2,True
2024-02-20,0.9889201925880451,0.987710625214485,-0.12231192998441998,10,True
2024-02-21,0.987710625214485,0.9779430306409169,-0.9889125746163852,7,True
2024-02-22,0.9779430306409169,1.0036230086472493,2.625917584330284,4,True
2024-02-23,1.0036230086472493,0.9983788775292045,-0.5225200172635724,3,True
2024-02-24,0.9983788775292045,0.9880791192197211,-1.0316482591231635,8,True
2024-02-25,0.9880791192197211,0.9705714087857319,-1.7718935754674092,4,True
2024-02-26,0.9705714087857319,0.9628083857055064,-0.7998404867435416,5,True
2024-02-27,0.9628083857055064,0.9644720344391399,0.1727912592300873,3,True
2024-02-28,0.9644720344391399,0.9990458722010108,3.5847423800085876,5,True
2024-02-29,0.9990458722010108,1.0098875057987364,1.0851987780941652,8,True
2024-03-01,1.0098875057987364,1.009159568199487,-0.07208105804554776,6,True
2024-03-02,1.009159568199487,1.0066094827611975,-0.2526939761210545,5,True
2024-03-03,1.0066094827611975,1.0135552385392108,0.6900149359770236,10,True
2024-03-04,1.0135552385392108,1.019203327834255,0.557255202309892,1,True
2024-03-05,1.019203327834255,1.0486285399203983,2.8870796712045843,12,True
2024-03-06,1.0486285399203983,1.0302045996963294,-1.7569558258892615,16,True
2024-03-07,1.0302045996963294,1.0306249323511332,0.040800890903391895,3,True
2024-03-08,1.0306249323511332,1.026987101119945,-0.35297333850534685,5,True
2024-03-09,1.026987101119945,1.013933762835123,-1.2710323499279697,5,True
2024-03-10,1.013933762835123,1.0252332119749903,1.1144168932960774,9,True
2024-03-11,1.0252332119749903,1.0355323242538936,1.0045628798020845,3,True
2024-03-12,1.0355323242538936,1.0340803354531372,-0.14021665637551362,3,True
2024-03-13,1.0340803354531372,1.048620086295951,1.406056216748608,5,True
2024-03-14,1.048620086295951,1.0497893955320974,0.11150933035022348,5,True
2024-03-15,1.0497893955320974,1.032165540900597,-1.6787990721289003,18,True
2024-03-16,1.032165540900597,1.029263660588508,-0.2811448548802664,3,True
2024-03-17,1.029263660588508,1.0201495494964126,-0.885498190705003,7,True
2024-03-18,1.0201495494964126,1.0231671899943255,0.2958037377365441,4,True
2024-03-19,1.0231671899943255,0.9787870496522518,-4.337525751028027,16,True
2024-03-20,0.9787870496522518,0.9643831193102343,-1.4716102289190514,4,True
2024-03-21,0.9643831193102343,0.959740009770103,-0.4814590225772797,4,True
2024-03-22,0.959740009770103,0.9582323108752968,-0.1570945130408119,9,True
2024-03-23,0.9582323108752968,0.9630529312712796,0.5030742901561469,7,True
2024-03-24,0.9630529312712796,0.9570089359863589,-0.6275870296082453,4,True
2024-03-25,0.9570089359863589,0.9662998103473006,0.9708242014862645,4,True
2024-03-26,0.9662998103473006,0.9883788226258754,2.284902888539242,4,True
2024-03-27,0.9883788226258754,0.9841706086235712,-0.42576934126573596,6,True
2024-03-28,0.9841706086235712,0.9738614101677951,-1.047501151268293,2,True
2024-03-29,0.9738614101677951,0.9691272296746583,-0.48612466247339725,6,True
2024-03-30,0.9691272296746583,0.9595927244226234,-0.9838238943338351,2,True
2024-03-31,0.9595927244226234,0.9595927244226234,0.0,0,False
2024-04-01,0.9595927244226234,0.96105764602294,0.15266076565951803,5,True
2024-04-02,0.96105764602294,0.9565914935472131,-0.46471223596303846,6,True
2024-04-03,0.9565914935472131,0.9488034250194023,-0.8141477924846652,3,True
2024-04-04,0.9488034250194023,0.9482108501863764,-0.06245496352563773,1,True
2024-04-05,0.9482108501863764,0.9397537885653067,-0.8918967357742669,5,True
2024-04-06,0.9397537885653067,0.9348492308767961,-0.5218981554730662,1,True
2024-04-07,0.9348492308767961,0.947909881315054,1.3970862901612868,3,True
2024-04-08,0.947909881315054,0.9411791098052524,-0.71006449478761,1,True
2024-04-09,0.9411791098052524,0.9313790787488798,-1.0412503798985062,3,True
2024-04-10,0.9313790787488798,0.9313040988868069,-0.008050412961135844,4,True
2024-04-11,0.9313040988868069,0.9334830711742597,0.23397000937259715,1,True
2024-04-12,0.9334830711742597,0.9222885913589697,-1.1992161573115667,9,True
2024-04-13,0.9222885913589697,0.8998218033889911,-2.4359824224730264,13,True
2024-04-14,0.8998218033889911,0.8757290006481506,-2.677508218860658,16,True
2024-04-15,0.8757290006481506,0.874302935355386,-0.16284321881646635,4,True
2024-04-16,0.874302935355386,0.8696843072643843,-0.5282640494766566,1,True
2024-04-17,0.8696843072643843,0.8729360999208462,0.37390494795639384,1,True
2024-04-18,0.8729360999208462,0.8709864088938777,-0.2233486537153495,1,True
2024-04-19,0.8709864088938777,0.8817756086745693,1.2387334257481175,5,True
2024-04-20,0.8817756086745693,0.8826931433251144,0.10405534486537249,0,True
2024-04-21,0.8826931433251144,0.8826931433251144,0.0,0,False
2024-04-22,0.8826931433251144,0.8826931433251144,0.0,0,False
2024-04-23,0.8826931433251144,0.8957163099892804,1.475390033631352,3,True
2024-04-24,0.8957163099892804,0.8932562994448586,-0.27464170485532735,3,True
2024-04-25,0.8932562994448586,0.8946220626310646,0.15289712337374084,2,True
2024-04-26,0.8946220626310646,0.8939734023527616,-0.0725066265854557,2,True
2024-04-27,0.8939734023527616,0.8926214410393907,-0.15123059699682084,6,True
2024-04-28,0.8926214410393907,0.8933544338767841,0.08211687549650737,3,True
2024-04-29,0.8933544338767841,0.8981472202307375,0.5364932631670705,2,True
2024-04-30,0.8981472202307375,0.888574211013691,-1.0658619212323583,2,True
2024-05-01,0.888574211013691,0.8783754467031999,-1.147767309030534,6,True
2024-05-02,0.8783754467031999,0.8751941405109159,-0.36218068301252515,4,True
2024-05-03,0.8751941405109159,0.8726902030195163,-0.2861008061523229,1,True
2024-05-04,0.8726902030195163,0.87336594538818,0.07743210205932716,0,True
2024-05-05,0.87336594538818,0.8717182736154396,-0.18865766193895128,1,True
2024-05-06,0.8717182736154396,0.8717182736154396,0.0,0,False
2024-05-07,0.8717182736154396,0.8771627536606824,0.6245687637890018,3,True
2024-05-08,0.8771627536606824,0.879237712122719,0.23655341649848616,3,True
2024-05-09,0.879237712122719,0.8719880237602984,-0.824542471559575,1,True
2024-05-10,0.8719880237602984,0.8702728963370904,-0.19669162608585422,2,True
2024-05-11,0.8702728963370904,0.8642994323306575,-0.686389755624317,4,True
2024-05-12,0.8642994323306575,0.8584254822538693,-0.6796198003912401,1,True
2024-05-13,0.8584254822538693,0.8582027117660103,-0.02595105719300772,5,True
2024-05-14,0.8582027117660103,0.8582087452327503,0.0007030351520942446,4,True
2024-05-15,0.8582087452327503,0.8634343116352295,0.6088922341454417,3,True
2024-05-16,0.8634343116352295,0.8722727904012696,1.023642290668425,2,True
2024-05-17,0.8722727904012696,0.8722727904012696,0.0,0,False
2024-05-18,0.8722727904012696,0.8690043074854817,-0.3747088011634814,2,True
2024-05-19,0.8690043074854817,0.8689209170023318,-0.009596095489017298,0,True
2024-05-20,0.8689209170023318,0.8754004214477403,0.7456955309307123,2,True
2024-05-21,0.8754004214477403,0.869021197474926,-0.728720687872686,2,True
2024-05-22,0.869021197474926,0.8728550829818071,0.4411728411252813,1,True
2024-05-23,0.8728550829818071,0.8611565816260074,-1.3402570007195136,5,True
2024-05-24,0.8611565816260074,0.8614273163915679,0.031438506229530816,3,True
2024-05-25,0.8614273163915679,0.8599990423054362,-0.16580320346869515,0,True
2024-05-26,0.8599990423054362,0.864857376303945,0.5649231870636484,3,True
2024-05-27,0.864857376303945,0.8702897654496882,0.628125433693949,3,True
2024-05-28,0.8702897654496882,0.8798262080640932,1.0957778653730932,2,True
2024-05-29,0.8798262080640932,0.876083829542773,-0.4253542900881091,1,True
2024-05-30,0.876083829542773,0.860452793226854,-1.7841941363164748,5,True
2024-05-31,0.860452793226854,0.857802008112119,-0.3080686280061973,1,True
2024-06-01,0.857802008112119,0.853523635377759,-0.4987599345653293,2,True
2024-06-02,0.853523635377759,0.863866479411807,1.2117817955293653,0,True
2024-06-03,0.863866479411807,0.8523475965714653,-1.3334100945998961,5,True
2024-06-04,0.8523475965714653,0.8678530542193974,1.8191472247123253,7,True
2024-06-05,0.8678530542193974,0.867583616498636,-0.031046467999551464,0,True
2024-06-06,0.867583616498636,0.8670625394669313,-0.060060727495936383,2,True
2024-06-07,0.8670625394669313,0.863426219573105,-0.4193838077772294,0,True
2024-06-08,0.863426219573105,0.8886198735072921,2.9178699190584467,7,True
2024-06-09,0.8886198735072921,0.8955350557314874,0.7781935145003915,1,True
2024-06-10,0.8955350557314874,0.8946906317698494,-0.09429267522623741,0,True
2024-06-11,0.8946906317698494,0.8923604874901824,-0.2604413410541295,2,True
2024-06-12,0.8923604874901824,0.8876092657694761,-0.5324330007113409,3,True
2024-06-13,0.8876092657694761,0.8849520167605074,-0.2993714815116455,3,True
2024-06-14,0.8849520167605074,0.8728735166151984,-1.3648762776454326,6,True
2024-06-15,0.8728735166151984,0.8807778726974149,0.9055557227658495,5,True
2024-06-16,0.8807778726974149,0.8817752668670408,0.11324014834424023,0,True
2024-06-17,0.8817752668670408,0.8718363032727259,-1.1271538188668107,4,True
2024-06-18,0.8718363032727259,0.8813468578397614,1.0908647106497638,5,True
2024-06-19,0.8813468578397614,0.8758530436190253,-0.6233430313919541,2,True
2024-06-20,0.8758530436190253,0.8757777680420296,-0.008594544203976984,1,True
2024-06-21,0.8757777680420296,0.8720593868369008,-0.42458045189271987,1,True
2024-06-22,0.8720593868369008,0.8753574565904159,0.37819325189283326,2,True
2024-06-23,0.8753574565904159,0.8753580053215445,6.26865201747151e-05,2,True
2024-06-24,0.8753580053215445,0.8757264846195212,0.04209469676823563,1,True
2024-06-25,0.8757264846195212,0.8834433775261774,0.8811989864631053,0,True
2024-06-26,0.8834433775261774,0.8834433775261774,0.0,0,False
2024-06-27,0.8834433775261774,0.879046092564449,-0.4977438366272846,1,True
2024-06-28,0.879046092564449,0.8805310222860349,0.168925126241537,2,True
2024-06-29,0.8805310222860349,0.8644210538008893,-1.8295742089041722,5,True
2024-06-30,0.8644210538008893,0.8613296926071894,-0.35762215416978993,0,True
2024-07-01,0.8613296926071894,0.8541766329589466,-0.8304670917115287,2,True
2024-07-02,0.8541766329589466,0.8541766329589466,0.0,0,False
2024-07-03,0.8541766329589466,0.8519402749018915,-0.26181447381768974,1,True
2024-07-04,0.8519402749018915,0.845970637107578,-0.7007108326931633,5,True
2024-07-05,0.845970637107578,0.8029055002249832,-5.090618396619173,19,True
2024-07-06,0.8029055002249832,0.8082704976799345,0.6681978705399327,3,True
2024-07-07,0.8082704976799345,0.8098999912720305,0.20160250767202736,2,True
2024-07-08,0.8098999912720305,0.8109202889462445,0.1259782300542467,2,True
2024-07-09,0.8109202889462445,0.8227877242764162,1.463452757556838,2,True
2024-07-10,0.8227877242764162,0.8237366193345184,0.11532683705710589,1,True
2024-07-11,0.8237366193345184,0.8141150228255611,-1.1680428286325761,2,True
2024-07-12,0.8141150228255611,0.8141150228255611,0.0,0,False
2024-07-13,0.8141150228255611,0.8131493771695156,-0.11861292679430369,2,True
2024-07-14,0.8131493771695156,0.8301321613653021,2.088519609386119,1,True
2024-07-15,0.8301321613653021,0.8326409543462988,0.3022160925400863,0,True
2024-07-16,0.8326409543462988,0.8304218716958124,-0.2665113502888672,2,True
2024-07-17,0.8304218716958124,0.8333852841343246,0.3568562605968717,1,True
2024-07-18,0.8333852841343246,0.8333852841343246,0.0,0,False
2024-07-19,0.8333852841343246,0.8274715980960778,-0.7095980875627683,2,True
2024-07-20,0.8274715980960778,0.8274715980960778,0.0,0,False
2024-07-21,0.8274715980960778,0.8272278121745091,-0.02946154552369018,1,True
2024-07-22,0.8272278121745091,0.8278289867431537,0.07267339900773884,1,True
2024-07-23,0.8278289867431537,0.8272247222763444,-0.07299387633026289,3,True
2024-07-24,0.8272247222763444,0.8263423729794953,-0.10666379680009941,1,True
2024-07-25,0.8263423729794953,0.8244832629880505,-0.22498059548144989,3,True
2024-07-26,0.8244832629880505,0.8186615034155987,-0.7061100975358614,0,True
2024-07-27,0.8186615034155987,0.8220096071999964,0.40897291132278024,2,True
2024-07-28,0.8220096071999964,0.8153186794825333,-0.8139719607723639,2,True
2024-07-29,0.8153186794825333,0.8153186794825333,0.0,0,False
2024-07-30,0.8153186794825333,0.8118721996890625,-0.42271566691667317,2,True
2024-07-31,0.8118721996890625,0.8052017292818572,-0.8216158170904375,7,True
2024-08-01,0.8052017292818572,0.8013854656911461,-0.47395124127648236,1,True
2024-08-02,0.8013854656911461,0.791614955114438,-1.219202368273753,4,True
2024-08-03,0.791614955114438,0.7866208335254284,-0.6308776200782629,7,True
2024-08-04,0.7866208335254284,0.7716017853456966,-1.9093122810414864,5,True
2024-08-05,0.7716017853456966,0.7463777833327523,-3.269044018819023,16,True
2024-08-06,0.7463777833327523,0.7464360062364092,0.007800728392104439,0,True
2024-08-07,0.7464360062364092,0.7461869035050406,-0.03337228232391798,1,True
2024-08-08,0.7461869035050406,0.7428124840511721,-0.4522217473957202,0,True
2024-08-09,0.7428124840511721,0.7428124840511721,0.0,0,False
2024-08-10,0.7428124840511721,0.7428124840511721,0.0,0,False
2024-08-11,0.7428124840511721,0.7423566222015421,-0.06136970762039562,1,True
2024-08-12,0.7423566222015421,0.743462908046775,0.14902350327961056,1,True
2024-08-13,0.743462908046775,0.7408164806869271,-0.3559595685547423,0,True
2024-08-14,0.7408164806869271,0.7408164806869271,0.0,0,False
2024-08-15,0.7408164806869271,0.7408164806869271,0.0,0,False
2024-08-16,0.7408164806869271,0.7408164806869271,0.0,0,False
2024-08-17,0.7408164806869271,0.7624160751659083,2.91564713287058,1,True
2024-08-18,0.7624160751659083,0.7802838004263356,2.343566176321654,1,True
2024-08-19,0.7802838004263356,0.770262429229279,-1.2843238821030334,3,True
2024-08-20,0.770262429229279,0.765023865517722,-0.6801011593930095,2,True
2024-08-21,0.765023865517722,0.765023865517722,0.0,0,False
2024-08-22,0.765023865517722,0.765518322067369,0.06463282675663873,1,True
2024-08-23,0.765518322067369,0.7660424628751358,0.0684687475998258,0,True
2024-08-24,0.7660424628751358,0.7641519545935948,-0.2467889670822565,2,True
2024-08-25,0.7641519545935948,0.7624520614989193,-0.22245485134949616,2,True
2024-08-26,0.7624520614989193,0.7646849728630142,0.29285924674467,2,True
2024-08-27,0.7646849728630142,0.7596405559335296,-0.6596725590929275,1,True
2024-08-28,0.7596405559335296,0.7599152495151055,0.03616099475340917,4,True
2024-08-29,0.7599152495151055,0.7603540334008565,0.057741160745350406,3,True
2024-08-30,0.7603540334008565,0.7625982221141607,0.2951504976262953,0,True
2024-08-31,0.7625982221141607,0.7625982221141607,0.0,0,False
2024-09-01,0.7625982221141607,0.7588119476231381,-0.49649663233227725,1,True
2024-09-02,0.7588119476231381,0.7599603553264788,0.15134285997180363,1,True
2024-09-03,0.7599603553264788,0.7601172205929829,0.02064124337601836,0,True
2024-09-04,0.7601172205929829,0.7601172205929829,0.0,0,False
2024-09-05,0.7601172205929829,0.7601172205929829,0.0,0,False
2024-09-06,0.7601172205929829,0.7600035078981369,-0.014959889312515795,1,True
2024-09-07,0.7600035078981369,0.7589599894145868,-0.13730442987507363,0,True
2024-09-08,0.7589599894145868,0.7589599894145868,0.0,0,False
2024-09-09,0.7589599894145868,0.7589599894145868,0.0,0,False
2024-09-10,0.7589599894145868,0.7589599894145868,0.0,0,False
2024-09-11,0.7589599894145868,0.7514093339799266,-0.9948687071744344,2,True
2024-09-12,0.7514093339799266,0.7514093339799266,0.0,0,False
2024-09-13,0.7514093339799266,0.7494999104218577,-0.2541123022727687,1,True
2024-09-14,0.7494999104218577,0.7494999104218577,0.0,0,False
2024-09-15,0.7494999104218577,0.7514896441832857,0.2654748497979087,2,True
2024-09-16,0.7514896441832857,0.7493104649462383,-0.2899812730507656,3,True
2024-09-17,0.7493104649462383,0.7549972549208659,0.7589364142986499,1,True
2024-09-18,0.7549972549208659,0.7550851610288869,0.01164323544862178,0,True
2024-09-19,0.7550851610288869,0.755205945801833,0.015996178865629318,1,True
2024-09-20,0.755205945801833,0.756446018393072,0.16420323464514386,2,True
2024-09-21,0.756446018393072,0.7484437799299802,-1.0578730363458133,2,True
2024-09-22,0.7484437799299802,0.754447098555573,0.802106823060833,2,True
2024-09-23,0.754447098555573,0.7513857233437375,-0.40577731927083915,0,True
2024-09-24,0.7513857233437375,0.7513857233437375,0.0,0,False
2024-09-25,0.7513857233437375,0.7513857233437375,0.0,0,False
2024-09-26,0.7513857233437375,0.7513857233437375,0.0,0,False
2024-09-27,0.7513857233437375,0.7513857233437375,0.0,0,False
2024-09-28,0.7513857233437375,0.7513857233437375,0.0,0,False
2024-09-29,0.7513857233437375,0.7513857233437375,0.0,0,False
2024-09-30,0.7513857233437375,0.7481825637428716,-0.4263003010772648,2,True
2024-10-01,0.7481825637428716,0.7468719724702754,-0.17516998338478196,0,True
2024-10-02,0.7468719724702754,0.7277103687478258,-2.565580772708964,13,True
2024-10-03,0.7277103687478258,0.7268253040862501,-0.12162320334924148,3,True
2024-10-04,0.7268253040862501,0.7198946633817089,-0.9535497272283644,2,True
2024-10-05,0.7198946633817089,0.7198946633817089,0.0,0,False
2024-10-06,0.7198946633817089,0.7198946633817089,0.0,0,False
2024-10-07,0.7198946633817089,0.7198946633817089,0.0,0,False
2024-10-08,0.7198946633817089,0.7147063410009231,-0.7207057705378217,2,True
2024-10-09,0.7147063410009231,0.7147063410009231,0.0,0,False
2024-10-10,0.7147063410009231,0.7147063410009231,0.0,0,False
2024-10-11,0.7147063410009231,0.7136189815024847,-0.1521407375392303,1,True
2024-10-12,0.7136189815024847,0.7158071000735344,0.3066228096179291,1,True
2024-10-13,0.7158071000735344,0.7158071000735344,0.0,0,False
2024-10-14,0.7158071000735344,0.7158071000735344,0.0,0,False
2024-10-15,0.7158071000735344,0.7160304410216035,0.031201275880898827,1,True
2024-10-16,0.7160304410216035,0.7116986786095535,-0.6049690297900812,5,True
2024-10-17,0.7116986786095535,0.7094637064146081,-0.3140334894694341,2,True
2024-10-18,0.7094637064146081,0.7099686717622566,0.07117564197898218,2,True
2024-10-19,0.7099686717622566,0.704994836035967,-0.7005711553361604,2,True
2024-10-20,0.704994836035967,0.7040974222866788,-0.12729366279250476,2,True
2024-10-21,0.7040974222866788,0.7040181890436525,-0.011253164763613821,1,True
2024-10-22,0.7040181890436525,0.7024789809527583,-0.21863186418310532,0,True
2024-10-23,0.7024789809527583,0.6989760188537489,-0.49865721167320354,1,True
2024-10-24,0.6989760188537489,0.6940518659593315,-0.7044809495027504,3,True
2024-10-25,0.6940518659593315,0.6921789161601533,-0.26985732494061443,2,True
2024-10-26,0.6921789161601533,0.6865577581107463,-0.8120961095709478,10,True
2024-10-27,0.6865577581107463,0.6828013110897206,-0.5471421707275659,2,True
2024-10-28,0.6828013110897206,0.6802576723695083,-0.372529852960124,1,True
2024-10-29,0.6802576723695083,0.6923699117929597,1.780536981120906,2,True
2024-10-30,0.6923699117929597,0.6947501474115978,0.3437809150998783,0,True
2024-10-31,0.6947501474115978,0.6947501474115978,0.0,0,False
2024-11-01,0.6947501474115978,0.6919643532936188,-0.4009778376237727,3,True
2024-11-02,0.6919643532936188,0.6914550295070961,-0.07360549486377099,1,True
2024-11-03,0.6914550295070961,0.6902461110580211,-0.17483688706939615,2,True
2024-11-04,0.6902461110580211,0.7002170012376936,1.444541304896152,4,True
2024-11-05,0.7002170012376936,0.6949554911660251,-0.7514113571033487,1,True
2024-11-06,0.6949554911660251,0.6949838109508598,0.004075050157137383,2,True
2024-11-07,0.6949838109508598,0.6936288400826964,-0.1949643785672528,2,True
2024-11-08,0.6936288400826964,0.6924532167101823,-0.16948882523021291,2,True
2024-11-09,0.6924532167101823,0.6917123454544652,-0.1069922469617457,2,True
2024-11-10,0.6917123454544652,0.7002078212956577,1.2281804563732068,3,True
2024-11-11,0.7002078212956577,0.693602935039722,-0.9432751327618782,7,True
2024-11-12,0.693602935039722,0.6780078340919697,-2.248419111268496,6,True
2024-11-13,0.6780078340919697,0.6775186167518201,-0.07215511614327985,2,True
2024-11-14,0.6775186167518201,0.6828427251016366,0.785824657533607,4,True
2024-11-15,0.6828427251016366,0.6856690075890834,0.4138994798584372,8,True
2024-11-16,0.6856690075890834,0.6840963128860246,-0.22936645606729256,1,True
2024-11-17,0.6840963128860246,0.6786048918564718,-0.8027263012697627,7,True
2024-11-18,0.6786048918564718,0.6782102427801796,-0.05815594332255758,2,True
2024-11-19,0.6782102427801796,0.6714808448673866,-0.9922288824785741,4,True
2024-11-20,0.6714808448673866,0.6695374695598487,-0.2894163433540209,1,True
2024-11-21,0.6695374695598487,0.6780865343348722,1.2768612906225663,4,True
2024-11-22,0.6780865343348722,0.6793955290534603,0.19304242929290005,5,True
2024-11-23,0.6793955290534603,0.6835747285896766,0.6151349777115511,0,True
2024-11-24,0.6835747285896766,0.685646497557164,0.3030786365905813,13,True
2024-11-25,0.685646497557164,0.6901702435579647,0.659778182622972,3,True
2024-11-26,0.6901702435579647,0.6851509252767984,-0.7272579958374825,5,True
2024-11-27,0.6851509252767984,0.689456645334224,0.6284338090452257,3,True
2024-11-28,0.689456645334224,0.6915146399829427,0.29849515015132333,3,True
2024-11-29,0.6915146399829427,0.6968652437597267,0.7737513376312455,5,True
2024-11-30,0.6968652437597267,0.6959889257873024,-0.1257514247225755,1,True
2024-12-01,0.6959889257873024,0.6962349200396238,0.03534456414564513,3,True
2024-12-02,0.6962349200396238,0.7028640945753161,0.9521462289359128,10,True
2024-12-03,0.7028640945753161,0.692533927719006,-1.4697246503325379,6,True
2024-12-04,0.692533927719006,0.7085409891135755,2.3113757685911285,3,True
2024-12-05,0.7085409891135755,0.7150448238594345,0.9179193364657001,9,True
2024-12-06,0.7150448238594345,0.7130861419224283,-0.27392435713810004,2,True
2024-12-07,0.7130861419224283,0.7138487857264763,0.10694974410692115,2,True
2024-12-08,0.7138487857264763,0.7123509757594106,-0.2098217433460059,0,True
2024-12-09,0.7123509757594106,0.7118774286586868,-0.06647665502514943,2,True
2024-12-10,0.7118774286586868,0.6784878487869411,-4.690355183006433,16,True
2024-12-11,0.6784878487869411,0.6916758680158562,1.9437369810666238,9,True
2024-12-12,0.6916758680158562,0.6909180139328335,-0.10956780741776528,0,True
2024-12-13,0.6909180139328335,0.6909180139328335,0.0,0,False
2024-12-14,0.6909180139328335,0.6909180139328335,0.0,0,False
2024-12-15,0.6909180139328335,0.6839550731323153,-1.0077810478386295,3,True
2024-12-16,0.6839550731323153,0.6818993226059978,-0.3005680646394948,0,True
2024-12-17,0.6818993226059978,0.6818993226059978,0.0,0,False
2024-12-18,0.6818993226059978,0.6786468589305945,-0.47697124305292604,2,True
2024-12-19,0.6786468589305945,0.6738673178828403,-0.7042751299675687,10,True
2024-12-20,0.6738673178828403,0.6590264628462308,-2.202340823299842,17,True
2024-12-21,0.6590264628462308,0.6780560725531882,2.887533472445325,2,True
2024-12-22,0.6780560725531882,0.6757591792751289,-0.3387468044361741,1,True
2024-12-23,0.6757591792751289,0.6797719168428827,0.5938117736052462,3,True
2024-12-24,0.6797719168428827,0.678057815054442,-0.25215837047251055,0,True
2024-12-25,0.678057815054442,0.6824806940669024,0.6522864148546637,3,True
2024-12-26,0.6824806940669024,0.6774940421479745,-0.7306656382047083,1,True
2024-12-27,0.6774940421479745,0.6774940421479745,0.0,0,False
2024-12-28,0.6774940421479745,0.6741188622278889,-0.49818591900597786,1,True
2024-12-29,0.6741188622278889,0.7024906495736557,4.2087217752669215,4,True
2024-12-30,0.7024906495736557,0.7027601376055708,0.038361796285624195,2,True
2024-12-31,0.7027601376055708,0.7019598037551982,-0.11388435506594075,2,True
