day,start_equity,end_equity,return_pct,entries,active
2021-09-02,1.0,1.0,0.0,0,False
2021-09-03,1.0,1.0,0.0,0,False
2021-09-04,1.0,1.0,0.0,0,False
2021-09-05,1.0,1.0,0.0,0,False
2021-09-06,1.0,1.0,0.0,0,False
2021-09-07,1.0,1.0,0.0,0,False
2021-09-08,1.0,1.0,0.0,0,False
2021-09-09,1.0,1.0,0.0,0,False
2021-09-10,1.0,1.0,0.0,0,False
2021-09-11,1.0,1.0,0.0,0,False
2021-09-12,1.0,1.0,0.0,0,False
2021-09-13,1.0,1.0,0.0,0,False
2021-09-14,1.0,1.0,0.0,0,False
2021-09-15,1.0,1.0,0.0,0,False
2021-09-16,1.0,1.0,0.0,0,False
2021-09-17,1.0,1.0,0.0,0,False
2021-09-18,1.0,1.0,0.0,0,False
2021-09-19,1.0,1.0,0.0,0,False
2021-09-20,1.0,1.0,0.0,0,False
2021-09-21,1.0,1.0,0.0,0,False
2021-09-22,1.0,1.0,0.0,0,False
2021-09-23,1.0,1.0,0.0,0,False
2021-09-24,1.0,1.0,0.0,0,False
2021-09-25,1.0,1.0,0.0,0,False
2021-09-26,1.0,1.0,0.0,0,False
2021-09-27,1.0,1.0,0.0,0,False
2021-09-28,1.0,1.0,0.0,0,False
2021-09-29,1.0,1.0,0.0,0,False
2021-09-30,1.0,1.0,0.0,0,False
2021-10-01,1.0,1.0,0.0,0,False
2021-10-02,1.0,1.0,0.0,0,False
2021-10-03,1.0,1.0,0.0,0,False
2021-10-04,1.0,1.0,0.0,0,False
2021-10-05,1.0,1.0,0.0,0,False
2021-10-06,1.0,1.0013367622167146,0.13367622167146376,1,True
2021-10-07,1.0013367622167146,1.0004939772081831,-0.08416599093653554,0,True
2021-10-08,1.0004939772081831,1.0004939772081831,0.0,0,False
2021-10-09,1.0004939772081831,0.9981469044963843,-0.2345913883807782,3,True
2021-10-10,0.9981469044963843,1.000300551514583,0.21576453410787622,1,True
2021-10-11,1.000300551514583,0.9966563313634399,-0.3643125204345177,0,True
2021-10-12,0.9966563313634399,0.9966563313634399,0.0,0,False
2021-10-13,0.9966563313634399,1.0093296859517973,1.2715872251591431,4,True
2021-10-14,1.0093296859517973,1.0240572460201907,1.4591426640251148,0,True
2021-10-15,1.0240572460201907,1.0270188852363211,0.2892064118134252,1,True
2021-10-16,1.0270188852363211,1.0427005520389352,1.5269112406833374,0,True
2021-10-17,1.0427005520389352,1.0427005520389352,0.0,0,False
2021-10-18,1.0427005520389352,1.0415976715602953,-0.10577154452285908,1,True
2021-10-19,1.0415976715602953,1.0436552001066575,0.19753582429578032,0,True
2021-10-20,1.0436552001066575,1.0436552001066575,0.0,0,False
2021-10-21,1.0436552001066575,1.0436552001066575,0.0,0,False
2021-10-22,1.0436552001066575,1.0436552001066575,0.0,0,False
2021-10-23,1.0436552001066575,1.0436552001066575,0.0,0,False
2021-10-24,1.0436552001066575,1.0436552001066575,0.0,0,False
2021-10-25,1.0436552001066575,1.0468051728790095,0.3018212118360619,1,True
2021-10-26,1.0468051728790095,1.0501172550684676,0.3163991041760905,0,True
2021-10-27,1.0501172550684676,1.0471578313374177,-0.28181840806501546,6,True
2021-10-28,1.0471578313374177,1.0503922822407508,0.30887902535208234,0,True
2021-10-29,1.0503922822407508,1.0503922822407508,0.0,0,False
2021-10-30,1.0503922822407508,1.0503922822407508,0.0,0,False
2021-10-31,1.0503922822407508,1.0503922822407508,0.0,0,False
2021-11-01,1.0503922822407508,1.0516036962761168,0.11532967785918835,1,True
2021-11-02,1.0516036962761168,1.0511472370281638,-0.04340601403070021,0,True
2021-11-03,1.0511472370281638,1.0511361919146263,-0.0010507674993998073,1,True
2021-11-04,1.0511361919146263,1.0702077995943375,1.8143802702647482,1,True
2021-11-05,1.0702077995943375,1.0632450167485876,-0.6506010186422828,0,True
2021-11-06,1.0632450167485876,1.0600808583504642,-0.2975944724198598,1,True
2021-11-07,1.0600808583504642,1.060256225199405,0.016542780445427674,0,True
2021-11-08,1.060256225199405,1.060256225199405,0.0,0,False
2021-11-09,1.060256225199405,1.060256225199405,0.0,0,False
2021-11-10,1.060256225199405,1.060256225199405,0.0,0,False
2021-11-11,1.060256225199405,1.0287655991020972,-2.9700958455948,6,True
2021-11-12,1.0287655991020972,1.0287655991020972,0.0,0,False
2021-11-13,1.0287655991020972,1.0275956213521393,-0.11372636788973267,1,True
2021-11-14,1.0275956213521393,1.0279227644010245,0.03183577684524597,0,True
2021-11-15,1.0279227644010245,1.0279227644010245,0.0,0,False
2021-11-16,1.0279227644010245,1.047058640022141,1.8616063661424098,5,True
2021-11-17,1.047058640022141,1.0359947173625326,-1.0566669560526765,0,True
2021-11-18,1.0359947173625326,1.0330709398541826,-0.2822193452678423,2,True
2021-11-19,1.0330709398541826,1.0366541053321885,0.3468460238085447,1,True
2021-11-20,1.0366541053321885,1.0371733881570373,0.05009219779072982,0,True
2021-11-21,1.0371733881570373,1.0371733881570373,0.0,0,False
2021-11-22,1.0371733881570373,1.031995736509723,-0.49920791513119456,1,True
2021-11-23,1.031995736509723,1.031995736509723,0.0,0,False
2021-11-24,1.031995736509723,1.031995736509723,0.0,0,False
2021-11-25,1.031995736509723,1.034252620800851,0.21869124176432386,2,True
2021-11-26,1.034252620800851,1.0113545595229771,-2.2139717915477086,3,True
2021-11-27,1.0113545595229771,1.0113545595229771,0.0,0,False
2021-11-28,1.0113545595229771,1.0063063257604608,-0.49915568333399607,1,True
2021-11-29,1.0063063257604608,1.0063063257604608,0.0,0,False
2021-11-30,1.0063063257604608,1.0063063257604608,0.0,0,False
2021-12-01,1.0063063257604608,1.0063063257604608,0.0,0,False
2021-12-02,1.0063063257604608,1.0041296851580832,-0.2163000019633876,2,True
2021-12-03,1.0041296851580832,0.9984250182654211,-0.5681205303440517,1,True
2021-12-04,0.9984250182654211,0.9764109721307269,-2.204877254872828,8,True
2021-12-05,0.9764109721307269,0.9735116435553326,-0.29693732026253583,1,True
2021-12-06,0.9735116435553326,0.9591814964614763,-1.472005721628722,4,True
2021-12-07,0.9591814964614763,0.9605742484551195,0.1452021331501019,0,True
2021-12-08,0.9605742484551195,0.962195656564192,0.16879570857539772,1,True
2021-12-09,0.962195656564192,0.9610655006953173,-0.1174559312510648,0,True
2021-12-10,0.9610655006953173,0.9586648109438975,-0.24979460293630407,1,True
2021-12-11,0.9586648109438975,0.9584712524293699,-0.020190426551391916,1,True
2021-12-12,0.9584712524293699,0.9592177120675163,0.07788023232353503,0,True
2021-12-13,0.9592177120675163,0.9575322466455095,-0.1757124999676951,1,True
2021-12-14,0.9575322466455095,0.9568223524408678,-0.07413789009494964,0,True
2021-12-15,0.9568223524408678,0.9568223524408678,0.0,0,False
2021-12-16,0.9568223524408678,0.9568223524408678,0.0,0,False
2021-12-17,0.9568223524408678,0.9569434297506532,0.012654105485365719,2,True
2021-12-18,0.9569434297506532,0.959697368973549,0.28778495544019567,0,True
2021-12-19,0.959697368973549,0.9581999288237357,-0.15603253673758255,1,True
2021-12-20,0.9581999288237357,0.957299807531382,-0.093938776791469,0,True
2021-12-21,0.957299807531382,0.9560115601353507,-0.13457094484885523,1,True
2021-12-22,0.9560115601353507,0.9562272350023624,0.022559859734450072,0,True
2021-12-23,0.9562272350023624,0.9562272350023624,0.0,0,False
2021-12-24,0.9562272350023624,0.9562272350023624,0.0,0,False
2021-12-25,0.9562272350023624,0.9570016302095145,0.08098443328170557,1,True
2021-12-26,0.9570016302095145,0.9568418320780866,-0.01669779093196322,0,True
2021-12-27,0.9568418320780866,0.9568418320780866,0.0,0,False
2021-12-28,0.9568418320780866,0.9568418320780866,0.0,0,False
2021-12-29,0.9568418320780866,0.9568418320780866,0.0,0,False
2021-12-30,0.9568418320780866,0.9568418320780866,0.0,0,False
2021-12-31,0.9568418320780866,0.9568418320780866,0.0,0,False
2022-01-01,0.9568418320780866,0.9568418320780866,0.0,0,False
2022-01-02,0.9568418320780866,0.9568418320780866,0.0,0,False
2022-01-03,0.9568418320780866,0.9568418320780866,0.0,0,False
2022-01-04,0.9568418320780866,0.9568418320780866,0.0,0,False
2022-01-05,0.9568418320780866,0.9574559243529861,0.06417907895663877,1,True
2022-01-06,0.9574559243529861,0.949201098634182,-0.8621624775451031,9,True
2022-01-07,0.949201098634182,0.9544371183424107,0.5516238567109699,4,True
2022-01-08,0.9544371183424107,0.9548660375915352,0.044939497938778494,0,True
2022-01-09,0.9548660375915352,0.9551138562561097,0.02595323896947832,1,True
2022-01-10,0.9551138562561097,0.9558204435233074,0.07397937560738033,0,True
2022-01-11,0.9558204435233074,0.9558204435233074,0.0,0,False
2022-01-12,0.9558204435233074,0.9558204435233074,0.0,0,False
2022-01-13,0.9558204435233074,0.9558204435233074,0.0,0,False
2022-01-14,0.9558204435233074,0.9558204435233074,0.0,0,False
2022-01-15,0.9558204435233074,0.9559877981763407,0.017509005396076915,1,True
2022-01-16,0.9559877981763407,0.9555026259684078,-0.05075087870979322,0,True
2022-01-17,0.9555026259684078,0.9564861121681008,0.1029286757528336,1,True
2022-01-18,0.9564861121681008,0.9593968388314016,0.3043145766855826,0,True
2022-01-19,0.9593968388314016,0.9593968388314016,0.0,0,False
2022-01-20,0.9593968388314016,0.9593968388314016,0.0,0,False
2022-01-21,0.9593968388314016,0.9438246722088336,-1.623120484901297,7,True
2022-01-22,0.9438246722088336,0.9325123660375861,-1.1985601250254718,8,True
2022-01-23,0.9325123660375861,0.9370305377600212,0.4845160114748559,0,True
2022-01-24,0.9370305377600212,0.9341900734081608,-0.30313466182761983,2,True
2022-01-25,0.9341900734081608,0.94170973171962,0.8049387940963104,0,True
2022-01-26,0.94170973171962,0.94170973171962,0.0,0,False
2022-01-27,0.94170973171962,0.9480607766697694,0.6744164083928528,4,True
2022-01-28,0.9480607766697694,0.941904472113163,-0.6493575842501875,0,True
2022-01-29,0.941904472113163,0.941904472113163,0.0,0,False
2022-01-30,0.941904472113163,0.9451382826217092,0.3433268026948877,1,True
2022-01-31,0.9451382826217092,0.9445274053142888,-0.06463364342049749,0,True
2022-02-01,0.9445274053142888,0.9445274053142888,0.0,0,False
2022-02-02,0.9445274053142888,0.9445274053142888,0.0,0,False
2022-02-03,0.9445274053142888,0.9431497010940287,-0.14586175186750427,3,True
2022-02-04,0.9431497010940287,0.9460760764295548,0.31027686613605,0,True
2022-02-05,0.9460760764295548,0.9460760764295548,0.0,0,False
2022-02-06,0.9460760764295548,0.9460760764295548,0.0,0,False
2022-02-07,0.9460760764295548,0.9460760764295548,0.0,0,False
2022-02-08,0.9460760764295548,0.9460760764295548,0.0,0,False
2022-02-09,0.9460760764295548,0.9471946777071066,0.1182358697593644,2,True
2022-02-10,0.9471946777071066,0.9479430005848775,0.07900412611927532,5,True
2022-02-11,0.9479430005848775,0.9466836872363771,-0.13284694836328548,0,True
2022-02-12,0.9466836872363771,0.9372444199442931,-0.9970877727533023,4,True
2022-02-13,0.9372444199442931,0.9372444199442931,0.0,0,False
2022-02-14,0.9372444199442931,0.9372444199442931,0.0,0,False
2022-02-15,0.9372444199442931,0.9372444199442931,0.0,0,False
2022-02-16,0.9372444199442931,0.9372444199442931,0.0,0,False
2022-02-17,0.9372444199442931,0.9372444199442931,0.0,0,False
2022-02-18,0.9372444199442931,0.9372444199442931,0.0,0,False
2022-02-19,0.9372444199442931,0.9372444199442931,0.0,0,False
2022-02-20,0.9372444199442931,0.9372444199442931,0.0,0,False
2022-02-21,0.9372444199442931,0.9372444199442931,0.0,0,False
2022-02-22,0.9372444199442931,0.9364260924627512,-0.08731206760244081,2,True
2022-02-23,0.9364260924627512,0.9360394585646408,-0.041288244872972335,0,True
2022-02-24,0.9360394585646408,0.9267113274923791,-0.9965531887476065,4,True
2022-02-25,0.9267113274923791,0.9267113274923791,0.0,0,False
2022-02-26,0.9267113274923791,0.9267113274923791,0.0,0,False
2022-02-27,0.9267113274923791,0.9267113274923791,0.0,0,False
2022-02-28,0.9267113274923791,0.9277811180042081,0.11543945564189695,1,True
2022-03-01,0.9277811180042081,0.9291470542833419,0.14722613476678692,0,True
2022-03-02,0.9291470542833419,0.9291470542833419,0.0,0,False
2022-03-03,0.9291470542833419,0.9291470542833419,0.0,0,False
2022-03-04,0.9291470542833419,0.9282525200288785,-0.09627477699462039,1,True
2022-03-05,0.9282525200288785,0.927944297931539,-0.03320455271480505,0,True
2022-03-06,0.927944297931539,0.924848039270184,-0.33366859069631216,3,True
2022-03-07,0.924848039270184,0.9223190809322923,-0.2734458235849613,0,True
2022-03-08,0.9223190809322923,0.9227923629106929,0.051314343179598154,1,True
2022-03-09,0.9227923629106929,0.9268989992219416,0.4450227891240388,1,True
2022-03-10,0.9268989992219416,0.9256055152534698,-0.13954961323268122,3,True
2022-03-11,0.9256055152534698,0.9235658254067859,-0.22036275854788734,0,True
2022-03-12,0.9235658254067859,0.9235658254067859,0.0,0,False
2022-03-13,0.9235658254067859,0.9235658254067859,0.0,0,False
2022-03-14,0.9235658254067859,0.9212611415637287,-0.24954191457247088,1,True
2022-03-15,0.9212611415637287,0.9216428421044779,0.041432393436369175,1,True
2022-03-16,0.9216428421044779,0.923196997678706,0.16862883355979186,1,True
2022-03-17,0.923196997678706,0.9237886704501148,0.06408954674859135,1,True
2022-03-18,0.9237886704501148,0.9233503134655523,-0.047452084939392236,0,True
2022-03-19,0.9233503134655523,0.9233503134655523,0.0,0,False
2022-03-20,0.9233503134655523,0.9210441462381077,-0.24976081058434296,1,True
2022-03-21,0.9210441462381077,0.9208875664533448,-0.017000247534548762,3,True
2022-03-22,0.9208875664533448,0.9190593214831185,-0.1985307475990239,0,True
2022-03-23,0.9190593214831185,0.9190593214831185,0.0,0,False
2022-03-24,0.9190593214831185,0.9190593214831185,0.0,0,False
2022-03-25,0.9190593214831185,0.9190593214831185,0.0,0,False
2022-03-26,0.9190593214831185,0.9190593214831185,0.0,0,False
2022-03-27,0.9190593214831185,0.9190593214831185,0.0,0,False
2022-03-28,0.9190593214831185,0.9190593214831185,0.0,0,False
2022-03-29,0.9190593214831185,0.9190593214831185,0.0,0,False
2022-03-30,0.9190593214831185,0.9228314563416994,0.410434318047459,4,True
2022-03-31,0.9228314563416994,0.9253891295620589,0.27715496722431343,5,True
2022-04-01,0.9253891295620589,0.9150627147970947,-1.1158997264049564,0,True
2022-04-02,0.9150627147970947,0.9150627147970947,0.0,0,False
2022-04-03,0.9150627147970947,0.9127787794472819,-0.24959331342870872,1,True
2022-04-04,0.9127787794472819,0.9127787794472819,0.0,0,False
2022-04-05,0.9127787794472819,0.9125979104045988,-0.019815211172269365,3,True
2022-04-06,0.9125979104045988,0.9096326358562333,-0.3249267300043268,0,True
2022-04-07,0.9096326358562333,0.9096326358562333,0.0,0,False
2022-04-08,0.9096326358562333,0.9096326358562333,0.0,0,False
2022-04-09,0.9096326358562333,0.9096326358562333,0.0,0,False
2022-04-10,0.9096326358562333,0.9096326358562333,0.0,0,False
2022-04-11,0.9096326358562333,0.9096326358562333,0.0,0,False
2022-04-12,0.9096326358562333,0.9096326358562333,0.0,0,False
2022-04-13,0.9096326358562333,0.9096326358562333,0.0,0,False
2022-04-14,0.9096326358562333,0.9096326358562333,0.0,0,False
2022-04-15,0.9096326358562333,0.9096326358562333,0.0,0,False
2022-04-16,0.9096326358562333,0.9096326358562333,0.0,0,False
2022-04-17,0.9096326358562333,0.9096326358562333,0.0,0,False
2022-04-18,0.9096326358562333,0.9096326358562333,0.0,0,False
2022-04-19,0.9096326358562333,0.9096326358562333,0.0,0,False
2022-04-20,0.9096326358562333,0.9096326358562333,0.0,0,False
2022-04-21,0.9096326358562333,0.9096326358562333,0.0,0,False
2022-04-22,0.9096326358562333,0.9096326358562333,0.0,0,False
2022-04-23,0.9096326358562333,0.9096326358562333,0.0,0,False
2022-04-24,0.9096326358562333,0.9096326358562333,0.0,0,False
2022-04-25,0.9096326358562333,0.9096326358562333,0.0,0,False
2022-04-26,0.9096326358562333,0.9096326358562333,0.0,0,False
2022-04-27,0.9096326358562333,0.9096326358562333,0.0,0,False
2022-04-28,0.9096326358562333,0.9096326358562333,0.0,0,False
2022-04-29,0.9096326358562333,0.9096326358562333,0.0,0,False
2022-04-30,0.9096326358562333,0.9096326358562333,0.0,0,False
2022-05-01,0.9096326358562333,0.9096326358562333,0.0,0,False
2022-05-02,0.9096326358562333,0.9096326358562333,0.0,0,False
2022-05-03,0.9096326358562333,0.9096326358562333,0.0,0,False
2022-05-04,0.9096326358562333,0.9096326358562333,0.0,0,False
2022-05-05,0.9096326358562333,0.9096326358562333,0.0,0,False
2022-05-06,0.9096326358562333,0.9096326358562333,0.0,0,False
2022-05-07,0.9096326358562333,0.9096326358562333,0.0,0,False
2022-05-08,0.9096326358562333,0.9096326358562333,0.0,0,False
2022-05-09,0.9096326358562333,0.9096326358562333,0.0,0,False
2022-05-10,0.9096326358562333,0.9096326358562333,0.0,0,False
2022-05-11,0.9096326358562333,0.9096326358562333,0.0,0,False
2022-05-12,0.9096326358562333,0.9096326358562333,0.0,0,False
2022-05-13,0.9096326358562333,0.9096326358562333,0.0,0,False
2022-05-14,0.9096326358562333,0.9096326358562333,0.0,0,False
2022-05-15,0.9096326358562333,0.9096326358562333,0.0,0,False
2022-05-16,0.9096326358562333,0.9096326358562333,0.0,0,False
2022-05-17,0.9096326358562333,0.9096326358562333,0.0,0,False
2022-05-18,0.9096326358562333,0.9096326358562333,0.0,0,False
2022-05-19,0.9096326358562333,0.9096326358562333,0.0,0,False
2022-05-20,0.9096326358562333,0.9096326358562333,0.0,0,False
2022-05-21,0.9096326358562333,0.9096326358562333,0.0,0,False
2022-05-22,0.9096326358562333,0.9096326358562333,0.0,0,False
2022-05-23,0.9096326358562333,0.9096326358562333,0.0,0,False
2022-05-24,0.9096326358562333,0.9096326358562333,0.0,0,False
2022-05-25,0.9096326358562333,0.9096326358562333,0.0,0,False
2022-05-26,0.9096326358562333,0.9096326358562333,0.0,0,False
2022-05-27,0.9096326358562333,0.9096326358562333,0.0,0,False
2022-05-28,0.9096326358562333,0.9096326358562333,0.0,0,False
2022-05-29,0.9096326358562333,0.9096326358562333,0.0,0,False
2022-05-30,0.9096326358562333,0.9096326358562333,0.0,0,False
2022-05-31,0.9096326358562333,0.9096326358562333,0.0,0,False
2022-06-01,0.9096326358562333,0.9096326358562333,0.0,0,False
2022-06-02,0.9096326358562333,0.9096326358562333,0.0,0,False
2022-06-03,0.9096326358562333,0.9096326358562333,0.0,0,False
2022-06-04,0.9096326358562333,0.9096326358562333,0.0,0,False
2022-06-05,0.9096326358562333,0.9096326358562333,0.0,0,False
2022-06-06,0.9096326358562333,0.9096326358562333,0.0,0,False
2022-06-07,0.9096326358562333,0.9096326358562333,0.0,0,False
2022-06-08,0.9096326358562333,0.9096326358562333,0.0,0,False
2022-06-09,0.9096326358562333,0.9096326358562333,0.0,0,False
2022-06-10,0.9096326358562333,0.9096326358562333,0.0,0,False
2022-06-11,0.9096326358562333,0.9096326358562333,0.0,0,False
2022-06-12,0.9096326358562333,0.9096326358562333,0.0,0,False
2022-06-13,0.9096326358562333,0.9096326358562333,0.0,0,False
2022-06-14,0.9096326358562333,0.9096326358562333,0.0,0,False
2022-06-15,0.9096326358562333,0.9096326358562333,0.0,0,False
2022-06-16,0.9096326358562333,0.9096326358562333,0.0,0,False
2022-06-17,0.9096326358562333,0.9096326358562333,0.0,0,False
2022-06-18,0.9096326358562333,0.9096326358562333,0.0,0,False
2022-06-19,0.9096326358562333,0.9096326358562333,0.0,0,False
2022-06-20,0.9096326358562333,0.9096326358562333,0.0,0,False
2022-06-21,0.9096326358562333,0.9096326358562333,0.0,0,False
2022-06-22,0.9096326358562333,0.9096326358562333,0.0,0,False
2022-06-23,0.9096326358562333,0.9096326358562333,0.0,0,False
2022-06-24,0.9096326358562333,0.9096326358562333,0.0,0,False
2022-06-25,0.9096326358562333,0.9096326358562333,0.0,0,False
2022-06-26,0.9096326358562333,0.9096326358562333,0.0,0,False
2022-06-27,0.9096326358562333,0.9096326358562333,0.0,0,False
2022-06-28,0.9096326358562333,0.9096326358562333,0.0,0,False
2022-06-29,0.9096326358562333,0.9096326358562333,0.0,0,False
2022-06-30,0.9096326358562333,0.9096326358562333,0.0,0,False
2022-07-01,0.9096326358562333,0.9096326358562333,0.0,0,False
2022-07-02,0.9096326358562333,0.9096326358562333,0.0,0,False
2022-07-03,0.9096326358562333,0.9096326358562333,0.0,0,False
2022-07-04,0.9096326358562333,0.9096326358562333,0.0,0,False
2022-07-05,0.9096326358562333,0.9096326358562333,0.0,0,False
2022-07-06,0.9096326358562333,0.9096326358562333,0.0,0,False
2022-07-07,0.9096326358562333,0.9096326358562333,0.0,0,False
2022-07-08,0.9096326358562333,0.9096326358562333,0.0,0,False
2022-07-09,0.9096326358562333,0.9096326358562333,0.0,0,False
2022-07-10,0.9096326358562333,0.9096326358562333,0.0,0,False
2022-07-11,0.9096326358562333,0.9096326358562333,0.0,0,False
2022-07-12,0.9096326358562333,0.9096326358562333,0.0,0,False
2022-07-13,0.9096326358562333,0.9096326358562333,0.0,0,False
2022-07-14,0.9096326358562333,0.9096326358562333,0.0,0,False
2022-07-15,0.9096326358562333,0.9096326358562333,0.0,0,False
2022-07-16,0.9096326358562333,0.9096326358562333,0.0,0,False
2022-07-17,0.9096326358562333,0.9096326358562333,0.0,0,False
2022-07-18,0.9096326358562333,0.9096326358562333,0.0,0,False
2022-07-19,0.9096326358562333,0.9096326358562333,0.0,0,False
2022-07-20,0.9096326358562333,0.9096326358562333,0.0,0,False
2022-07-21,0.9096326358562333,0.9096326358562333,0.0,0,False
2022-07-22,0.9096326358562333,0.9096326358562333,0.0,0,False
2022-07-23,0.9096326358562333,0.9096326358562333,0.0,0,False
2022-07-24,0.9096326358562333,0.9096326358562333,0.0,0,False
2022-07-25,0.9096326358562333,0.9096326358562333,0.0,0,False
2022-07-26,0.9096326358562333,0.9096326358562333,0.0,0,False
2022-07-27,0.9096326358562333,0.9096326358562333,0.0,0,False
2022-07-28,0.9096326358562333,0.9096326358562333,0.0,0,False
2022-07-29,0.9096326358562333,0.9096326358562333,0.0,0,False
2022-07-30,0.9096326358562333,0.9096326358562333,0.0,0,False
2022-07-31,0.9096326358562333,0.9096326358562333,0.0,0,False
2022-08-01,0.9096326358562333,0.9096326358562333,0.0,0,False
2022-08-02,0.9096326358562333,0.9096326358562333,0.0,0,False
2022-08-03,0.9096326358562333,0.9096326358562333,0.0,0,False
2022-08-04,0.9096326358562333,0.9096326358562333,0.0,0,False
2022-08-05,0.9096326358562333,0.9096326358562333,0.0,0,False
2022-08-06,0.9096326358562333,0.9096326358562333,0.0,0,False
2022-08-07,0.9096326358562333,0.9096326358562333,0.0,0,False
2022-08-08,0.9096326358562333,0.9096326358562333,0.0,0,False
2022-08-09,0.9096326358562333,0.9096326358562333,0.0,0,False
2022-08-10,0.9096326358562333,0.9096326358562333,0.0,0,False
2022-08-11,0.9096326358562333,0.9096326358562333,0.0,0,False
2022-08-12,0.9096326358562333,0.9096326358562333,0.0,0,False
2022-08-13,0.9096326358562333,0.9096326358562333,0.0,0,False
2022-08-14,0.9096326358562333,0.9096326358562333,0.0,0,False
2022-08-15,0.9096326358562333,0.9096326358562333,0.0,0,False
2022-08-16,0.9096326358562333,0.9096326358562333,0.0,0,False
2022-08-17,0.9096326358562333,0.9096326358562333,0.0,0,False
2022-08-18,0.9096326358562333,0.9096326358562333,0.0,0,False
2022-08-19,0.9096326358562333,0.9096326358562333,0.0,0,False
2022-08-20,0.9096326358562333,0.9096326358562333,0.0,0,False
2022-08-21,0.9096326358562333,0.9096326358562333,0.0,0,False
2022-08-22,0.9096326358562333,0.9096326358562333,0.0,0,False
2022-08-23,0.9096326358562333,0.9096326358562333,0.0,0,False
2022-08-24,0.9096326358562333,0.9096326358562333,0.0,0,False
2022-08-25,0.9096326358562333,0.9096326358562333,0.0,0,False
2022-08-26,0.9096326358562333,0.9096326358562333,0.0,0,False
2022-08-27,0.9096326358562333,0.9096326358562333,0.0,0,False
2022-08-28,0.9096326358562333,0.9096326358562333,0.0,0,False
2022-08-29,0.9096326358562333,0.9096326358562333,0.0,0,False
2022-08-30,0.9096326358562333,0.9096326358562333,0.0,0,False
2022-08-31,0.9096326358562333,0.9096326358562333,0.0,0,False
2022-09-01,0.9096326358562333,0.9096326358562333,0.0,0,False
2022-09-02,0.9096326358562333,0.9096326358562333,0.0,0,False
2022-09-03,0.9096326358562333,0.9096326358562333,0.0,0,False
2022-09-04,0.9096326358562333,0.9096326358562333,0.0,0,False
2022-09-05,0.9096326358562333,0.9096326358562333,0.0,0,False
2022-09-06,0.9096326358562333,0.9096326358562333,0.0,0,False
2022-09-07,0.9096326358562333,0.9096326358562333,0.0,0,False
2022-09-08,0.9096326358562333,0.9096326358562333,0.0,0,False
2022-09-09,0.9096326358562333,0.9096326358562333,0.0,0,False
2022-09-10,0.9096326358562333,0.9096326358562333,0.0,0,False
2022-09-11,0.9096326358562333,0.9096326358562333,0.0,0,False
2022-09-12,0.9096326358562333,0.9096326358562333,0.0,0,False
2022-09-13,0.9096326358562333,0.9096326358562333,0.0,0,False
2022-09-14,0.9096326358562333,0.9096326358562333,0.0,0,False
2022-09-15,0.9096326358562333,0.9096326358562333,0.0,0,False
2022-09-16,0.9096326358562333,0.9096326358562333,0.0,0,False
2022-09-17,0.9096326358562333,0.9096326358562333,0.0,0,False
2022-09-18,0.9096326358562333,0.9096326358562333,0.0,0,False
2022-09-19,0.9096326358562333,0.9096326358562333,0.0,0,False
2022-09-20,0.9096326358562333,0.9096326358562333,0.0,0,False
2022-09-21,0.9096326358562333,0.9096326358562333,0.0,0,False
2022-09-22,0.9096326358562333,0.9096326358562333,0.0,0,False
2022-09-23,0.9096326358562333,0.9096326358562333,0.0,0,False
2022-09-24,0.9096326358562333,0.9096326358562333,0.0,0,False
2022-09-25,0.9096326358562333,0.9096326358562333,0.0,0,False
2022-09-26,0.9096326358562333,0.9096326358562333,0.0,0,False
2022-09-27,0.9096326358562333,0.9096326358562333,0.0,0,False
2022-09-28,0.9096326358562333,0.9096326358562333,0.0,0,False
2022-09-29,0.9096326358562333,0.9096326358562333,0.0,0,False
2022-09-30,0.9096326358562333,0.9096326358562333,0.0,0,False
2022-10-01,0.9096326358562333,0.9096326358562333,0.0,0,False
2022-10-02,0.9096326358562333,0.9096326358562333,0.0,0,False
2022-10-03,0.9096326358562333,0.9096326358562333,0.0,0,False
2022-10-04,0.9096326358562333,0.9096326358562333,0.0,0,False
2022-10-05,0.9096326358562333,0.9096326358562333,0.0,0,False
2022-10-06,0.9096326358562333,0.9096326358562333,0.0,0,False
2022-10-07,0.9096326358562333,0.9096326358562333,0.0,0,False
2022-10-08,0.9096326358562333,0.9096326358562333,0.0,0,False
2022-10-09,0.9096326358562333,0.9096326358562333,0.0,0,False
2022-10-10,0.9096326358562333,0.9096326358562333,0.0,0,False
2022-10-11,0.9096326358562333,0.9096326358562333,0.0,0,False
2022-10-12,0.9096326358562333,0.9096326358562333,0.0,0,False
2022-10-13,0.9096326358562333,0.9096326358562333,0.0,0,False
2022-10-14,0.9096326358562333,0.9096326358562333,0.0,0,False
2022-10-15,0.9096326358562333,0.9096326358562333,0.0,0,False
2022-10-16,0.9096326358562333,0.9096326358562333,0.0,0,False
2022-10-17,0.9096326358562333,0.9096326358562333,0.0,0,False
2022-10-18,0.9096326358562333,0.9096326358562333,0.0,0,False
2022-10-19,0.9096326358562333,0.9096326358562333,0.0,0,False
2022-10-20,0.9096326358562333,0.9096326358562333,0.0,0,False
2022-10-21,0.9096326358562333,0.9096326358562333,0.0,0,False
2022-10-22,0.9096326358562333,0.9096326358562333,0.0,0,False
2022-10-23,0.9096326358562333,0.9096326358562333,0.0,0,False
2022-10-24,0.9096326358562333,0.9096326358562333,0.0,0,False
2022-10-25,0.9096326358562333,0.9096326358562333,0.0,0,False
2022-10-26,0.9096326358562333,0.9096326358562333,0.0,0,False
2022-10-27,0.9096326358562333,0.9096326358562333,0.0,0,False
2022-10-28,0.9096326358562333,0.9096326358562333,0.0,0,False
2022-10-29,0.9096326358562333,0.9096326358562333,0.0,0,False
2022-10-30,0.9096326358562333,0.9096326358562333,0.0,0,False
2022-10-31,0.9096326358562333,0.9096326358562333,0.0,0,False
2022-11-01,0.9096326358562333,0.9096326358562333,0.0,0,False
2022-11-02,0.9096326358562333,0.9096326358562333,0.0,0,False
2022-11-03,0.9096326358562333,0.9096326358562333,0.0,0,False
2022-11-04,0.9096326358562333,0.9096326358562333,0.0,0,False
2022-11-05,0.9096326358562333,0.9096326358562333,0.0,0,False
2022-11-06,0.9096326358562333,0.9096326358562333,0.0,0,False
2022-11-07,0.9096326358562333,0.9096326358562333,0.0,0,False
2022-11-08,0.9096326358562333,0.9096326358562333,0.0,0,False
2022-11-09,0.9096326358562333,0.9096326358562333,0.0,0,False
2022-11-10,0.9096326358562333,0.9096326358562333,0.0,0,False
2022-11-11,0.9096326358562333,0.9096326358562333,0.0,0,False
2022-11-12,0.9096326358562333,0.9096326358562333,0.0,0,False
2022-11-13,0.9096326358562333,0.9096326358562333,0.0,0,False
2022-11-14,0.9096326358562333,0.9096326358562333,0.0,0,False
2022-11-15,0.9096326358562333,0.9096326358562333,0.0,0,False
2022-11-16,0.9096326358562333,0.9096326358562333,0.0,0,False
2022-11-17,0.9096326358562333,0.9096326358562333,0.0,0,False
2022-11-18,0.9096326358562333,0.9096326358562333,0.0,0,False
2022-11-19,0.9096326358562333,0.9096326358562333,0.0,0,False
2022-11-20,0.9096326358562333,0.9096326358562333,0.0,0,False
2022-11-21,0.9096326358562333,0.9096326358562333,0.0,0,False
2022-11-22,0.9096326358562333,0.9096326358562333,0.0,0,False
2022-11-23,0.9096326358562333,0.9096326358562333,0.0,0,False
2022-11-24,0.9096326358562333,0.9096326358562333,0.0,0,False
2022-11-25,0.9096326358562333,0.9096326358562333,0.0,0,False
2022-11-26,0.9096326358562333,0.9096326358562333,0.0,0,False
2022-11-27,0.9096326358562333,0.9096326358562333,0.0,0,False
2022-11-28,0.9096326358562333,0.9096326358562333,0.0,0,False
2022-11-29,0.9096326358562333,0.9096326358562333,0.0,0,False
2022-11-30,0.9096326358562333,0.9096326358562333,0.0,0,False
2022-12-01,0.9096326358562333,0.9096326358562333,0.0,0,False
2022-12-02,0.9096326358562333,0.9096326358562333,0.0,0,False
2022-12-03,0.9096326358562333,0.9096326358562333,0.0,0,False
2022-12-04,0.9096326358562333,0.9096326358562333,0.0,0,False
2022-12-05,0.9096326358562333,0.9096326358562333,0.0,0,False
2022-12-06,0.9096326358562333,0.9096326358562333,0.0,0,False
2022-12-07,0.9096326358562333,0.9096326358562333,0.0,0,False
2022-12-08,0.9096326358562333,0.9096326358562333,0.0,0,False
2022-12-09,0.9096326358562333,0.9096326358562333,0.0,0,False
2022-12-10,0.9096326358562333,0.9096326358562333,0.0,0,False
2022-12-11,0.9096326358562333,0.9096326358562333,0.0,0,False
2022-12-12,0.9096326358562333,0.9096326358562333,0.0,0,False
2022-12-13,0.9096326358562333,0.9096326358562333,0.0,0,False
2022-12-14,0.9096326358562333,0.9096326358562333,0.0,0,False
2022-12-15,0.9096326358562333,0.9096326358562333,0.0,0,False
2022-12-16,0.9096326358562333,0.9096326358562333,0.0,0,False
2022-12-17,0.9096326358562333,0.9096326358562333,0.0,0,False
2022-12-18,0.9096326358562333,0.9096326358562333,0.0,0,False
2022-12-19,0.9096326358562333,0.9096326358562333,0.0,0,False
2022-12-20,0.9096326358562333,0.9096326358562333,0.0,0,False
2022-12-21,0.9096326358562333,0.9096326358562333,0.0,0,False
2022-12-22,0.9096326358562333,0.9096326358562333,0.0,0,False
2022-12-23,0.9096326358562333,0.9096326358562333,0.0,0,False
2022-12-24,0.9096326358562333,0.9096326358562333,0.0,0,False
2022-12-25,0.9096326358562333,0.9096326358562333,0.0,0,False
2022-12-26,0.9096326358562333,0.9096326358562333,0.0,0,False
2022-12-27,0.9096326358562333,0.9096326358562333,0.0,0,False
2022-12-28,0.9096326358562333,0.9096326358562333,0.0,0,False
2022-12-29,0.9096326358562333,0.9096326358562333,0.0,0,False
2022-12-30,0.9096326358562333,0.9096326358562333,0.0,0,False
2022-12-31,0.9096326358562333,0.9096326358562333,0.0,0,False
2023-01-01,0.9096326358562333,0.9096326358562333,0.0,0,False
2023-01-02,0.9096326358562333,0.9096326358562333,0.0,0,False
2023-01-03,0.9096326358562333,0.9096326358562333,0.0,0,False
2023-01-04,0.9096326358562333,0.9096326358562333,0.0,0,False
2023-01-05,0.9096326358562333,0.9096326358562333,0.0,0,False
2023-01-06,0.9096326358562333,0.9096326358562333,0.0,0,False
2023-01-07,0.9096326358562333,0.9096326358562333,0.0,0,False
2023-01-08,0.9096326358562333,0.9096326358562333,0.0,0,False
2023-01-09,0.9096326358562333,0.9096326358562333,0.0,0,False
2023-01-10,0.9096326358562333,0.9096326358562333,0.0,0,False
2023-01-11,0.9096326358562333,0.9096326358562333,0.0,0,False
2023-01-12,0.9096326358562333,0.9096326358562333,0.0,0,False
2023-01-13,0.9096326358562333,0.9096326358562333,0.0,0,False
2023-01-14,0.9096326358562333,0.9096326358562333,0.0,0,False
2023-01-15,0.9096326358562333,0.9096326358562333,0.0,0,False
2023-01-16,0.9096326358562333,0.9096326358562333,0.0,0,False
2023-01-17,0.9096326358562333,0.9096326358562333,0.0,0,False
2023-01-18,0.9096326358562333,0.9096326358562333,0.0,0,False
2023-01-19,0.9096326358562333,0.9096326358562333,0.0,0,False
2023-01-20,0.9096326358562333,0.9096326358562333,0.0,0,False
2023-01-21,0.9096326358562333,0.9096326358562333,0.0,0,False
2023-01-22,0.9096326358562333,0.9096326358562333,0.0,0,False
2023-01-23,0.9096326358562333,0.9096326358562333,0.0,0,False
2023-01-24,0.9096326358562333,0.9096326358562333,0.0,0,False
2023-01-25,0.9096326358562333,0.9096326358562333,0.0,0,False
2023-01-26,0.9096326358562333,0.9096326358562333,0.0,0,False
2023-01-27,0.9096326358562333,0.9096326358562333,0.0,0,False
2023-01-28,0.9096326358562333,0.9096326358562333,0.0,0,False
2023-01-29,0.9096326358562333,0.9096326358562333,0.0,0,False
2023-01-30,0.9096326358562333,0.9096326358562333,0.0,0,False
2023-01-31,0.9096326358562333,0.9096326358562333,0.0,0,False
2023-02-01,0.9096326358562333,0.9096326358562333,0.0,0,False
2023-02-02,0.9096326358562333,0.9096326358562333,0.0,0,False
2023-02-03,0.9096326358562333,0.9096326358562333,0.0,0,False
2023-02-04,0.9096326358562333,0.9096326358562333,0.0,0,False
2023-02-05,0.9096326358562333,0.9096326358562333,0.0,0,False
2023-02-06,0.9096326358562333,0.9096326358562333,0.0,0,False
2023-02-07,0.9096326358562333,0.9096326358562333,0.0,0,False
2023-02-08,0.9096326358562333,0.9096326358562333,0.0,0,False
2023-02-09,0.9096326358562333,0.9096326358562333,0.0,0,False
2023-02-10,0.9096326358562333,0.9096326358562333,0.0,0,False
2023-02-11,0.9096326358562333,0.9096326358562333,0.0,0,False
2023-02-12,0.9096326358562333,0.9096326358562333,0.0,0,False
2023-02-13,0.9096326358562333,0.9096326358562333,0.0,0,False
2023-02-14,0.9096326358562333,0.9096326358562333,0.0,0,False
2023-02-15,0.9096326358562333,0.9096326358562333,0.0,0,False
2023-02-16,0.9096326358562333,0.9096326358562333,0.0,0,False
2023-02-17,0.9096326358562333,0.9096326358562333,0.0,0,False
2023-02-18,0.9096326358562333,0.9096326358562333,0.0,0,False
2023-02-19,0.9096326358562333,0.9096326358562333,0.0,0,False
2023-02-20,0.9096326358562333,0.9096326358562333,0.0,0,False
2023-02-21,0.9096326358562333,0.9096326358562333,0.0,0,False
2023-02-22,0.9096326358562333,0.9096326358562333,0.0,0,False
2023-02-23,0.9096326358562333,0.9096326358562333,0.0,0,False
2023-02-24,0.9096326358562333,0.9096326358562333,0.0,0,False
2023-02-25,0.9096326358562333,0.9096326358562333,0.0,0,False
2023-02-26,0.9096326358562333,0.9096326358562333,0.0,0,False
2023-02-27,0.9096326358562333,0.9096326358562333,0.0,0,False
2023-02-28,0.9096326358562333,0.9096326358562333,0.0,0,False
2023-03-01,0.9096326358562333,0.9096326358562333,0.0,0,False
2023-03-02,0.9096326358562333,0.9096326358562333,0.0,0,False
2023-03-03,0.9096326358562333,0.9096326358562333,0.0,0,False
2023-03-04,0.9096326358562333,0.9096326358562333,0.0,0,False
2023-03-05,0.9096326358562333,0.9096326358562333,0.0,0,False
2023-03-06,0.9096326358562333,0.9096326358562333,0.0,0,False
2023-03-07,0.9096326358562333,0.9096326358562333,0.0,0,False
2023-03-08,0.9096326358562333,0.9096326358562333,0.0,0,False
2023-03-09,0.9096326358562333,0.9096326358562333,0.0,0,False
2023-03-10,0.9096326358562333,0.9096326358562333,0.0,0,False
2023-03-11,0.9096326358562333,0.9096326358562333,0.0,0,False
2023-03-12,0.9096326358562333,0.9096326358562333,0.0,0,False
2023-03-13,0.9096326358562333,0.9096326358562333,0.0,0,False
2023-03-14,0.9096326358562333,0.9096326358562333,0.0,0,False
2023-03-15,0.9096326358562333,0.9096326358562333,0.0,0,False
2023-03-16,0.9096326358562333,0.9096326358562333,0.0,0,False
2023-03-17,0.9096326358562333,0.9096326358562333,0.0,0,False
2023-03-18,0.9096326358562333,0.9096326358562333,0.0,0,False
2023-03-19,0.9096326358562333,0.9096326358562333,0.0,0,False
2023-03-20,0.9096326358562333,0.9096326358562333,0.0,0,False
2023-03-21,0.9096326358562333,0.9096326358562333,0.0,0,False
2023-03-22,0.9096326358562333,0.9096326358562333,0.0,0,False
2023-03-23,0.9096326358562333,0.9096326358562333,0.0,0,False
2023-03-24,0.9096326358562333,0.9096326358562333,0.0,0,False
2023-03-25,0.9096326358562333,0.9096326358562333,0.0,0,False
2023-03-26,0.9096326358562333,0.9096326358562333,0.0,0,False
2023-03-27,0.9096326358562333,0.9096326358562333,0.0,0,False
2023-03-28,0.9096326358562333,0.9096326358562333,0.0,0,False
2023-03-29,0.9096326358562333,0.9096326358562333,0.0,0,False
2023-03-30,0.9096326358562333,0.9096326358562333,0.0,0,False
2023-03-31,0.9096326358562333,0.9096326358562333,0.0,0,False
2023-04-01,0.9096326358562333,0.9096326358562333,0.0,0,False
2023-04-02,0.9096326358562333,0.9096326358562333,0.0,0,False
2023-04-03,0.9096326358562333,0.9096326358562333,0.0,0,False
2023-04-04,0.9096326358562333,0.9096326358562333,0.0,0,False
2023-04-05,0.9096326358562333,0.9096326358562333,0.0,0,False
2023-04-06,0.9096326358562333,0.9096326358562333,0.0,0,False
2023-04-07,0.9096326358562333,0.9096326358562333,0.0,0,False
2023-04-08,0.9096326358562333,0.9096326358562333,0.0,0,False
2023-04-09,0.9096326358562333,0.9096326358562333,0.0,0,False
2023-04-10,0.9096326358562333,0.9096326358562333,0.0,0,False
2023-04-11,0.9096326358562333,0.9096326358562333,0.0,0,False
2023-04-12,0.9096326358562333,0.9096326358562333,0.0,0,False
2023-04-13,0.9096326358562333,0.9096326358562333,0.0,0,False
2023-04-14,0.9096326358562333,0.9096326358562333,0.0,0,False
2023-04-15,0.9096326358562333,0.9096326358562333,0.0,0,False
2023-04-16,0.9096326358562333,0.9096326358562333,0.0,0,False
2023-04-17,0.9096326358562333,0.9096326358562333,0.0,0,False
2023-04-18,0.9096326358562333,0.9096326358562333,0.0,0,False
2023-04-19,0.9096326358562333,0.9096326358562333,0.0,0,False
2023-04-20,0.9096326358562333,0.9096326358562333,0.0,0,False
2023-04-21,0.9096326358562333,0.9096326358562333,0.0,0,False
2023-04-22,0.9096326358562333,0.9096326358562333,0.0,0,False
2023-04-23,0.9096326358562333,0.9096326358562333,0.0,0,False
2023-04-24,0.9096326358562333,0.9096326358562333,0.0,0,False
2023-04-25,0.9096326358562333,0.9096326358562333,0.0,0,False
2023-04-26,0.9096326358562333,0.9096326358562333,0.0,0,False
2023-04-27,0.9096326358562333,0.9096326358562333,0.0,0,False
2023-04-28,0.9096326358562333,0.9096326358562333,0.0,0,False
2023-04-29,0.9096326358562333,0.9096326358562333,0.0,0,False
2023-04-30,0.9096326358562333,0.9096326358562333,0.0,0,False
2023-05-01,0.9096326358562333,0.9096326358562333,0.0,0,False
2023-05-02,0.9096326358562333,0.9096326358562333,0.0,0,False
2023-05-03,0.9096326358562333,0.9096326358562333,0.0,0,False
2023-05-04,0.9096326358562333,0.9096326358562333,0.0,0,False
2023-05-05,0.9096326358562333,0.9096326358562333,0.0,0,False
2023-05-06,0.9096326358562333,0.9096326358562333,0.0,0,False
2023-05-07,0.9096326358562333,0.9096326358562333,0.0,0,False
2023-05-08,0.9096326358562333,0.9096326358562333,0.0,0,False
2023-05-09,0.9096326358562333,0.9096326358562333,0.0,0,False
2023-05-10,0.9096326358562333,0.9096326358562333,0.0,0,False
2023-05-11,0.9096326358562333,0.9096326358562333,0.0,0,False
2023-05-12,0.9096326358562333,0.9096326358562333,0.0,0,False
2023-05-13,0.9096326358562333,0.9096326358562333,0.0,0,False
2023-05-14,0.9096326358562333,0.9096326358562333,0.0,0,False
2023-05-15,0.9096326358562333,0.9096326358562333,0.0,0,False
2023-05-16,0.9096326358562333,0.9096326358562333,0.0,0,False
2023-05-17,0.9096326358562333,0.9096326358562333,0.0,0,False
2023-05-18,0.9096326358562333,0.9096326358562333,0.0,0,False
2023-05-19,0.9096326358562333,0.9096326358562333,0.0,0,False
2023-05-20,0.9096326358562333,0.9096326358562333,0.0,0,False
2023-05-21,0.9096326358562333,0.9096326358562333,0.0,0,False
2023-05-22,0.9096326358562333,0.9096326358562333,0.0,0,False
2023-05-23,0.9096326358562333,0.9096326358562333,0.0,0,False
2023-05-24,0.9096326358562333,0.9096326358562333,0.0,0,False
2023-05-25,0.9096326358562333,0.9096326358562333,0.0,0,False
2023-05-26,0.9096326358562333,0.9096326358562333,0.0,0,False
2023-05-27,0.9096326358562333,0.9096326358562333,0.0,0,False
2023-05-28,0.9096326358562333,0.9096326358562333,0.0,0,False
2023-05-29,0.9096326358562333,0.9096326358562333,0.0,0,False
2023-05-30,0.9096326358562333,0.9096326358562333,0.0,0,False
2023-05-31,0.9096326358562333,0.9096326358562333,0.0,0,False
2023-06-01,0.9096326358562333,0.9096326358562333,0.0,0,False
2023-06-02,0.9096326358562333,0.9096326358562333,0.0,0,False
2023-06-03,0.9096326358562333,0.9096326358562333,0.0,0,False
2023-06-04,0.9096326358562333,0.9096326358562333,0.0,0,False
2023-06-05,0.9096326358562333,0.9096326358562333,0.0,0,False
2023-06-06,0.9096326358562333,0.9096326358562333,0.0,0,False
2023-06-07,0.9096326358562333,0.9096326358562333,0.0,0,False
2023-06-08,0.9096326358562333,0.9096326358562333,0.0,0,False
2023-06-09,0.9096326358562333,0.9096326358562333,0.0,0,False
2023-06-10,0.9096326358562333,0.9096326358562333,0.0,0,False
2023-06-11,0.9096326358562333,0.9096326358562333,0.0,0,False
2023-06-12,0.9096326358562333,0.9096326358562333,0.0,0,False
2023-06-13,0.9096326358562333,0.9096326358562333,0.0,0,False
2023-06-14,0.9096326358562333,0.9096326358562333,0.0,0,False
2023-06-15,0.9096326358562333,0.9096326358562333,0.0,0,False
2023-06-16,0.9096326358562333,0.9096326358562333,0.0,0,False
2023-06-17,0.9096326358562333,0.9096326358562333,0.0,0,False
2023-06-18,0.9096326358562333,0.9096326358562333,0.0,0,False
2023-06-19,0.9096326358562333,0.9096326358562333,0.0,0,False
2023-06-20,0.9096326358562333,0.9096326358562333,0.0,0,False
2023-06-21,0.9096326358562333,0.9096326358562333,0.0,0,False
2023-06-22,0.9096326358562333,0.9096326358562333,0.0,0,False
2023-06-23,0.9096326358562333,0.9096326358562333,0.0,0,False
2023-06-24,0.9096326358562333,0.9096326358562333,0.0,0,False
2023-06-25,0.9096326358562333,0.9096326358562333,0.0,0,False
2023-06-26,0.9096326358562333,0.9096326358562333,0.0,0,False
2023-06-27,0.9096326358562333,0.9096326358562333,0.0,0,False
2023-06-28,0.9096326358562333,0.9096326358562333,0.0,0,False
2023-06-29,0.9096326358562333,0.9096326358562333,0.0,0,False
2023-06-30,0.9096326358562333,0.9096326358562333,0.0,0,False
2023-07-01,0.9096326358562333,0.9096326358562333,0.0,0,False
2023-07-02,0.9096326358562333,0.9096326358562333,0.0,0,False
2023-07-03,0.9096326358562333,0.9096326358562333,0.0,0,False
2023-07-04,0.9096326358562333,0.9096326358562333,0.0,0,False
2023-07-05,0.9096326358562333,0.9096326358562333,0.0,0,False
2023-07-06,0.9096326358562333,0.9096326358562333,0.0,0,False
2023-07-07,0.9096326358562333,0.9096326358562333,0.0,0,False
2023-07-08,0.9096326358562333,0.9096326358562333,0.0,0,False
2023-07-09,0.9096326358562333,0.9096326358562333,0.0,0,False
2023-07-10,0.9096326358562333,0.9096326358562333,0.0,0,False
2023-07-11,0.9096326358562333,0.9096326358562333,0.0,0,False
2023-07-12,0.9096326358562333,0.9096326358562333,0.0,0,False
2023-07-13,0.9096326358562333,0.9096326358562333,0.0,0,False
2023-07-14,0.9096326358562333,0.9096326358562333,0.0,0,False
2023-07-15,0.9096326358562333,0.9096326358562333,0.0,0,False
2023-07-16,0.9096326358562333,0.9096326358562333,0.0,0,False
2023-07-17,0.9096326358562333,0.9096326358562333,0.0,0,False
2023-07-18,0.9096326358562333,0.9096326358562333,0.0,0,False
2023-07-19,0.9096326358562333,0.9096326358562333,0.0,0,False
2023-07-20,0.9096326358562333,0.9096326358562333,0.0,0,False
2023-07-21,0.9096326358562333,0.9096326358562333,0.0,0,False
2023-07-22,0.9096326358562333,0.9096326358562333,0.0,0,False
2023-07-23,0.9096326358562333,0.9096326358562333,0.0,0,False
2023-07-24,0.9096326358562333,0.9096326358562333,0.0,0,False
2023-07-25,0.9096326358562333,0.9096326358562333,0.0,0,False
2023-07-26,0.9096326358562333,0.9096326358562333,0.0,0,False
2023-07-27,0.9096326358562333,0.9096326358562333,0.0,0,False
2023-07-28,0.9096326358562333,0.9096326358562333,0.0,0,False
2023-07-29,0.9096326358562333,0.9096326358562333,0.0,0,False
2023-07-30,0.9096326358562333,0.9096326358562333,0.0,0,False
2023-07-31,0.9096326358562333,0.9096326358562333,0.0,0,False
2023-08-01,0.9096326358562333,0.9096326358562333,0.0,0,False
2023-08-02,0.9096326358562333,0.9096326358562333,0.0,0,False
2023-08-03,0.9096326358562333,0.9096326358562333,0.0,0,False
2023-08-04,0.9096326358562333,0.9096326358562333,0.0,0,False
2023-08-05,0.9096326358562333,0.9096326358562333,0.0,0,False
2023-08-06,0.9096326358562333,0.9096326358562333,0.0,0,False
2023-08-07,0.9096326358562333,0.9096326358562333,0.0,0,False
2023-08-08,0.9096326358562333,0.9096326358562333,0.0,0,False
2023-08-09,0.9096326358562333,0.9096326358562333,0.0,0,False
2023-08-10,0.9096326358562333,0.9096326358562333,0.0,0,False
2023-08-11,0.9096326358562333,0.9096326358562333,0.0,0,False
2023-08-12,0.9096326358562333,0.9096326358562333,0.0,0,False
2023-08-13,0.9096326358562333,0.9096326358562333,0.0,0,False
2023-08-14,0.9096326358562333,0.9096326358562333,0.0,0,False
2023-08-15,0.9096326358562333,0.9096326358562333,0.0,0,False
2023-08-16,0.9096326358562333,0.9096326358562333,0.0,0,False
2023-08-17,0.9096326358562333,0.9096326358562333,0.0,0,False
2023-08-18,0.9096326358562333,0.9096326358562333,0.0,0,False
2023-08-19,0.9096326358562333,0.9096326358562333,0.0,0,False
2023-08-20,0.9096326358562333,0.9096326358562333,0.0,0,False
2023-08-21,0.9096326358562333,0.9096326358562333,0.0,0,False
2023-08-22,0.9096326358562333,0.9096326358562333,0.0,0,False
2023-08-23,0.9096326358562333,0.9096326358562333,0.0,0,False
2023-08-24,0.9096326358562333,0.9096326358562333,0.0,0,False
2023-08-25,0.9096326358562333,0.9096326358562333,0.0,0,False
2023-08-26,0.9096326358562333,0.9096326358562333,0.0,0,False
2023-08-27,0.9096326358562333,0.9096326358562333,0.0,0,False
2023-08-28,0.9096326358562333,0.9096326358562333,0.0,0,False
2023-08-29,0.9096326358562333,0.9096326358562333,0.0,0,False
2023-08-30,0.9096326358562333,0.9096326358562333,0.0,0,False
2023-08-31,0.9096326358562333,0.9096326358562333,0.0,0,False
2023-09-01,0.9096326358562333,0.9096326358562333,0.0,0,False
2023-09-02,0.9096326358562333,0.9096326358562333,0.0,0,False
2023-09-03,0.9096326358562333,0.9096326358562333,0.0,0,False
2023-09-04,0.9096326358562333,0.9096326358562333,0.0,0,False
2023-09-05,0.9096326358562333,0.9096326358562333,0.0,0,False
2023-09-06,0.9096326358562333,0.9096326358562333,0.0,0,False
2023-09-07,0.9096326358562333,0.9096326358562333,0.0,0,False
2023-09-08,0.9096326358562333,0.9096326358562333,0.0,0,False
2023-09-09,0.9096326358562333,0.9096326358562333,0.0,0,False
2023-09-10,0.9096326358562333,0.9096326358562333,0.0,0,False
2023-09-11,0.9096326358562333,0.9096326358562333,0.0,0,False
2023-09-12,0.9096326358562333,0.9096326358562333,0.0,0,False
2023-09-13,0.9096326358562333,0.9096326358562333,0.0,0,False
2023-09-14,0.9096326358562333,0.9096326358562333,0.0,0,False
2023-09-15,0.9096326358562333,0.9096326358562333,0.0,0,False
2023-09-16,0.9096326358562333,0.9096326358562333,0.0,0,False
2023-09-17,0.9096326358562333,0.9096326358562333,0.0,0,False
2023-09-18,0.9096326358562333,0.9096326358562333,0.0,0,False
2023-09-19,0.9096326358562333,0.9096326358562333,0.0,0,False
2023-09-20,0.9096326358562333,0.9096326358562333,0.0,0,False
2023-09-21,0.9096326358562333,0.9096326358562333,0.0,0,False
2023-09-22,0.9096326358562333,0.9096326358562333,0.0,0,False
2023-09-23,0.9096326358562333,0.9096326358562333,0.0,0,False
2023-09-24,0.9096326358562333,0.9096326358562333,0.0,0,False
2023-09-25,0.9096326358562333,0.9096326358562333,0.0,0,False
2023-09-26,0.9096326358562333,0.9096326358562333,0.0,0,False
2023-09-27,0.9096326358562333,0.9096326358562333,0.0,0,False
2023-09-28,0.9096326358562333,0.9096326358562333,0.0,0,False
2023-09-29,0.9096326358562333,0.9096326358562333,0.0,0,False
2023-09-30,0.9096326358562333,0.9096326358562333,0.0,0,False
2023-10-01,0.9096326358562333,0.9096326358562333,0.0,0,False
2023-10-02,0.9096326358562333,0.9096326358562333,0.0,0,False
2023-10-03,0.9096326358562333,0.9096326358562333,0.0,0,False
2023-10-04,0.9096326358562333,0.9096326358562333,0.0,0,False
2023-10-05,0.9096326358562333,0.9096326358562333,0.0,0,False
2023-10-06,0.9096326358562333,0.9096326358562333,0.0,0,False
2023-10-07,0.9096326358562333,0.9096326358562333,0.0,0,False
2023-10-08,0.9096326358562333,0.9096326358562333,0.0,0,False
2023-10-09,0.9096326358562333,0.9096326358562333,0.0,0,False
2023-10-10,0.9096326358562333,0.9096326358562333,0.0,0,False
2023-10-11,0.9096326358562333,0.9096326358562333,0.0,0,False
2023-10-12,0.9096326358562333,0.9096326358562333,0.0,0,False
2023-10-13,0.9096326358562333,0.9096326358562333,0.0,0,False
2023-10-14,0.9096326358562333,0.9096326358562333,0.0,0,False
2023-10-15,0.9096326358562333,0.9096326358562333,0.0,0,False
2023-10-16,0.9096326358562333,0.9096326358562333,0.0,0,False
2023-10-17,0.9096326358562333,0.9096326358562333,0.0,0,False
2023-10-18,0.9096326358562333,0.9096326358562333,0.0,0,False
2023-10-19,0.9096326358562333,0.9096326358562333,0.0,0,False
2023-10-20,0.9096326358562333,0.9096326358562333,0.0,0,False
2023-10-21,0.9096326358562333,0.9096326358562333,0.0,0,False
2023-10-22,0.9096326358562333,0.9096326358562333,0.0,0,False
2023-10-23,0.9096326358562333,0.9096326358562333,0.0,0,False
2023-10-24,0.9096326358562333,0.9096326358562333,0.0,0,False
2023-10-25,0.9096326358562333,0.9096326358562333,0.0,0,False
2023-10-26,0.9096326358562333,0.9096326358562333,0.0,0,False
2023-10-27,0.9096326358562333,0.9096326358562333,0.0,0,False
2023-10-28,0.9096326358562333,0.9096326358562333,0.0,0,False
2023-10-29,0.9096326358562333,0.9096326358562333,0.0,0,False
2023-10-30,0.9096326358562333,0.9096326358562333,0.0,0,False
2023-10-31,0.9096326358562333,0.9096326358562333,0.0,0,False
2023-11-01,0.9096326358562333,0.9096326358562333,0.0,0,False
2023-11-02,0.9096326358562333,0.9096326358562333,0.0,0,False
2023-11-03,0.9096326358562333,0.9096326358562333,0.0,0,False
2023-11-04,0.9096326358562333,0.9096326358562333,0.0,0,False
2023-11-05,0.9096326358562333,0.9096326358562333,0.0,0,False
2023-11-06,0.9096326358562333,0.9096326358562333,0.0,0,False
2023-11-07,0.9096326358562333,0.9096326358562333,0.0,0,False
2023-11-08,0.9096326358562333,0.9096326358562333,0.0,0,False
2023-11-09,0.9096326358562333,0.9096326358562333,0.0,0,False
2023-11-10,0.9096326358562333,0.9096326358562333,0.0,0,False
2023-11-11,0.9096326358562333,0.9096326358562333,0.0,0,False
2023-11-12,0.9096326358562333,0.9096326358562333,0.0,0,False
2023-11-13,0.9096326358562333,0.9096326358562333,0.0,0,False
2023-11-14,0.9096326358562333,0.9096326358562333,0.0,0,False
2023-11-15,0.9096326358562333,0.9096326358562333,0.0,0,False
2023-11-16,0.9096326358562333,0.9096326358562333,0.0,0,False
2023-11-17,0.9096326358562333,0.9096326358562333,0.0,0,False
2023-11-18,0.9096326358562333,0.9096326358562333,0.0,0,False
2023-11-19,0.9096326358562333,0.9096326358562333,0.0,0,False
2023-11-20,0.9096326358562333,0.9096326358562333,0.0,0,False
2023-11-21,0.9096326358562333,0.9096326358562333,0.0,0,False
2023-11-22,0.9096326358562333,0.9096326358562333,0.0,0,False
2023-11-23,0.9096326358562333,0.9096326358562333,0.0,0,False
2023-11-24,0.9096326358562333,0.9096326358562333,0.0,0,False
2023-11-25,0.9096326358562333,0.9096326358562333,0.0,0,False
2023-11-26,0.9096326358562333,0.9096326358562333,0.0,0,False
2023-11-27,0.9096326358562333,0.9096326358562333,0.0,0,False
2023-11-28,0.9096326358562333,0.9096326358562333,0.0,0,False
2023-11-29,0.9096326358562333,0.9096326358562333,0.0,0,False
2023-11-30,0.9096326358562333,0.9096326358562333,0.0,0,False
2023-12-01,0.9096326358562333,0.9096326358562333,0.0,0,False
2023-12-02,0.9096326358562333,0.9096326358562333,0.0,0,False
2023-12-03,0.9096326358562333,0.9096326358562333,0.0,0,False
2023-12-04,0.9096326358562333,0.9096326358562333,0.0,0,False
2023-12-05,0.9096326358562333,0.9096326358562333,0.0,0,False
2023-12-06,0.9096326358562333,0.9096326358562333,0.0,0,False
2023-12-07,0.9096326358562333,0.9096326358562333,0.0,0,False
2023-12-08,0.9096326358562333,0.9096326358562333,0.0,0,False
2023-12-09,0.9096326358562333,0.9096326358562333,0.0,0,False
2023-12-10,0.9096326358562333,0.9096326358562333,0.0,0,False
2023-12-11,0.9096326358562333,0.9096326358562333,0.0,0,False
2023-12-12,0.9096326358562333,0.9096326358562333,0.0,0,False
2023-12-13,0.9096326358562333,0.9096326358562333,0.0,0,False
2023-12-14,0.9096326358562333,0.9096326358562333,0.0,0,False
2023-12-15,0.9096326358562333,0.9096326358562333,0.0,0,False
2023-12-16,0.9096326358562333,0.9096326358562333,0.0,0,False
2023-12-17,0.9096326358562333,0.9096326358562333,0.0,0,False
2023-12-18,0.9096326358562333,0.9096326358562333,0.0,0,False
2023-12-19,0.9096326358562333,0.9096326358562333,0.0,0,False
2023-12-20,0.9096326358562333,0.9096326358562333,0.0,0,False
2023-12-21,0.9096326358562333,0.9096326358562333,0.0,0,False
2023-12-22,0.9096326358562333,0.9096326358562333,0.0,0,False
2023-12-23,0.9096326358562333,0.9096326358562333,0.0,0,False
2023-12-24,0.9096326358562333,0.9096326358562333,0.0,0,False
2023-12-25,0.9096326358562333,0.9096326358562333,0.0,0,False
2023-12-26,0.9096326358562333,0.9096326358562333,0.0,0,False
2023-12-27,0.9096326358562333,0.9096326358562333,0.0,0,False
2023-12-28,0.9096326358562333,0.9096326358562333,0.0,0,False
2023-12-29,0.9096326358562333,0.9096326358562333,0.0,0,False
2023-12-30,0.9096326358562333,0.9096326358562333,0.0,0,False
2023-12-31,0.9096326358562333,0.9096326358562333,0.0,0,False
