day,start_equity,end_equity,return_pct,entries,active
2024-01-02,1.0,1.0,0.0,0,False
2024-01-03,1.0,1.0092932468531264,0.929324685312638,4,True
2024-01-04,1.0092932468531264,1.0110458065700842,0.17364227120533204,1,True
2024-01-05,1.0110458065700842,1.0110458065700842,0.0,0,False
2024-01-06,1.0110458065700842,1.0110458065700842,0.0,0,False
2024-01-07,1.0110458065700842,1.0110458065700842,0.0,0,False
2024-01-08,1.0110458065700842,1.0080903197317614,-0.29231977612855786,1,True
2024-01-09,1.0080903197317614,1.0081193771343773,0.0028824205576594153,0,True
2024-01-10,1.0081193771343773,1.0071027496715028,-0.10084395617553366,1,True
2024-01-11,1.0071027496715028,1.0071027496715028,0.0,0,False
2024-01-12,1.0071027496715028,1.0071027496715028,0.0,0,False
2024-01-13,1.0071027496715028,1.0071027496715028,0.0,0,False
2024-01-14,1.0071027496715028,1.0071027496715028,0.0,0,False
2024-01-15,1.0071027496715028,1.0071027496715028,0.0,0,False
2024-01-16,1.0071027496715028,1.0071027496715028,0.0,0,False
2024-01-17,1.0071027496715028,1.0071027496715028,0.0,0,False
2024-01-18,1.0071027496715028,1.0071027496715028,0.0,0,False
2024-01-19,1.0071027496715028,1.0071027496715028,0.0,0,False
2024-01-20,1.0071027496715028,1.0071027496715028,0.0,0,False
2024-01-21,1.0071027496715028,1.0071027496715028,0.0,0,False
2024-01-22,1.0071027496715028,1.0071027496715028,0.0,0,False
2024-01-23,1.0071027496715028,0.9970767511019515,-0.9955288646388505,2,True
2024-01-24,0.9970767511019515,0.9970767511019515,0.0,0,False
2024-01-25,0.9970767511019515,0.9970767511019515,0.0,0,False
2024-01-26,0.9970767511019515,0.9970767511019515,0.0,0,False
2024-01-27,0.9970767511019515,0.9970767511019515,0.0,0,False
2024-01-28,0.9970767511019515,0.9936882604698625,-0.339842507444299,2,True
2024-01-29,0.9936882604698625,0.9936145346625538,-0.007419410114983815,0,True
2024-01-30,0.9936145346625538,0.9936145346625538,0.0,0,False
2024-01-31,0.9936145346625538,0.9936145346625538,0.0,0,False
2024-02-01,0.9936145346625538,0.9936145346625538,0.0,0,False
2024-02-02,0.9936145346625538,0.9936145346625538,0.0,0,False
2024-02-03,0.9936145346625538,0.9936145346625538,0.0,0,False
2024-02-04,0.9936145346625538,0.9936145346625538,0.0,0,False
2024-02-05,0.9936145346625538,0.9936145346625538,0.0,0,False
2024-02-06,0.9936145346625538,0.986869806351539,-0.6788073317894217,2,True
2024-02-07,0.986869806351539,0.9837182754855467,-0.31934616356776857,0,True
2024-02-08,0.9837182754855467,0.9837182754855467,0.0,0,False
2024-02-09,0.9837182754855467,0.9837182754855467,0.0,0,False
2024-02-10,0.9837182754855467,0.9837182754855467,0.0,0,False
2024-02-11,0.9837182754855467,0.9837182754855467,0.0,0,False
2024-02-12,0.9837182754855467,0.9837182754855467,0.0,0,False
2024-02-13,0.9837182754855467,0.9837182754855467,0.0,0,False
2024-02-14,0.9837182754855467,0.9837182754855467,0.0,0,False
2024-02-15,0.9837182754855467,0.9926614053267006,0.9091149431720957,1,True
2024-02-16,0.9926614053267006,0.9926614053267006,0.0,0,False
2024-02-17,0.9926614053267006,0.9926614053267006,0.0,0,False
2024-02-18,0.9926614053267006,0.9926614053267006,0.0,0,False
2024-02-19,0.9926614053267006,0.9926614053267006,0.0,0,False
2024-02-20,0.9926614053267006,0.9926614053267006,0.0,0,False
2024-02-21,0.9926614053267006,1.0090720907889767,1.6532007161974116,5,True
2024-02-22,1.0090720907889767,1.0216131098031913,1.2428268632827866,1,True
2024-02-23,1.0216131098031913,1.0216131098031913,0.0,0,False
2024-02-24,1.0216131098031913,1.0216131098031913,0.0,0,False
2024-02-25,1.0216131098031913,1.0216131098031913,0.0,0,False
2024-02-26,1.0216131098031913,1.0203545369372407,-0.12319466673573753,1,True
2024-02-27,1.0203545369372407,1.0191524460102612,-0.11781110226526392,1,True
2024-02-28,1.0191524460102612,1.0191524460102612,0.0,0,False
2024-02-29,1.0191524460102612,1.026702434160413,0.7408104822500539,2,True
2024-03-01,1.026702434160413,1.026702434160413,0.0,0,False
2024-03-02,1.026702434160413,1.026702434160413,0.0,0,False
2024-03-03,1.026702434160413,1.0417079682805297,1.4615270813483017,4,True
2024-03-04,1.0417079682805297,1.0445590801692841,0.2736958894017594,0,True
2024-03-05,1.0445590801692841,1.044127735391681,-0.041294435689864795,1,True
2024-03-06,1.044127735391681,1.051274642577501,0.6844859056578168,1,True
2024-03-07,1.051274642577501,1.0489135953765805,-0.22458899941996124,2,True
2024-03-08,1.0489135953765805,1.0498390443035566,0.08822928133025432,0,True
2024-03-09,1.0498390443035566,1.0498390443035566,0.0,0,False
2024-03-10,1.0498390443035566,1.0498390443035566,0.0,0,False
2024-03-11,1.0498390443035566,1.0498390443035566,0.0,0,False
2024-03-12,1.0498390443035566,1.0594509302020974,0.9155580515599171,1,True
2024-03-13,1.0594509302020974,1.0594509302020974,0.0,0,False
2024-03-14,1.0594509302020974,1.0594509302020974,0.0,0,False
2024-03-15,1.0594509302020974,1.0594509302020974,0.0,0,False
2024-03-16,1.0594509302020974,1.0594509302020974,0.0,0,False
2024-03-17,1.0594509302020974,1.0566748410027589,-0.2620309369881779,1,True
2024-03-18,1.0566748410027589,1.055925853938279,-0.07088150823854056,1,True
2024-03-19,1.055925853938279,1.0469212040489422,-0.8527729343639212,1,True
2024-03-20,1.0469212040489422,1.0469212040489422,0.0,0,False
2024-03-21,1.0469212040489422,1.0364915655336513,-0.9962200091997886,2,True
2024-03-22,1.0364915655336513,1.0364915655336513,0.0,0,False
2024-03-23,1.0364915655336513,1.0377420113129698,0.12064215676224066,1,True
2024-03-24,1.0377420113129698,1.0377420113129698,0.0,0,False
2024-03-25,1.0377420113129698,1.0377420113129698,0.0,0,False
2024-03-26,1.0377420113129698,1.041236618934381,0.33675109837651984,1,True
2024-03-27,1.041236618934381,1.0395764755727852,-0.15943958668056535,2,True
2024-03-28,1.0395764755727852,1.0395764755727852,0.0,0,False
2024-03-29,1.0395764755727852,1.0343852770720547,-0.49935705767776284,1,True
2024-03-30,1.0343852770720547,1.0343852770720547,0.0,0,False
2024-03-31,1.0343852770720547,1.0343852770720547,0.0,0,False
2024-04-01,1.0343852770720547,1.0343852770720547,0.0,0,False
2024-04-02,1.0343852770720547,1.0343852770720547,0.0,0,False
2024-04-03,1.0343852770720547,1.0343852770720547,0.0,0,False
2024-04-04,1.0343852770720547,1.0343852770720547,0.0,0,False
2024-04-05,1.0343852770720547,1.0333257143791876,-0.10243404622563013,2,True
2024-04-06,1.0333257143791876,1.0315393275881333,-0.17287741572632465,0,True
2024-04-07,1.0315393275881333,1.034435435009469,0.28075589014209257,1,True
2024-04-08,1.034435435009469,1.033755148165105,-0.06576407007536922,0,True
2024-04-09,1.033755148165105,1.031325833996448,-0.23499899110239753,1,True
2024-04-10,1.031325833996448,1.023452874302343,-0.7633823797079553,1,True
2024-04-11,1.023452874302343,1.023452874302343,0.0,0,False
2024-04-12,1.023452874302343,1.032532898805617,0.8871951734430006,1,True
2024-04-13,1.032532898805617,1.027965173045503,-0.442380651056995,8,True
2024-04-14,1.027965173045503,1.0147090070615061,-1.2895539977024195,5,True
2024-04-15,1.0147090070615061,1.0165028114372325,0.17678017670514912,1,True
2024-04-16,1.0165028114372325,1.0096375795856036,-0.6753775566957998,0,True
2024-04-17,1.0096375795856036,1.0068623585729775,-0.2748729909365366,1,True
2024-04-18,1.0068623585729775,1.00707885724869,0.0215023110029966,0,True
2024-04-19,1.00707885724869,1.00707885724869,0.0,0,False
2024-04-20,1.00707885724869,1.00707885724869,0.0,0,False
2024-04-21,1.00707885724869,1.00707885724869,0.0,0,False
2024-04-22,1.00707885724869,1.00707885724869,0.0,0,False
2024-04-23,1.00707885724869,1.00707885724869,0.0,0,False
2024-04-24,1.00707885724869,1.00707885724869,0.0,0,False
2024-04-25,1.00707885724869,1.0140981393231756,0.696994284406105,1,True
2024-04-26,1.0140981393231756,1.016109618251631,0.19835150568343618,0,True
2024-04-27,1.016109618251631,1.0110329827888325,-0.4996149403185046,1,True
2024-04-28,1.0110329827888325,1.0110329827888325,0.0,0,False
2024-04-29,1.0110329827888325,1.0199692628174335,0.88387621182755,1,True
2024-04-30,1.0199692628174335,1.0199692628174335,0.0,0,False
2024-05-01,1.0199692628174335,1.0199692628174335,0.0,0,False
2024-05-02,1.0199692628174335,1.0199692628174335,0.0,0,False
2024-05-03,1.0199692628174335,1.0199692628174335,0.0,0,False
2024-05-04,1.0199692628174335,1.0199692628174335,0.0,0,False
2024-05-05,1.0199692628174335,1.0199692628174335,0.0,0,False
2024-05-06,1.0199692628174335,1.0199692628174335,0.0,0,False
2024-05-07,1.0199692628174335,1.0171223293166674,-0.2791195386517953,1,True
2024-05-08,1.0171223293166674,1.0171292988772929,0.0006852234411436342,0,True
2024-05-09,1.0171292988772929,1.014299665839947,-0.27819796760050197,1,True
2024-05-10,1.014299665839947,1.014299665839947,0.0,0,False
2024-05-11,1.014299665839947,1.0144894474236248,0.01871060299725169,1,True
2024-05-12,1.0144894474236248,1.009233788832478,-0.5180594637523184,0,True
2024-05-13,1.009233788832478,1.0183139621710025,0.8997096053461107,1,True
2024-05-14,1.0183139621710025,1.0183139621710025,0.0,0,False
2024-05-15,1.0183139621710025,1.0183139621710025,0.0,0,False
2024-05-16,1.0183139621710025,1.0183139621710025,0.0,0,False
2024-05-17,1.0183139621710025,1.0183139621710025,0.0,0,False
2024-05-18,1.0183139621710025,1.0183139621710025,0.0,0,False
2024-05-19,1.0183139621710025,1.0183139621710025,0.0,0,False
2024-05-20,1.0183139621710025,1.0183139621710025,0.0,0,False
2024-05-21,1.0183139621710025,1.0183139621710025,0.0,0,False
2024-05-22,1.0183139621710025,1.0183139621710025,0.0,0,False
2024-05-23,1.0183139621710025,1.0274112425829607,0.8933669526207,1,True
2024-05-24,1.0274112425829607,1.0302258369293917,0.27395012140951636,1,True
2024-05-25,1.0302258369293917,1.0302258369293917,0.0,0,False
2024-05-26,1.0302258369293917,1.0302258369293917,0.0,0,False
2024-05-27,1.0302258369293917,1.0302258369293917,0.0,0,False
2024-05-28,1.0302258369293917,1.0302258369293917,0.0,0,False
2024-05-29,1.0302258369293917,1.0302258369293917,0.0,0,False
2024-05-30,1.0302258369293917,1.0302258369293917,0.0,0,False
2024-05-31,1.0302258369293917,1.0302258369293917,0.0,0,False
2024-06-01,1.0302258369293917,1.0302258369293917,0.0,0,False
2024-06-02,1.0302258369293917,1.0302258369293917,0.0,0,False
2024-06-03,1.0302258369293917,1.0211677030416633,-0.8792376936232138,3,True
2024-06-04,1.0211677030416633,1.0221031713150506,0.0916077026918316,1,True
2024-06-05,1.0221031713150506,1.0221031713150506,0.0,0,False
2024-06-06,1.0221031713150506,1.016999096335155,-0.49936984084772984,1,True
2024-06-07,1.016999096335155,1.016999096335155,0.0,0,False
2024-06-08,1.016999096335155,1.041610170435326,2.4199701050727773,5,True
2024-06-09,1.041610170435326,1.041610170435326,0.0,0,False
2024-06-10,1.041610170435326,1.041610170435326,0.0,0,False
2024-06-11,1.041610170435326,1.041610170435326,0.0,0,False
2024-06-12,1.041610170435326,1.041610170435326,0.0,0,False
2024-06-13,1.041610170435326,1.0340347362160591,-0.727281130146884,2,True
2024-06-14,1.0340347362160591,1.028872513692514,-0.4992310550838597,1,True
2024-06-15,1.028872513692514,1.0373383154698985,0.8228232035280669,1,True
2024-06-16,1.0373383154698985,1.0373383154698985,0.0,0,False
2024-06-17,1.0373383154698985,1.0373383154698985,0.0,0,False
2024-06-18,1.0373383154698985,1.0444319885468845,0.6838340945473087,4,True
2024-06-19,1.0444319885468845,1.0444319885468845,0.0,0,False
2024-06-20,1.0444319885468845,1.0444319885468845,0.0,0,False
2024-06-21,1.0444319885468845,1.0444319885468845,0.0,0,False
2024-06-22,1.0444319885468845,1.0444319885468845,0.0,0,False
2024-06-23,1.0444319885468845,1.0527020632043864,0.7918251018917966,1,True
2024-06-24,1.0527020632043864,1.0529983976803408,0.028149890297757274,1,True
2024-06-25,1.0529983976803408,1.0622702941022375,0.8805233172549887,0,True
2024-06-26,1.0622702941022375,1.0622702941022375,0.0,0,False
2024-06-27,1.0622702941022375,1.062530612836468,0.024505884771119923,1,True
2024-06-28,1.062530612836468,1.0569599267024485,-0.524284765701788,0,True
2024-06-29,1.0569599267024485,1.0464348899561147,-0.9957838968569388,2,True
2024-06-30,1.0464348899561147,1.0464348899561147,0.0,0,False
2024-07-01,1.0464348899561147,1.0464348899561147,0.0,0,False
2024-07-02,1.0464348899561147,1.0464348899561147,0.0,0,False
2024-07-03,1.0464348899561147,1.0464348899561147,0.0,0,False
2024-07-04,1.0464348899561147,1.0464348899561147,0.0,0,False
2024-07-05,1.0464348899561147,1.0637476144083537,1.654448319566737,5,True
2024-07-06,1.0637476144083537,1.0637476144083537,0.0,0,False
2024-07-07,1.0637476144083537,1.0611572494728554,-0.24351311348783655,1,True
2024-07-08,1.0611572494728554,1.058428876336312,-0.25711299036016433,0,True
2024-07-09,1.058428876336312,1.058428876336312,0.0,0,False
2024-07-10,1.058428876336312,1.058428876336312,0.0,0,False
2024-07-11,1.058428876336312,1.058428876336312,0.0,0,False
2024-07-12,1.058428876336312,1.058428876336312,0.0,0,False
2024-07-13,1.058428876336312,1.058428876336312,0.0,0,False
2024-07-14,1.058428876336312,1.058428876336312,0.0,0,False
2024-07-15,1.058428876336312,1.058428876336312,0.0,0,False
2024-07-16,1.058428876336312,1.053139517370062,-0.49973683489805687,1,True
2024-07-17,1.053139517370062,1.0478812335174867,-0.4992960349362252,1,True
2024-07-18,1.0478812335174867,1.0478812335174867,0.0,0,False
2024-07-19,1.0478812335174867,1.0478812335174867,0.0,0,False
2024-07-20,1.0478812335174867,1.0490492197993664,0.11146170429630065,1,True
2024-07-21,1.0490492197993664,1.0490492197993664,0.0,0,False
2024-07-22,1.0490492197993664,1.0490492197993664,0.0,0,False
2024-07-23,1.0490492197993664,1.0438054924156668,-0.49985522935734883,1,True
2024-07-24,1.0438054924156668,1.0438054924156668,0.0,0,False
2024-07-25,1.0438054924156668,1.0438054924156668,0.0,0,False
2024-07-26,1.0438054924156668,1.0438054924156668,0.0,0,False
2024-07-27,1.0438054924156668,1.0438054924156668,0.0,0,False
2024-07-28,1.0438054924156668,1.0438054924156668,0.0,0,False
2024-07-29,1.0438054924156668,1.0438054924156668,0.0,0,False
2024-07-30,1.0438054924156668,1.0438054924156668,0.0,0,False
2024-07-31,1.0438054924156668,1.0385940961300402,-0.49926890819149694,1,True
2024-08-01,1.0385940961300402,1.0385940961300402,0.0,0,False
2024-08-02,1.0385940961300402,1.0385940961300402,0.0,0,False
2024-08-03,1.0385940961300402,1.0334097405868503,-0.4991705193113982,1,True
2024-08-04,1.0334097405868503,1.0334097405868503,0.0,0,False
2024-08-05,1.0334097405868503,1.012784101264865,-1.9958820312911296,4,True
2024-08-06,1.012784101264865,1.012784101264865,0.0,0,False
2024-08-07,1.012784101264865,1.012784101264865,0.0,0,False
2024-08-08,1.012784101264865,1.012784101264865,0.0,0,False
2024-08-09,1.012784101264865,1.012784101264865,0.0,0,False
2024-08-10,1.012784101264865,1.012784101264865,0.0,0,False
2024-08-11,1.012784101264865,1.012784101264865,0.0,0,False
2024-08-12,1.012784101264865,1.012784101264865,0.0,0,False
2024-08-13,1.012784101264865,1.012784101264865,0.0,0,False
2024-08-14,1.012784101264865,1.012784101264865,0.0,0,False
2024-08-15,1.012784101264865,1.012784101264865,0.0,0,False
2024-08-16,1.012784101264865,1.012784101264865,0.0,0,False
2024-08-17,1.012784101264865,1.012784101264865,0.0,0,False
2024-08-18,1.012784101264865,1.012784101264865,0.0,0,False
2024-08-19,1.012784101264865,1.012784101264865,0.0,0,False
2024-08-20,1.012784101264865,1.012784101264865,0.0,0,False
2024-08-21,1.012784101264865,1.012784101264865,0.0,0,False
2024-08-22,1.012784101264865,1.012784101264865,0.0,0,False
2024-08-23,1.012784101264865,1.012784101264865,0.0,0,False
2024-08-24,1.012784101264865,1.012784101264865,0.0,0,False
2024-08-25,1.012784101264865,1.012784101264865,0.0,0,False
2024-08-26,1.012784101264865,1.012784101264865,0.0,0,False
2024-08-27,1.012784101264865,1.012784101264865,0.0,0,False
2024-08-28,1.012784101264865,1.012784101264865,0.0,0,False
2024-08-29,1.012784101264865,1.007729882617252,-0.49904206052413524,1,True
2024-08-30,1.007729882617252,1.007729882617252,0.0,0,False
2024-08-31,1.007729882617252,1.007729882617252,0.0,0,False
2024-09-01,1.007729882617252,1.00270774910331,-0.4983610787544168,1,True
2024-09-02,1.00270774910331,1.00270774910331,0.0,0,False
2024-09-03,1.00270774910331,1.00270774910331,0.0,0,False
2024-09-04,1.00270774910331,1.00270774910331,0.0,0,False
2024-09-05,1.00270774910331,1.00270774910331,0.0,0,False
2024-09-06,1.00270774910331,1.00270774910331,0.0,0,False
2024-09-07,1.00270774910331,1.00270774910331,0.0,0,False
2024-09-08,1.00270774910331,1.00270774910331,0.0,0,False
2024-09-09,1.00270774910331,1.00270774910331,0.0,0,False
2024-09-10,1.00270774910331,1.00270774910331,0.0,0,False
2024-09-11,1.00270774910331,1.00270774910331,0.0,0,False
2024-09-12,1.00270774910331,1.00270774910331,0.0,0,False
2024-09-13,1.00270774910331,1.00270774910331,0.0,0,False
2024-09-14,1.00270774910331,1.00270774910331,0.0,0,False
2024-09-15,1.00270774910331,1.00270774910331,0.0,0,False
2024-09-16,1.00270774910331,1.00270774910331,0.0,0,False
2024-09-17,1.00270774910331,1.00270774910331,0.0,0,False
2024-09-18,1.00270774910331,1.00270774910331,0.0,0,False
2024-09-19,1.00270774910331,1.0020926215466788,-0.06134664434191972,1,True
2024-09-20,1.0020926215466788,1.004629367869228,0.2531448957915572,1,True
2024-09-21,1.004629367869228,0.9959504477756371,-0.8638927321026335,1,True
2024-09-22,0.9959504477756371,1.005028043510538,0.9114505400519501,1,True
2024-09-23,1.005028043510538,1.005028043510538,0.0,0,False
2024-09-24,1.005028043510538,1.005028043510538,0.0,0,False
2024-09-25,1.005028043510538,1.005028043510538,0.0,0,False
2024-09-26,1.005028043510538,1.005028043510538,0.0,0,False
2024-09-27,1.005028043510538,1.005028043510538,0.0,0,False
2024-09-28,1.005028043510538,1.005028043510538,0.0,0,False
2024-09-29,1.005028043510538,1.005028043510538,0.0,0,False
2024-09-30,1.005028043510538,1.005028043510538,0.0,0,False
2024-10-01,1.005028043510538,1.005028043510538,0.0,0,False
2024-10-02,1.005028043510538,1.005028043510538,0.0,0,False
2024-10-03,1.005028043510538,1.0140936189914949,0.902022141520642,1,True
2024-10-04,1.0140936189914949,1.0140936189914949,0.0,0,False
2024-10-05,1.0140936189914949,1.0140936189914949,0.0,0,False
2024-10-06,1.0140936189914949,1.0140936189914949,0.0,0,False
2024-10-07,1.0140936189914949,1.0140936189914949,0.0,0,False
2024-10-08,1.0140936189914949,1.0140936189914949,0.0,0,False
2024-10-09,1.0140936189914949,1.0140936189914949,0.0,0,False
2024-10-10,1.0140936189914949,1.0140936189914949,0.0,0,False
2024-10-11,1.0140936189914949,1.012989614721919,-0.10886610948934727,1,True
2024-10-12,1.012989614721919,1.013697684428824,0.06989900948779493,0,True
2024-10-13,1.013697684428824,1.013697684428824,0.0,0,False
2024-10-14,1.013697684428824,1.013697684428824,0.0,0,False
2024-10-15,1.013697684428824,1.013697684428824,0.0,0,False
2024-10-16,1.013697684428824,1.013697684428824,0.0,0,False
2024-10-17,1.013697684428824,1.013697684428824,0.0,0,False
2024-10-18,1.013697684428824,1.0140761294679073,0.03733312652249854,1,True
2024-10-19,1.0140761294679073,1.0101275571021266,-0.3893763250154114,1,True
2024-10-20,1.0101275571021266,1.0101275571021266,0.0,0,False
2024-10-21,1.0101275571021266,1.0193756997276993,0.9155420580846174,1,True
2024-10-22,1.0193756997276993,1.0193756997276993,0.0,0,False
2024-10-23,1.0193756997276993,1.0142854726742871,-0.4993474981571433,1,True
2024-10-24,1.0142854726742871,1.0092210219485027,-0.4993121623275698,1,True
2024-10-25,1.0092210219485027,1.0118887021277374,0.26433061947959136,1,True
2024-10-26,1.0118887021277374,1.0216421288363813,0.9638833488440968,2,True
2024-10-27,1.0216421288363813,1.0216421288363813,0.0,0,False
2024-10-28,1.0216421288363813,1.0216421288363813,0.0,0,False
2024-10-29,1.0216421288363813,1.0216421288363813,0.0,0,False
2024-10-30,1.0216421288363813,1.0216421288363813,0.0,0,False
2024-10-31,1.0216421288363813,1.0216421288363813,0.0,0,False
2024-11-01,1.0216421288363813,1.0216421288363813,0.0,0,False
2024-11-02,1.0216421288363813,1.0216421288363813,0.0,0,False
2024-11-03,1.0216421288363813,1.0216421288363813,0.0,0,False
2024-11-04,1.0216421288363813,1.0216421288363813,0.0,0,False
2024-11-05,1.0216421288363813,1.0216421288363813,0.0,0,False
2024-11-06,1.0216421288363813,1.0216421288363813,0.0,0,False
2024-11-07,1.0216421288363813,1.0216421288363813,0.0,0,False
2024-11-08,1.0216421288363813,1.0216421288363813,0.0,0,False
2024-11-09,1.0216421288363813,1.0199265605983312,-0.1679226208108786,1,True
2024-11-10,1.0199265605983312,1.0225024111705614,0.2525525534621931,0,True
2024-11-11,1.0225024111705614,1.0214141208266077,-0.1064340124839247,1,True
2024-11-12,1.0214141208266077,1.0226444359922935,0.12045213989113623,0,True
2024-11-13,1.0226444359922935,1.0226444359922935,0.0,0,False
2024-11-14,1.0226444359922935,1.0226444359922935,0.0,0,False
2024-11-15,1.0226444359922935,1.0226444359922935,0.0,0,False
2024-11-16,1.0226444359922935,1.0226444359922935,0.0,0,False
2024-11-17,1.0226444359922935,1.0226444359922935,0.0,0,False
2024-11-18,1.0226444359922935,1.0226444359922935,0.0,0,False
2024-11-19,1.0226444359922935,1.0226444359922935,0.0,0,False
2024-11-20,1.0226444359922935,1.0226444359922935,0.0,0,False
2024-11-21,1.0226444359922935,1.0226444359922935,0.0,0,False
2024-11-22,1.0226444359922935,1.0226444359922935,0.0,0,False
2024-11-23,1.0226444359922935,1.0261466431823738,0.34246577469343453,1,True
2024-11-24,1.0261466431823738,1.038067368983436,1.1616980750521977,4,True
2024-11-25,1.038067368983436,1.038023685781931,-0.004208127796945238,1,True
2024-11-26,1.038023685781931,1.038023685781931,0.0,0,False
2024-11-27,1.038023685781931,1.038023685781931,0.0,0,False
2024-11-28,1.038023685781931,1.038023685781931,0.0,0,False
2024-11-29,1.038023685781931,1.038023685781931,0.0,0,False
2024-11-30,1.038023685781931,1.038023685781931,0.0,0,False
2024-12-01,1.038023685781931,1.038023685781931,0.0,0,False
2024-12-02,1.038023685781931,1.038023685781931,0.0,0,False
2024-12-03,1.038023685781931,1.038023685781931,0.0,0,False
2024-12-04,1.038023685781931,1.038023685781931,0.0,0,False
2024-12-05,1.038023685781931,1.0420725873574852,0.39005868854564696,1,True
2024-12-06,1.0420725873574852,1.0420725873574852,0.0,0,False
2024-12-07,1.0420725873574852,1.0420725873574852,0.0,0,False
2024-12-08,1.0420725873574852,1.0420725873574852,0.0,0,False
2024-12-09,1.0420725873574852,1.0368630894823911,-0.4999169864264852,1,True
2024-12-10,1.0368630894823911,1.0368630894823911,0.0,0,False
2024-12-11,1.0368630894823911,1.0368630894823911,0.0,0,False
2024-12-12,1.0368630894823911,1.0368630894823911,0.0,0,False
2024-12-13,1.0368630894823911,1.0368630894823911,0.0,0,False
2024-12-14,1.0368630894823911,1.0368630894823911,0.0,0,False
2024-12-15,1.0368630894823911,1.0303105124882341,-0.631961640897849,2,True
2024-12-16,1.0303105124882341,1.0265339289525046,-0.36654809302187896,0,True
2024-12-17,1.0265339289525046,1.0265339289525046,0.0,0,False
2024-12-18,1.0265339289525046,1.0265339289525046,0.0,0,False
2024-12-19,1.0265339289525046,1.0265339289525046,0.0,0,False
2024-12-20,1.0265339289525046,1.0215595630856087,-0.48457880705140566,2,True
2024-12-21,1.0215595630856087,1.0215595630856087,0.0,0,False
2024-12-22,1.0215595630856087,1.0215595630856087,0.0,0,False
2024-12-23,1.0215595630856087,1.0215595630856087,0.0,0,False
2024-12-24,1.0215595630856087,1.0215595630856087,0.0,0,False
2024-12-25,1.0215595630856087,1.0284415344168698,0.6736730367903565,1,True
2024-12-26,1.0284415344168698,1.0307823327626264,0.22760636044165672,0,True
2024-12-27,1.0307823327626264,1.0307823327626264,0.0,0,False
2024-12-28,1.0307823327626264,1.0307823327626264,0.0,0,False
2024-12-29,1.0307823327626264,1.0307823327626264,0.0,0,False
2024-12-30,1.0307823327626264,1.0307823327626264,0.0,0,False
2024-12-31,1.0307823327626264,1.0307823327626264,0.0,0,False
