day,start_equity,end_equity,return_pct,entries,active
2024-01-02,1.0,1.0,0.0,0,False
2024-01-03,1.0,0.9935163439506344,-0.6483656049365627,6,True
2024-01-04,0.9935163439506344,0.9961362235721276,0.26369768725449383,1,True
2024-01-05,0.9961362235721276,0.995010024357746,-0.11305674743390393,1,True
2024-01-06,0.995010024357746,0.9956594970737493,0.06527298219156652,2,True
2024-01-07,0.9956594970737493,0.9918391812438132,-0.38369702103621117,1,True
2024-01-08,0.9918391812438132,0.9967170404987609,0.49179941135524263,3,True
2024-01-09,0.9967170404987609,1.0123514986989561,1.568595455373356,0,True
2024-01-10,1.0123514986989561,1.0123514986989561,0.0,0,False
2024-01-11,1.0123514986989561,1.0131776866691748,0.08161078155961565,1,True
2024-01-12,1.0131776866691748,1.005993178770132,-0.7091064078465825,2,True
2024-01-13,1.005993178770132,1.0113746240212997,0.5349385427987574,4,True
2024-01-14,1.0113746240212997,1.0143838765842137,0.2975408410929914,0,True
2024-01-15,1.0143838765842137,1.0143838765842137,0.0,0,False
2024-01-16,1.0143838765842137,1.0140621170952777,-0.03171969669110153,1,True
2024-01-17,1.0140621170952777,1.0158158073881383,0.17293716659920744,0,True
2024-01-18,1.0158158073881383,1.0158158073881383,0.0,0,False
2024-01-19,1.0158158073881383,1.0158158073881383,0.0,0,False
2024-01-20,1.0158158073881383,1.0295368762357568,1.350743781286301,6,True
2024-01-21,1.0295368762357568,1.031935478830587,0.23297879368828767,0,True
2024-01-22,1.031935478830587,1.031935478830587,0.0,0,False
2024-01-23,1.031935478830587,1.0100505916046985,-2.120761198237797,8,True
2024-01-24,1.0100505916046985,1.0100505916046985,0.0,0,False
2024-01-25,1.0100505916046985,1.0085635102214827,-0.14722840574283858,1,True
2024-01-26,1.0085635102214827,1.0085635102214827,0.0,0,False
2024-01-27,1.0085635102214827,1.0085635102214827,0.0,0,False
2024-01-28,1.0085635102214827,1.0085635102214827,0.0,0,False
2024-01-29,1.0085635102214827,1.0085635102214827,0.0,0,False
2024-01-30,1.0085635102214827,1.0085635102214827,0.0,0,False
2024-01-31,1.0085635102214827,1.004154841496131,-0.4371235604571422,1,True
2024-02-01,1.004154841496131,1.004154841496131,0.0,0,False
2024-02-02,1.004154841496131,1.0039521014519341,-0.020190117680929376,2,True
2024-02-03,1.0039521014519341,1.0122015800732571,0.8217004187144328,1,True
2024-02-04,1.0122015800732571,1.0105822821919799,-0.1599778061164514,1,True
2024-02-05,1.0105822821919799,1.0105822821919799,0.0,0,False
2024-02-06,1.0105822821919799,1.0055466128704111,-0.4982938460633024,1,True
2024-02-07,1.0055466128704111,1.0037101453693884,-0.18263375138626303,3,True
2024-02-08,1.0037101453693884,1.0124310897109583,0.8688707971922005,0,True
2024-02-09,1.0124310897109583,1.0124310897109583,0.0,0,False
2024-02-10,1.0124310897109583,1.0124310897109583,0.0,0,False
2024-02-11,1.0124310897109583,1.0124310897109583,0.0,0,False
2024-02-12,1.0124310897109583,1.0124310897109583,0.0,0,False
2024-02-13,1.0124310897109583,1.0124310897109583,0.0,0,False
2024-02-14,1.0124310897109583,1.0137548799879625,0.1307536177481694,1,True
2024-02-15,1.0137548799879625,1.0144255782805536,0.0661598090259341,0,True
2024-02-16,1.0144255782805536,1.0195995481764153,0.5100393766323874,1,True
2024-02-17,1.0195995481764153,1.016444681481254,-0.30942213546523156,2,True
2024-02-18,1.016444681481254,1.0179393872454332,0.1470523474037977,0,True
2024-02-19,1.0179393872454332,1.0179393872454332,0.0,0,False
2024-02-20,1.0179393872454332,1.0202631433585254,0.22828040079874157,7,True
2024-02-21,1.0202631433585254,1.01546972701871,-0.4698215721128829,6,True
2024-02-22,1.01546972701871,1.0406531207509615,2.4799748394456422,3,True
2024-02-23,1.0406531207509615,1.0413581552070132,0.06774922805621308,1,True
2024-02-24,1.0413581552070132,1.0377952562060324,-0.34213963593270336,3,True
2024-02-25,1.0377952562060324,1.034255298008973,-0.341103717317115,1,True
2024-02-26,1.034255298008973,1.039542122279532,0.5111720752832172,0,True
2024-02-27,1.039542122279532,1.039364434887811,-0.017092851546152144,1,True
2024-02-28,1.039364434887811,1.0394231321834357,0.005647421987364787,1,True
2024-02-29,1.0394231321834357,1.0642781769067662,2.3912345178540795,5,True
2024-03-01,1.0642781769067662,1.06095863415678,-0.31190555458292524,1,True
2024-03-02,1.06095863415678,1.0605317730331776,-0.040233531248057286,1,True
2024-03-03,1.0605317730331776,1.064928791002937,0.4146050200064977,6,True
2024-03-04,1.064928791002937,1.0789198719153328,1.3138043623761142,0,True
2024-03-05,1.0789198719153328,1.0714923851397364,-0.6884187574013989,5,True
2024-03-06,1.0714923851397364,1.049866882987743,-2.018259994369731,4,True
2024-03-07,1.049866882987743,1.049866882987743,0.0,0,False
2024-03-08,1.049866882987743,1.0507652091914608,0.08556572440510113,2,True
2024-03-09,1.0507652091914608,1.0415443518944376,-0.8775373619496207,3,True
2024-03-10,1.0415443518944376,1.0396189918957721,-0.18485626609788808,2,True
2024-03-11,1.0396189918957721,1.0356929831490673,-0.3776391906371024,0,True
2024-03-12,1.0356929831490673,1.0318686186483677,-0.3692565811415971,1,True
2024-03-13,1.0318686186483677,1.0362500733336137,0.4246136190269256,2,True
2024-03-14,1.0362500733336137,1.0311675933889317,-0.4904684762367939,1,True
2024-03-15,1.0311675933889317,1.0084662772507669,-2.2015156686176485,6,True
2024-03-16,1.0084662772507669,1.0097407077864022,0.12637314349366324,1,True
2024-03-17,1.0097407077864022,0.9951675020922031,-1.443262174320692,4,True
2024-03-18,0.9951675020922031,0.9951675020922031,0.0,0,False
2024-03-19,0.9951675020922031,0.9727310109511029,-2.254544194211572,5,True
2024-03-20,0.9727310109511029,0.9727310109511029,0.0,0,False
2024-03-21,0.9727310109511029,0.9736103752385792,0.09040158867932302,2,True
2024-03-22,0.9736103752385792,0.9736103752385792,0.0,0,False
2024-03-23,0.9736103752385792,0.9744618360317776,0.08745395641349685,1,True
2024-03-24,0.9744618360317776,0.9728144563678855,-0.16905532910355126,2,True
2024-03-25,0.9728144563678855,0.976790977387885,0.4087645895853864,2,True
2024-03-26,0.976790977387885,0.983521540483302,0.6890484506128169,2,True
2024-03-27,0.983521540483302,0.9831440258302467,-0.038383974068301185,2,True
2024-03-28,0.9831440258302467,0.9825279692969527,-0.06266188036627707,0,True
2024-03-29,0.9825279692969527,0.9767218749971379,-0.5909342513648053,4,True
2024-03-30,0.9767218749971379,0.9762717065950987,-0.04608972252624355,0,True
2024-03-31,0.9762717065950987,0.9762717065950987,0.0,0,False
2024-04-01,0.9762717065950987,0.9754746072291002,-0.08164728739077365,4,True
2024-04-02,0.9754746072291002,0.9696252994538602,-0.5996371132463763,5,True
2024-04-03,0.9696252994538602,0.9687813480771083,-0.08703891876865599,1,True
2024-04-04,0.9687813480771083,0.9685515085782308,-0.0237245999144875,1,True
2024-04-05,0.9685515085782308,0.9644818105892734,-0.42018395025076316,3,True
2024-04-06,0.9644818105892734,0.9636535730557875,-0.08587383654025116,1,True
2024-04-07,0.9636535730557875,0.9711218846746505,0.7749996292942374,1,True
2024-04-08,0.9711218846746505,0.9683732106568379,-0.2830410951693785,0,True
2024-04-09,0.9683732106568379,0.9659580077991337,-0.24940826853998566,1,True
2024-04-10,0.9659580077991337,0.9630784494441765,-0.2981038856459173,4,True
2024-04-11,0.9630784494441765,0.962286004140419,-0.08228252892741317,1,True
2024-04-12,0.962286004140419,0.9606169423383584,-0.17344758157961104,2,True
2024-04-13,0.9606169423383584,0.950055460710789,-1.099447777993634,7,True
2024-04-14,0.950055460710789,0.928160893458144,-2.3045567504305864,10,True
2024-04-15,0.928160893458144,0.928160893458144,0.0,0,False
2024-04-16,0.928160893458144,0.928160893458144,0.0,0,False
2024-04-17,0.928160893458144,0.928160893458144,0.0,0,False
2024-04-18,0.928160893458144,0.928160893458144,0.0,0,False
2024-04-19,0.928160893458144,0.9215654849293757,-0.710588926473199,4,True
2024-04-20,0.9215654849293757,0.9215654849293757,0.0,0,False
2024-04-21,0.9215654849293757,0.9215654849293757,0.0,0,False
2024-04-22,0.9215654849293757,0.9215654849293757,0.0,0,False
2024-04-23,0.9215654849293757,0.9215654849293757,0.0,0,False
2024-04-24,0.9215654849293757,0.9215654849293757,0.0,0,False
2024-04-25,0.9215654849293757,0.9215654849293757,0.0,0,False
2024-04-26,0.9215654849293757,0.9215654849293757,0.0,0,False
2024-04-27,0.9215654849293757,0.9215654849293757,0.0,0,False
2024-04-28,0.9215654849293757,0.9215654849293757,0.0,0,False
2024-04-29,0.9215654849293757,0.9215654849293757,0.0,0,False
2024-04-30,0.9215654849293757,0.9215654849293757,0.0,0,False
2024-05-01,0.9215654849293757,0.9215654849293757,0.0,0,False
2024-05-02,0.9215654849293757,0.9215654849293757,0.0,0,False
2024-05-03,0.9215654849293757,0.9215654849293757,0.0,0,False
2024-05-04,0.9215654849293757,0.9215654849293757,0.0,0,False
2024-05-05,0.9215654849293757,0.9215654849293757,0.0,0,False
2024-05-06,0.9215654849293757,0.9215654849293757,0.0,0,False
2024-05-07,0.9215654849293757,0.9215654849293757,0.0,0,False
2024-05-08,0.9215654849293757,0.9215654849293757,0.0,0,False
2024-05-09,0.9215654849293757,0.9215654849293757,0.0,0,False
2024-05-10,0.9215654849293757,0.9215654849293757,0.0,0,False
2024-05-11,0.9215654849293757,0.9215654849293757,0.0,0,False
2024-05-12,0.9215654849293757,0.9215654849293757,0.0,0,False
2024-05-13,0.9215654849293757,0.9215654849293757,0.0,0,False
2024-05-14,0.9215654849293757,0.9215654849293757,0.0,0,False
2024-05-15,0.9215654849293757,0.9215654849293757,0.0,0,False
2024-05-16,0.9215654849293757,0.9215654849293757,0.0,0,False
2024-05-17,0.9215654849293757,0.9215654849293757,0.0,0,False
2024-05-18,0.9215654849293757,0.9215654849293757,0.0,0,False
2024-05-19,0.9215654849293757,0.9215654849293757,0.0,0,False
2024-05-20,0.9215654849293757,0.9215654849293757,0.0,0,False
2024-05-21,0.9215654849293757,0.9215654849293757,0.0,0,False
2024-05-22,0.9215654849293757,0.9215654849293757,0.0,0,False
2024-05-23,0.9215654849293757,0.9215654849293757,0.0,0,False
2024-05-24,0.9215654849293757,0.9215654849293757,0.0,0,False
2024-05-25,0.9215654849293757,0.9215654849293757,0.0,0,False
2024-05-26,0.9215654849293757,0.9215654849293757,0.0,0,False
2024-05-27,0.9215654849293757,0.9215654849293757,0.0,0,False
2024-05-28,0.9215654849293757,0.9215654849293757,0.0,0,False
2024-05-29,0.9215654849293757,0.9215654849293757,0.0,0,False
2024-05-30,0.9215654849293757,0.9215654849293757,0.0,0,False
2024-05-31,0.9215654849293757,0.9215654849293757,0.0,0,False
2024-06-01,0.9215654849293757,0.9215654849293757,0.0,0,False
2024-06-02,0.9215654849293757,0.9215654849293757,0.0,0,False
2024-06-03,0.9215654849293757,0.9215654849293757,0.0,0,False
2024-06-04,0.9215654849293757,0.9215654849293757,0.0,0,False
2024-06-05,0.9215654849293757,0.9215654849293757,0.0,0,False
2024-06-06,0.9215654849293757,0.9215654849293757,0.0,0,False
2024-06-07,0.9215654849293757,0.9215654849293757,0.0,0,False
2024-06-08,0.9215654849293757,0.9215654849293757,0.0,0,False
2024-06-09,0.9215654849293757,0.9215654849293757,0.0,0,False
2024-06-10,0.9215654849293757,0.9215654849293757,0.0,0,False
2024-06-11,0.9215654849293757,0.9215654849293757,0.0,0,False
2024-06-12,0.9215654849293757,0.9215654849293757,0.0,0,False
2024-06-13,0.9215654849293757,0.9215654849293757,0.0,0,False
2024-06-14,0.9215654849293757,0.9215654849293757,0.0,0,False
2024-06-15,0.9215654849293757,0.9215654849293757,0.0,0,False
2024-06-16,0.9215654849293757,0.9215654849293757,0.0,0,False
2024-06-17,0.9215654849293757,0.9215654849293757,0.0,0,False
2024-06-18,0.9215654849293757,0.9215654849293757,0.0,0,False
2024-06-19,0.9215654849293757,0.9215654849293757,0.0,0,False
2024-06-20,0.9215654849293757,0.9215654849293757,0.0,0,False
2024-06-21,0.9215654849293757,0.9215654849293757,0.0,0,False
2024-06-22,0.9215654849293757,0.9215654849293757,0.0,0,False
2024-06-23,0.9215654849293757,0.9215654849293757,0.0,0,False
2024-06-24,0.9215654849293757,0.9215654849293757,0.0,0,False
2024-06-25,0.9215654849293757,0.9215654849293757,0.0,0,False
2024-06-26,0.9215654849293757,0.9215654849293757,0.0,0,False
2024-06-27,0.9215654849293757,0.9215654849293757,0.0,0,False
2024-06-28,0.9215654849293757,0.9215654849293757,0.0,0,False
2024-06-29,0.9215654849293757,0.9215654849293757,0.0,0,False
2024-06-30,0.9215654849293757,0.9215654849293757,0.0,0,False
2024-07-01,0.9215654849293757,0.9215654849293757,0.0,0,False
2024-07-02,0.9215654849293757,0.9215654849293757,0.0,0,False
2024-07-03,0.9215654849293757,0.9215654849293757,0.0,0,False
2024-07-04,0.9215654849293757,0.9215654849293757,0.0,0,False
2024-07-05,0.9215654849293757,0.9215654849293757,0.0,0,False
2024-07-06,0.9215654849293757,0.9215654849293757,0.0,0,False
2024-07-07,0.9215654849293757,0.9215654849293757,0.0,0,False
2024-07-08,0.9215654849293757,0.9215654849293757,0.0,0,False
2024-07-09,0.9215654849293757,0.9215654849293757,0.0,0,False
2024-07-10,0.9215654849293757,0.9215654849293757,0.0,0,False
2024-07-11,0.9215654849293757,0.9215654849293757,0.0,0,False
2024-07-12,0.9215654849293757,0.9215654849293757,0.0,0,False
2024-07-13,0.9215654849293757,0.9215654849293757,0.0,0,False
2024-07-14,0.9215654849293757,0.9215654849293757,0.0,0,False
2024-07-15,0.9215654849293757,0.9215654849293757,0.0,0,False
2024-07-16,0.9215654849293757,0.9215654849293757,0.0,0,False
2024-07-17,0.9215654849293757,0.9215654849293757,0.0,0,False
2024-07-18,0.9215654849293757,0.9215654849293757,0.0,0,False
2024-07-19,0.9215654849293757,0.9215654849293757,0.0,0,False
2024-07-20,0.9215654849293757,0.9215654849293757,0.0,0,False
2024-07-21,0.9215654849293757,0.9215654849293757,0.0,0,False
2024-07-22,0.9215654849293757,0.9215654849293757,0.0,0,False
2024-07-23,0.9215654849293757,0.9215654849293757,0.0,0,False
2024-07-24,0.9215654849293757,0.9215654849293757,0.0,0,False
2024-07-25,0.9215654849293757,0.9215654849293757,0.0,0,False
2024-07-26,0.9215654849293757,0.9215654849293757,0.0,0,False
2024-07-27,0.9215654849293757,0.9215654849293757,0.0,0,False
2024-07-28,0.9215654849293757,0.9215654849293757,0.0,0,False
2024-07-29,0.9215654849293757,0.9215654849293757,0.0,0,False
2024-07-30,0.9215654849293757,0.9215654849293757,0.0,0,False
2024-07-31,0.9215654849293757,0.9215654849293757,0.0,0,False
2024-08-01,0.9215654849293757,0.9215654849293757,0.0,0,False
2024-08-02,0.9215654849293757,0.9215654849293757,0.0,0,False
2024-08-03,0.9215654849293757,0.9215654849293757,0.0,0,False
2024-08-04,0.9215654849293757,0.9215654849293757,0.0,0,False
2024-08-05,0.9215654849293757,0.9215654849293757,0.0,0,False
2024-08-06,0.9215654849293757,0.9215654849293757,0.0,0,False
2024-08-07,0.9215654849293757,0.9215654849293757,0.0,0,False
2024-08-08,0.9215654849293757,0.9215654849293757,0.0,0,False
2024-08-09,0.9215654849293757,0.9215654849293757,0.0,0,False
2024-08-10,0.9215654849293757,0.9215654849293757,0.0,0,False
2024-08-11,0.9215654849293757,0.9215654849293757,0.0,0,False
2024-08-12,0.9215654849293757,0.9215654849293757,0.0,0,False
2024-08-13,0.9215654849293757,0.9215654849293757,0.0,0,False
2024-08-14,0.9215654849293757,0.9215654849293757,0.0,0,False
2024-08-15,0.9215654849293757,0.9215654849293757,0.0,0,False
2024-08-16,0.9215654849293757,0.9215654849293757,0.0,0,False
2024-08-17,0.9215654849293757,0.9215654849293757,0.0,0,False
2024-08-18,0.9215654849293757,0.9215654849293757,0.0,0,False
2024-08-19,0.9215654849293757,0.9215654849293757,0.0,0,False
2024-08-20,0.9215654849293757,0.9215654849293757,0.0,0,False
2024-08-21,0.9215654849293757,0.9215654849293757,0.0,0,False
2024-08-22,0.9215654849293757,0.9215654849293757,0.0,0,False
2024-08-23,0.9215654849293757,0.9215654849293757,0.0,0,False
2024-08-24,0.9215654849293757,0.9215654849293757,0.0,0,False
2024-08-25,0.9215654849293757,0.9215654849293757,0.0,0,False
2024-08-26,0.9215654849293757,0.9215654849293757,0.0,0,False
2024-08-27,0.9215654849293757,0.9215654849293757,0.0,0,False
2024-08-28,0.9215654849293757,0.9215654849293757,0.0,0,False
2024-08-29,0.9215654849293757,0.9215654849293757,0.0,0,False
2024-08-30,0.9215654849293757,0.9215654849293757,0.0,0,False
2024-08-31,0.9215654849293757,0.9215654849293757,0.0,0,False
2024-09-01,0.9215654849293757,0.9215654849293757,0.0,0,False
2024-09-02,0.9215654849293757,0.9215654849293757,0.0,0,False
2024-09-03,0.9215654849293757,0.9215654849293757,0.0,0,False
2024-09-04,0.9215654849293757,0.9215654849293757,0.0,0,False
2024-09-05,0.9215654849293757,0.9215654849293757,0.0,0,False
2024-09-06,0.9215654849293757,0.9215654849293757,0.0,0,False
2024-09-07,0.9215654849293757,0.9215654849293757,0.0,0,False
2024-09-08,0.9215654849293757,0.9215654849293757,0.0,0,False
2024-09-09,0.9215654849293757,0.9215654849293757,0.0,0,False
2024-09-10,0.9215654849293757,0.9215654849293757,0.0,0,False
2024-09-11,0.9215654849293757,0.9215654849293757,0.0,0,False
2024-09-12,0.9215654849293757,0.9215654849293757,0.0,0,False
2024-09-13,0.9215654849293757,0.9215654849293757,0.0,0,False
2024-09-14,0.9215654849293757,0.9215654849293757,0.0,0,False
2024-09-15,0.9215654849293757,0.9215654849293757,0.0,0,False
2024-09-16,0.9215654849293757,0.9215654849293757,0.0,0,False
2024-09-17,0.9215654849293757,0.9215654849293757,0.0,0,False
2024-09-18,0.9215654849293757,0.9215654849293757,0.0,0,False
2024-09-19,0.9215654849293757,0.9215654849293757,0.0,0,False
2024-09-20,0.9215654849293757,0.9215654849293757,0.0,0,False
2024-09-21,0.9215654849293757,0.9215654849293757,0.0,0,False
2024-09-22,0.9215654849293757,0.9215654849293757,0.0,0,False
2024-09-23,0.9215654849293757,0.9215654849293757,0.0,0,False
2024-09-24,0.9215654849293757,0.9215654849293757,0.0,0,False
2024-09-25,0.9215654849293757,0.9215654849293757,0.0,0,False
2024-09-26,0.9215654849293757,0.9215654849293757,0.0,0,False
2024-09-27,0.9215654849293757,0.9215654849293757,0.0,0,False
2024-09-28,0.9215654849293757,0.9215654849293757,0.0,0,False
2024-09-29,0.9215654849293757,0.9215654849293757,0.0,0,False
2024-09-30,0.9215654849293757,0.9215654849293757,0.0,0,False
2024-10-01,0.9215654849293757,0.9215654849293757,0.0,0,False
2024-10-02,0.9215654849293757,0.9215654849293757,0.0,0,False
2024-10-03,0.9215654849293757,0.9215654849293757,0.0,0,False
2024-10-04,0.9215654849293757,0.9215654849293757,0.0,0,False
2024-10-05,0.9215654849293757,0.9215654849293757,0.0,0,False
2024-10-06,0.9215654849293757,0.9215654849293757,0.0,0,False
2024-10-07,0.9215654849293757,0.9215654849293757,0.0,0,False
2024-10-08,0.9215654849293757,0.9215654849293757,0.0,0,False
2024-10-09,0.9215654849293757,0.9215654849293757,0.0,0,False
2024-10-10,0.9215654849293757,0.9215654849293757,0.0,0,False
2024-10-11,0.9215654849293757,0.9215654849293757,0.0,0,False
2024-10-12,0.9215654849293757,0.9215654849293757,0.0,0,False
2024-10-13,0.9215654849293757,0.9215654849293757,0.0,0,False
2024-10-14,0.9215654849293757,0.9215654849293757,0.0,0,False
2024-10-15,0.9215654849293757,0.9215654849293757,0.0,0,False
2024-10-16,0.9215654849293757,0.9215654849293757,0.0,0,False
2024-10-17,0.9215654849293757,0.9215654849293757,0.0,0,False
2024-10-18,0.9215654849293757,0.9215654849293757,0.0,0,False
2024-10-19,0.9215654849293757,0.9215654849293757,0.0,0,False
2024-10-20,0.9215654849293757,0.9215654849293757,0.0,0,False
2024-10-21,0.9215654849293757,0.9215654849293757,0.0,0,False
2024-10-22,0.9215654849293757,0.9215654849293757,0.0,0,False
2024-10-23,0.9215654849293757,0.9215654849293757,0.0,0,False
2024-10-24,0.9215654849293757,0.9215654849293757,0.0,0,False
2024-10-25,0.9215654849293757,0.9215654849293757,0.0,0,False
2024-10-26,0.9215654849293757,0.9215654849293757,0.0,0,False
2024-10-27,0.9215654849293757,0.9215654849293757,0.0,0,False
2024-10-28,0.9215654849293757,0.9215654849293757,0.0,0,False
2024-10-29,0.9215654849293757,0.9215654849293757,0.0,0,False
2024-10-30,0.9215654849293757,0.9215654849293757,0.0,0,False
2024-10-31,0.9215654849293757,0.9215654849293757,0.0,0,False
2024-11-01,0.9215654849293757,0.9215654849293757,0.0,0,False
2024-11-02,0.9215654849293757,0.9215654849293757,0.0,0,False
2024-11-03,0.9215654849293757,0.9215654849293757,0.0,0,False
2024-11-04,0.9215654849293757,0.9215654849293757,0.0,0,False
2024-11-05,0.9215654849293757,0.9215654849293757,0.0,0,False
2024-11-06,0.9215654849293757,0.9215654849293757,0.0,0,False
2024-11-07,0.9215654849293757,0.9215654849293757,0.0,0,False
2024-11-08,0.9215654849293757,0.9215654849293757,0.0,0,False
2024-11-09,0.9215654849293757,0.9215654849293757,0.0,0,False
2024-11-10,0.9215654849293757,0.9215654849293757,0.0,0,False
2024-11-11,0.9215654849293757,0.9215654849293757,0.0,0,False
2024-11-12,0.9215654849293757,0.9215654849293757,0.0,0,False
2024-11-13,0.9215654849293757,0.9215654849293757,0.0,0,False
2024-11-14,0.9215654849293757,0.9215654849293757,0.0,0,False
2024-11-15,0.9215654849293757,0.9215654849293757,0.0,0,False
2024-11-16,0.9215654849293757,0.9215654849293757,0.0,0,False
2024-11-17,0.9215654849293757,0.9215654849293757,0.0,0,False
2024-11-18,0.9215654849293757,0.9215654849293757,0.0,0,False
2024-11-19,0.9215654849293757,0.9215654849293757,0.0,0,False
2024-11-20,0.9215654849293757,0.9215654849293757,0.0,0,False
2024-11-21,0.9215654849293757,0.9215654849293757,0.0,0,False
2024-11-22,0.9215654849293757,0.9215654849293757,0.0,0,False
2024-11-23,0.9215654849293757,0.9215654849293757,0.0,0,False
2024-11-24,0.9215654849293757,0.9215654849293757,0.0,0,False
2024-11-25,0.9215654849293757,0.9215654849293757,0.0,0,False
2024-11-26,0.9215654849293757,0.9215654849293757,0.0,0,False
2024-11-27,0.9215654849293757,0.9215654849293757,0.0,0,False
2024-11-28,0.9215654849293757,0.9215654849293757,0.0,0,False
2024-11-29,0.9215654849293757,0.9215654849293757,0.0,0,False
2024-11-30,0.9215654849293757,0.9215654849293757,0.0,0,False
2024-12-01,0.9215654849293757,0.9215654849293757,0.0,0,False
2024-12-02,0.9215654849293757,0.9215654849293757,0.0,0,False
2024-12-03,0.9215654849293757,0.9215654849293757,0.0,0,False
2024-12-04,0.9215654849293757,0.9215654849293757,0.0,0,False
2024-12-05,0.9215654849293757,0.9215654849293757,0.0,0,False
2024-12-06,0.9215654849293757,0.9215654849293757,0.0,0,False
2024-12-07,0.9215654849293757,0.9215654849293757,0.0,0,False
2024-12-08,0.9215654849293757,0.9215654849293757,0.0,0,False
2024-12-09,0.9215654849293757,0.9215654849293757,0.0,0,False
2024-12-10,0.9215654849293757,0.9215654849293757,0.0,0,False
2024-12-11,0.9215654849293757,0.9215654849293757,0.0,0,False
2024-12-12,0.9215654849293757,0.9215654849293757,0.0,0,False
2024-12-13,0.9215654849293757,0.9215654849293757,0.0,0,False
2024-12-14,0.9215654849293757,0.9215654849293757,0.0,0,False
2024-12-15,0.9215654849293757,0.9215654849293757,0.0,0,False
2024-12-16,0.9215654849293757,0.9215654849293757,0.0,0,False
2024-12-17,0.9215654849293757,0.9215654849293757,0.0,0,False
2024-12-18,0.9215654849293757,0.9215654849293757,0.0,0,False
2024-12-19,0.9215654849293757,0.9215654849293757,0.0,0,False
2024-12-20,0.9215654849293757,0.9215654849293757,0.0,0,False
2024-12-21,0.9215654849293757,0.9215654849293757,0.0,0,False
2024-12-22,0.9215654849293757,0.9215654849293757,0.0,0,False
2024-12-23,0.9215654849293757,0.9215654849293757,0.0,0,False
2024-12-24,0.9215654849293757,0.9215654849293757,0.0,0,False
2024-12-25,0.9215654849293757,0.9215654849293757,0.0,0,False
2024-12-26,0.9215654849293757,0.9215654849293757,0.0,0,False
2024-12-27,0.9215654849293757,0.9215654849293757,0.0,0,False
2024-12-28,0.9215654849293757,0.9215654849293757,0.0,0,False
2024-12-29,0.9215654849293757,0.9215654849293757,0.0,0,False
2024-12-30,0.9215654849293757,0.9215654849293757,0.0,0,False
2024-12-31,0.9215654849293757,0.9215654849293757,0.0,0,False
