day,start_equity,end_equity,return_pct,entries,active
2024-01-02,1.0103467882541273,1.0139575938883325,0.3573827992708001,1,True
2024-01-03,1.0139575938883325,1.0051071099234283,-0.8728652971535356,10,True
2024-01-04,1.0051071099234283,1.0254160463949467,2.0205743518285857,4,True
2024-01-05,1.0254160463949467,1.010369569841733,-1.4673533348841694,8,True
2024-01-06,1.010369569841733,1.0189322630038513,0.8474812996851933,7,True
2024-01-07,1.0189322630038513,1.0476893390404158,2.822275540847796,8,True
2024-01-08,1.0476893390404158,1.0191887229288166,-2.7203308318192065,13,True
2024-01-09,1.0191887229288166,1.0187818116479708,-0.03992501797669412,4,True
2024-01-10,1.0187818116479708,0.9865343571719419,-3.165295464380713,6,True
2024-01-11,0.9865343571719419,1.017818689706941,3.171134619647775,5,True
2024-01-12,1.017818689706941,1.0098654830105591,-0.781397195474165,6,True
2024-01-13,1.0098654830105591,1.0093036054320472,-0.05563885368542465,8,True
2024-01-14,1.0093036054320472,1.0078492590127193,-0.14409404776726253,0,True
2024-01-15,1.0078492590127193,1.015196653454476,0.7290171993532324,4,True
2024-01-16,1.015196653454476,1.0086566588598451,-0.644209628979453,1,True
2024-01-17,1.0086566588598451,1.0165196013034519,0.7795459807398375,0,True
2024-01-18,1.0165196013034519,1.0101142660604676,-0.6301241249820344,2,True
2024-01-19,1.0101142660604676,1.0013701028245516,-0.8656607999428578,1,True
2024-01-20,1.0013701028245516,1.0253420636186497,2.393916168106136,7,True
2024-01-21,1.0253420636186497,1.0217018397286202,-0.35502531488685873,3,True
2024-01-22,1.0217018397286202,0.9955458172058747,-2.5600445752053225,4,True
2024-01-23,0.9955458172058747,0.9586449830202461,-3.706593262497493,10,True
2024-01-24,0.9586449830202461,0.9578202330245551,-0.08603289124745617,1,True
2024-01-25,0.9578202330245551,0.9432313632537682,-1.5231323444399258,4,True
2024-01-26,0.9432313632537682,0.9387917280505749,-0.470683585825471,0,True
2024-01-27,0.9387917280505749,0.9387917280505749,0.0,0,False
2024-01-28,0.9387917280505749,0.934188875716335,-0.49029536549046737,2,True
2024-01-29,0.934188875716335,0.9340887224482706,-0.010720879970627095,0,True
2024-01-30,0.9340887224482706,0.9340887224482706,0.0,0,False
2024-01-31,0.9340887224482706,0.9294352632611715,-0.4981817117866716,1,True
2024-02-01,0.9294352632611715,0.9294352632611715,0.0,0,False
2024-02-02,0.9294352632611715,0.9290466749367758,-0.041809079099519586,3,True
2024-02-03,0.9290466749367758,0.9335711087076616,0.4869974666443566,1,True
2024-02-04,0.9335711087076616,0.9346157904367014,0.11190167725798617,1,True
2024-02-05,0.9346157904367014,0.9346157904367014,0.0,0,False
2024-02-06,0.9346157904367014,0.9275107929226982,-0.7602051652351505,2,True
2024-02-07,0.9275107929226982,0.9196449692237487,-0.8480573766870503,5,True
2024-02-08,0.9196449692237487,0.9525939457047257,3.5827930977307965,1,True
2024-02-09,0.9525939457047257,0.9709612136264714,1.9281319185959767,0,True
2024-02-10,0.9709612136264714,0.9646633663346647,-0.6486198628145701,2,True
2024-02-11,0.9646633663346647,0.9619806719872839,-0.27809642627707465,0,True
2024-02-12,0.9619806719872839,0.9644698923394188,0.25875991323116576,3,True
2024-02-13,0.9644698923394188,0.9662703919676948,0.186682823650286,0,True
2024-02-14,0.9662703919676948,0.9682951393152136,0.20954252188103428,2,True
2024-02-15,0.9682951393152136,0.9654158598658306,-0.29735556159243837,6,True
2024-02-16,0.9654158598658306,0.968513716211704,0.3208831007089463,5,True
2024-02-17,0.968513716211704,0.9458832722145485,-2.336615746204751,5,True
2024-02-18,0.9458832722145485,0.9391048267782413,-0.7166259976706391,4,True
2024-02-19,0.9391048267782413,0.9321302000347963,-0.7426888399000742,6,True
2024-02-20,0.9321302000347963,0.9218918958985809,-1.0983770438757645,9,True
2024-02-21,0.9218918958985809,0.9029955993827766,-2.049730190695054,7,True
2024-02-22,0.9029955993827766,0.9257503961480743,2.5199233286243405,3,True
2024-02-23,0.9257503961480743,0.910541945652157,-1.642824087269923,7,True
2024-02-24,0.910541945652157,0.9134281968993136,0.31698168996372456,8,True
2024-02-25,0.9134281968993136,0.9205986452893408,0.7850040555314131,8,True
2024-02-26,0.9205986452893408,0.9288731345105541,0.898816141382941,7,True
2024-02-27,0.9288731345105541,0.9303871033845018,0.16298984411315942,4,True
2024-02-28,0.9303871033845018,0.9737800391024156,4.66396573641894,6,True
2024-02-29,0.9737800391024156,0.9985900121220286,2.5478005322928654,13,True
2024-03-01,0.9985900121220286,1.010950537117973,1.237797779458849,8,True
2024-03-02,1.010950537117973,1.0151165670071856,0.41209037794165404,9,True
2024-03-03,1.0151165670071856,1.0155044088166616,0.038206627896886225,10,True
2024-03-04,1.0155044088166616,1.0699035301471103,5.356857228600154,4,True
2024-03-05,1.0699035301471103,1.0515834485626836,-1.7123115372754794,9,True
2024-03-06,1.0515834485626836,1.0147747585106779,-3.500310898038217,21,True
2024-03-07,1.0147747585106779,1.015985718424609,0.11933287695373718,9,True
2024-03-08,1.015985718424609,1.0140925479426417,-0.1863382966546978,6,True
2024-03-09,1.0140925479426417,1.0185955953155308,0.4440469838797867,7,True
2024-03-10,1.0185955953155308,1.0396527640155275,2.0672746668881636,8,True
2024-03-11,1.0396527640155275,1.0582679733413867,1.790521794407618,8,True
2024-03-12,1.0582679733413867,1.062852512203313,0.4332115284043869,5,True
2024-03-13,1.062852512203313,1.0446549258585212,-1.7121459596560529,6,True
2024-03-14,1.0446549258585212,1.0448464143407827,0.01833030960958215,5,True
2024-03-15,1.0448464143407827,1.0151310166656833,-2.843996712554886,16,True
2024-03-16,1.0151310166656833,1.0305822176168569,1.5220893360075705,2,True
2024-03-17,1.0305822176168569,1.0024537585717066,-2.7293755475613746,9,True
2024-03-18,1.0024537585717066,1.011241045846999,0.8765778171965222,4,True
2024-03-19,1.011241045846999,0.9823297579215894,-2.8589907464835806,17,True
2024-03-20,0.9823297579215894,0.975550249819533,-0.6901458545245043,5,True
2024-03-21,0.975550249819533,0.9981663469437422,2.3182913569437247,6,True
2024-03-22,0.9981663469437422,0.9911106418609132,-0.7068666564879256,8,True
2024-03-23,0.9911106418609132,1.0140023440303942,2.3097019850881084,5,True
2024-03-24,1.0140023440303942,1.0009252113469898,-1.289655074309426,6,True
2024-03-25,1.0009252113469898,1.0233727365164897,2.2426775662180987,4,True
2024-03-26,1.0233727365164897,1.0668837553649873,4.2517273810329215,8,True
2024-03-27,1.0668837553649873,1.05325398187844,-1.2775312603653166,7,True
2024-03-28,1.05325398187844,1.0231399264949557,-2.859144698392413,6,True
2024-03-29,1.0231399264949557,0.9968055114975274,-2.573882058111443,7,True
2024-03-30,0.9968055114975274,0.9833399877243916,-1.3508677086773169,2,True
2024-03-31,0.9833399877243916,0.9784362303728966,-0.4986838136058158,1,True
2024-04-01,0.9784362303728966,0.9704708356427902,-0.8140944174839682,6,True
2024-04-02,0.9704708356427902,0.9575746288966919,-1.3288608242984057,9,True
2024-04-03,0.9575746288966919,0.9662312720116241,0.9040175933761274,4,True
2024-04-04,0.9662312720116241,0.9618036989898389,-0.458231186470226,3,True
2024-04-05,0.9618036989898389,0.9339909300749086,-2.891730292173067,5,True
2024-04-06,0.9339909300749086,0.9203598836937124,-1.4594409798072694,3,True
2024-04-07,0.9203598836937124,0.9427198498291834,2.4294807424388276,4,True
2024-04-08,0.9427198498291834,0.9181241852585661,-2.6090109988745835,2,True
2024-04-09,0.9181241852585661,0.9044632237766047,-1.4879208827413781,3,True
2024-04-10,0.9044632237766047,0.8938035818816796,-1.1785600137964147,7,True
2024-04-11,0.8938035818816796,0.9124520893117699,2.086421201270028,1,True
2024-04-12,0.9124520893117699,0.9058815098756836,-0.7201013086662211,9,True
2024-04-13,0.9058815098756836,0.877096414479023,-3.177578423099825,13,True
2024-04-14,0.877096414479023,0.8358039303935684,-4.707861462411911,20,True
2024-04-15,0.8358039303935684,0.8505424442977,1.7633937061281246,2,True
2024-04-16,0.8505424442977,0.8425678265112084,-0.9375919849686332,1,True
2024-04-17,0.8425678265112084,0.836332529367312,-0.7400350390442512,1,True
2024-04-18,0.836332529367312,0.8635085825721331,3.2494315658605277,1,True
2024-04-19,0.8635085825721331,0.9040487730807633,4.69482195392581,10,True
2024-04-20,0.9040487730807633,0.9089407602030859,0.5411198231763503,0,True
2024-04-21,0.9089407602030859,0.9089407602030859,0.0,0,False
2024-04-22,0.9089407602030859,0.9089407602030859,0.0,0,False
2024-04-23,0.9089407602030859,0.9148321742810547,0.6481626015596875,4,True
2024-04-24,0.9148321742810547,0.9037078246916854,-1.215998945173924,5,True
2024-04-25,0.9037078246916854,0.889203229929805,-1.6050093144682975,4,True
2024-04-26,0.889203229929805,0.8849484837880927,-0.4784897308625746,1,True
2024-04-27,0.8849484837880927,0.8841593672403266,-0.08917090228667268,6,True
2024-04-28,0.8841593672403266,0.8928390416285847,0.9816866404242841,3,True
2024-04-29,0.8928390416285847,0.8974990818258771,0.5219350834829273,3,True
2024-04-30,0.8974990818258771,0.8890513147362804,-0.941256348965902,2,True
2024-05-01,0.8890513147362804,0.8766640095208913,-1.3933172371567326,6,True
2024-05-02,0.8766640095208913,0.8825925447129762,0.6762608168806805,4,True
2024-05-03,0.8825925447129762,0.8909191869261497,0.9434299284593717,3,True
2024-05-04,0.8909191869261497,0.8919216974129738,0.11252541212889433,0,True
2024-05-05,0.8919216974129738,0.8874812411644953,-0.49785269955401334,1,True
2024-05-06,0.8874812411644953,0.8830557452027652,-0.49865797229959874,1,True
2024-05-07,0.8830557452027652,0.8826386846036919,-0.04722924926755523,4,True
2024-05-08,0.8826386846036919,0.8819948063819579,-0.07294924106153733,3,True
2024-05-09,0.8819948063819579,0.8592633716236937,-2.57727535284602,10,True
2024-05-10,0.8592633716236937,0.8509692219572712,-0.9652627983838702,4,True
2024-05-11,0.8509692219572712,0.8358565553368944,-1.77593574837136,4,True
2024-05-12,0.8358565553368944,0.8310494130739875,-0.5751156980481342,0,True
2024-05-13,0.8310494130739875,0.830283638452115,-0.09214549818885587,4,True
2024-05-14,0.830283638452115,0.8123711297345325,-2.1573963267512375,3,True
2024-05-15,0.8123711297345325,0.7984722574953811,-1.7109017948106153,3,True
2024-05-16,0.7984722574953811,0.7795390778346263,-2.371175639858014,4,True
2024-05-17,0.7795390778346263,0.7783181181483294,-0.15662584737745622,1,True
2024-05-18,0.7783181181483294,0.7888277919188142,1.3503056816264403,2,True
2024-05-19,0.7888277919188142,0.7874201350209584,-0.1784492017493089,0,True
2024-05-20,0.7874201350209584,0.7965337075574452,1.157396430590918,2,True
2024-05-21,0.7965337075574452,0.7906659803210613,-0.7366577435093391,4,True
2024-05-22,0.7906659803210613,0.7953158999428361,0.5881016431093622,1,True
2024-05-23,0.7953158999428361,0.7954824240466601,0.020938108220391882,7,True
2024-05-24,0.7954824240466601,0.8064404909391604,1.3775372731374746,5,True
2024-05-25,0.8064404909391604,0.7967732979770916,-1.1987484595187614,3,True
2024-05-26,0.7967732979770916,0.8049823266669495,1.0302841110137129,3,True
2024-05-27,0.8049823266669495,0.8187391850402695,1.7089640253694416,4,True
2024-05-28,0.8187391850402695,0.8253206544488073,0.8038542100820667,2,True
2024-05-29,0.8253206544488073,0.8166076389614849,-1.0557127633188057,4,True
2024-05-30,0.8166076389614849,0.7914071197392598,-3.086000916458931,6,True
2024-05-31,0.7914071197392598,0.7753753524293341,-2.025729477289462,3,True
2024-06-01,0.7753753524293341,0.7673246345392665,-1.038299433280132,3,True
2024-06-02,0.7673246345392665,0.7593102235089177,-1.0444615837416626,4,True
2024-06-03,0.7593102235089177,0.7461452808429847,-1.7338028987803344,12,True
2024-06-04,0.7461452808429847,0.7240499089201721,-2.961269405584066,7,True
2024-06-05,0.7240499089201721,0.7240569613356573,0.0009740233923638542,0,True
2024-06-06,0.7240569613356573,0.7182602867522957,-0.8005826741405264,3,True
2024-06-07,0.7182602867522957,0.717339718288425,-0.12816641555294384,0,True
2024-06-08,0.717339718288425,0.7389537463522688,3.013081182151045,9,True
2024-06-09,0.7389537463522688,0.739591879083471,0.08635624818904564,3,True
2024-06-10,0.739591879083471,0.7325562151856886,-0.9512900420839188,0,True
2024-06-11,0.7325562151856886,0.7185714775852775,-1.9090326872547525,4,True
2024-06-12,0.7185714775852775,0.7121928986062972,-0.8876749464667322,4,True
2024-06-13,0.7121928986062972,0.7084764011353719,-0.5218386027434629,4,True
2024-06-14,0.7084764011353719,0.6906270755350514,-2.5193959278976608,6,True
2024-06-15,0.6906270755350514,0.6978700963700363,1.0487600459876845,5,True
2024-06-16,0.6978700963700363,0.6990185818018531,0.16457008801360473,0,True
2024-06-17,0.6990185818018531,0.6851123992643676,-1.9893866771952817,4,True
2024-06-18,0.6851123992643676,0.687251730246748,0.3122598546862587,6,True
2024-06-19,0.687251730246748,0.6793357994929935,-1.151824055926698,3,True
2024-06-20,0.6793357994929935,0.6835504813208677,0.6204121483101233,1,True
2024-06-21,0.6835504813208677,0.6800668045818546,-0.5096443985060706,1,True
2024-06-22,0.6800668045818546,0.6736789316566101,-0.9393007984226154,3,True
2024-06-23,0.6736789316566101,0.6775649065136696,0.576828912773597,2,True
2024-06-24,0.6775649065136696,0.6836414186664524,0.8968162451105766,2,True
2024-06-25,0.6836414186664524,0.6914001880297566,1.1349179776788176,1,True
2024-06-26,0.6914001880297566,0.6931710424283632,0.2561258196433158,0,True
2024-06-27,0.6931710424283632,0.6899711379640185,-0.46163273831154594,2,True
2024-06-28,0.6899711379640185,0.6840260430020548,-0.8616440072416132,2,True
2024-06-29,0.6840260430020548,0.6642188438297593,-2.8956791009543514,7,True
2024-06-30,0.6642188438297593,0.6729673164284131,1.3171069565283355,0,True
2024-07-01,0.6729673164284131,0.6662885827063401,-0.9924306216709922,2,True
2024-07-02,0.6662885827063401,0.6662885827063401,0.0,0,False
2024-07-03,0.6662885827063401,0.662976402597323,-0.4971089397275197,1,True
2024-07-04,0.662976402597323,0.6485294025466256,-2.1791122571027888,5,True
2024-07-05,0.6485294025466256,0.6100685673641661,-5.930469001317851,19,True
2024-07-06,0.6100685673641661,0.6188306282944442,1.436241989672582,1,True
2024-07-07,0.6188306282944442,0.6162186047126553,-0.42209022345708336,2,True
2024-07-08,0.6162186047126553,0.6201126598250184,0.631927546909905,2,True
2024-07-09,0.6201126598250184,0.6341529690160551,2.2641545803948837,2,True
2024-07-10,0.6341529690160551,0.63526026184718,0.17460973696030724,1,True
2024-07-11,0.63526026184718,0.6271588566002254,-1.2752891583990622,3,True
2024-07-12,0.6271588566002254,0.6272038575766955,0.00717537127898904,0,True
2024-07-13,0.6272038575766955,0.6232107013414336,-0.6366600248107646,2,True
2024-07-14,0.6232107013414336,0.622801809360323,-0.06561055197391585,3,True
2024-07-15,0.622801809360323,0.622801809360323,0.0,0,False
2024-07-16,0.622801809360323,0.6135065643480098,-1.492488440561912,3,True
2024-07-17,0.6135065643480098,0.6150788071469213,0.2562715527880899,2,True
2024-07-18,0.6150788071469213,0.6162294478580417,0.18707207885404475,0,True
2024-07-19,0.6162294478580417,0.6149888667251318,-0.20131805404984826,2,True
2024-07-20,0.6149888667251318,0.6139662953721371,-0.16627477476786057,3,True
2024-07-21,0.6139662953721371,0.6175553953167905,0.5845760543708556,1,True
2024-07-22,0.6175553953167905,0.6162720838145367,-0.20780508307202128,1,True
2024-07-23,0.6162720838145367,0.6130364416685965,-0.5250346772017522,3,True
2024-07-24,0.6130364416685965,0.6085247985801593,-0.7359502277151986,1,True
2024-07-25,0.6085247985801593,0.603781748656324,-0.7794341224716006,3,True
2024-07-26,0.603781748656324,0.5953945599614491,-1.3891093451466552,1,True
2024-07-27,0.5953945599614491,0.5986769489015483,0.5512964277523347,1,True
2024-07-28,0.5986769489015483,0.5865359261913954,-2.0279756440312657,3,True
2024-07-29,0.5865359261913954,0.5865359261913954,0.0,0,False
2024-07-30,0.5865359261913954,0.5833093898617397,-0.5501003750284839,2,True
2024-07-31,0.5833093898617397,0.5753475003033567,-1.364951378593482,8,True
2024-08-01,0.5753475003033567,0.5679732581246646,-1.2817023059636057,1,True
2024-08-02,0.5679732581246646,0.5567146218291901,-1.9822476031087,4,True
2024-08-03,0.5567146218291901,0.5567511279790252,0.006557426085751494,9,True
2024-08-04,0.5567511279790252,0.5303599738145696,-4.740206680901393,6,True
2024-08-05,0.5303599738145696,0.5165944737932913,-2.595501301176839,19,True
2024-08-06,0.5165944737932913,0.5252752829480326,1.6803914085644855,0,True
2024-08-07,0.5252752829480326,0.524914254319531,-0.06873131864789661,1,True
2024-08-08,0.524914254319531,0.5226585515634291,-0.4297278531759541,0,True
2024-08-09,0.5226585515634291,0.5226585515634291,0.0,0,False
2024-08-10,0.5226585515634291,0.5226585515634291,0.0,0,False
2024-08-11,0.5226585515634291,0.5200479480293627,-0.4994854721609876,1,True
2024-08-12,0.5200479480293627,0.5261498222702262,1.1733291639714372,3,True
2024-08-13,0.5261498222702262,0.5205900110238115,-1.0566973533175927,0,True
2024-08-14,0.5205900110238115,0.5205900110238115,0.0,0,False
2024-08-15,0.5205900110238115,0.5205900110238115,0.0,0,False
2024-08-16,0.5205900110238115,0.5205900110238115,0.0,0,False
2024-08-17,0.5205900110238115,0.5414665360850015,4.0101662765548385,1,True
2024-08-18,0.5414665360850015,0.55614640432595,2.7111312080501326,4,True
2024-08-19,0.55614640432595,0.5419693388727674,-2.5491606783586307,6,True
2024-08-20,0.5419693388727674,0.5399554460124701,-0.37158796925411686,4,True
2024-08-21,0.5399554460124701,0.5392367637971728,-0.1331002808851678,1,True
2024-08-22,0.5392367637971728,0.5415101239778581,0.42158849939624155,2,True
2024-08-23,0.5415101239778581,0.5418917734280415,0.0704787285193964,0,True
2024-08-24,0.5418917734280415,0.5409093701639813,-0.181291415045004,3,True
2024-08-25,0.5409093701639813,0.5398199624542457,-0.20140300202331485,2,True
2024-08-26,0.5398199624542457,0.5347255827593619,-0.9437182855785209,2,True
2024-08-27,0.5347255827593619,0.5345405940346972,-0.03459507654562932,1,True
2024-08-28,0.5345405940346972,0.5314529066444038,-0.5776338457267882,4,True
2024-08-29,0.5314529066444038,0.5295049878521826,-0.3665270747168159,3,True
2024-08-30,0.5295049878521826,0.5316272495855194,0.40080108441382656,0,True
2024-08-31,0.5316272495855194,0.5316272495855194,0.0,0,False
2024-09-01,0.5316272495855194,0.5289811866329652,-0.4977289923752348,1,True
2024-09-02,0.5289811866329652,0.530007384190974,0.19399509546655924,1,True
2024-09-03,0.530007384190974,0.5292579785528939,-0.1413953202225704,1,True
2024-09-04,0.5292579785528939,0.5289433387643508,-0.05944922916483186,0,True
2024-09-05,0.5289433387643508,0.5251918902625626,-0.709234473119913,2,True
2024-09-06,0.5251918902625626,0.5253089131962307,0.02228193843769599,1,True
2024-09-07,0.5253089131962307,0.522947416406752,-0.44954439762124876,0,True
2024-09-08,0.522947416406752,0.522947416406752,0.0,0,False
2024-09-09,0.522947416406752,0.522947416406752,0.0,0,False
2024-09-10,0.522947416406752,0.522947416406752,0.0,0,False
2024-09-11,0.522947416406752,0.5177518662965849,-0.9935129129935327,2,True
2024-09-12,0.5177518662965849,0.5177518662965849,0.0,0,False
2024-09-13,0.5177518662965849,0.5192535769569008,0.29004447073410766,2,True
2024-09-14,0.5192535769569008,0.5175214315880621,-0.33358371433663825,0,True
2024-09-15,0.5175214315880621,0.520592361535095,0.5933918403358662,3,True
2024-09-16,0.520592361535095,0.5139400763207677,-1.2778299694431672,1,True
2024-09-17,0.5139400763207677,0.5113798614989915,-0.49815434517277435,1,True
2024-09-18,0.5113798614989915,0.5037208390868484,-1.4977168615307734,3,True
2024-09-19,0.5037208390868484,0.5046323636543981,0.18095828022564042,2,True
2024-09-20,0.5046323636543981,0.5084751278871241,0.7614977772923304,3,True
2024-09-21,0.5084751278871241,0.5001945126445818,-1.628519231009573,7,True
2024-09-22,0.5001945126445818,0.49999632992059434,-0.03962113117548238,3,True
2024-09-23,0.49999632992059434,0.5013620638777762,0.2731487963919088,1,True
2024-09-24,0.5013620638777762,0.4998445731747429,-0.3026736190002599,0,True
2024-09-25,0.4998445731747429,0.4998445731747429,0.0,0,False
2024-09-26,0.4998445731747429,0.4998445731747429,0.0,0,False
2024-09-27,0.4998445731747429,0.49735186924292096,-0.49869580777672784,1,True
2024-09-28,0.49735186924292096,0.49735186924292096,0.0,0,False
2024-09-29,0.49735186924292096,0.49735186924292096,0.0,0,False
2024-09-30,0.49735186924292096,0.4936340317522586,-0.7475265944655418,2,True
2024-10-01,0.4936340317522586,0.4955644292954461,0.3910584398598038,0,True
2024-10-02,0.4955644292954461,0.47949080500198055,-3.2434983915850757,13,True
2024-10-03,0.47949080500198055,0.48123080339438506,0.36288462140527944,3,True
2024-10-04,0.48123080339438506,0.4812884886861895,0.0119870322925264,3,True
2024-10-05,0.4812884886861895,0.4794582474735424,-0.38027944895239196,0,True
2024-10-06,0.4794582474735424,0.4794582474735424,0.0,0,False
2024-10-07,0.4794582474735424,0.4794582474735424,0.0,0,False
2024-10-08,0.4794582474735424,0.4746808860596448,-0.9964082251314621,2,True
2024-10-09,0.4746808860596448,0.4746808860596448,0.0,0,False
2024-10-10,0.4746808860596448,0.4746808860596448,0.0,0,False
2024-10-11,0.4746808860596448,0.47393122847450053,-0.15792874901014997,1,True
2024-10-12,0.47393122847450053,0.47284951402551717,-0.2282429145817666,1,True
2024-10-13,0.47284951402551717,0.47204227814191413,-0.170717291582001,0,True
2024-10-14,0.47204227814191413,0.47204227814191413,0.0,0,False
2024-10-15,0.47204227814191413,0.4650844681653177,-1.4739802553246473,4,True
2024-10-16,0.4650844681653177,0.45846588497921986,-1.4230927152237616,5,True
2024-10-17,0.45846588497921986,0.4560717187231209,-0.5222125210488593,2,True
2024-10-18,0.4560717187231209,0.46476914488345245,1.9070303645843278,4,True
2024-10-19,0.46476914488345245,0.46200359972793875,-0.5950363069405551,3,True
2024-10-20,0.46200359972793875,0.4649588473526144,0.6396590040458339,3,True
2024-10-21,0.4649588473526144,0.45918976418199414,-1.2407728562362608,4,True
2024-10-22,0.45918976418199414,0.4647533724033049,1.2116141637481537,3,True
2024-10-23,0.4647533724033049,0.45264199383116577,-2.605979706937789,4,True
2024-10-24,0.45264199383116577,0.44603289168095134,-1.460116878302642,3,True
2024-10-25,0.44603289168095134,0.44206074691366565,-0.890549742265867,3,True
2024-10-26,0.44206074691366565,0.4318474409988897,-2.310385164501061,10,True
2024-10-27,0.4318474409988897,0.4382014952213005,1.4713654914136898,1,True
2024-10-28,0.4382014952213005,0.4360174016113402,-0.49842221758217287,1,True
2024-10-29,0.4360174016113402,0.4472164082322179,2.568476987269497,2,True
2024-10-30,0.4472164082322179,0.4493266656514534,0.4718649361674876,0,True
2024-10-31,0.4493266656514534,0.4475796613227735,-0.3888049524385595,1,True
2024-11-01,0.4475796613227735,0.44582952826191147,-0.39102157941889315,3,True
2024-11-02,0.44582952826191147,0.4405274002043362,-1.189272518185569,1,True
2024-11-03,0.4405274002043362,0.43460575864979634,-1.3442163987513855,3,True
2024-11-04,0.43460575864979634,0.44064807754758245,1.3902988576492747,4,True
2024-11-05,0.44064807754758245,0.43503228615613954,-1.2744390994957833,1,True
2024-11-06,0.43503228615613954,0.43840368646614225,0.7749770344154694,3,True
2024-11-07,0.43840368646614225,0.43614144303181596,-0.5160183420357733,4,True
2024-11-08,0.43614144303181596,0.43183078414415504,-0.9883625957890163,2,True
2024-11-09,0.43183078414415504,0.43318452186688977,0.3134880079051605,2,True
2024-11-10,0.43318452186688977,0.4412135157990199,1.8534812595629502,7,True
2024-11-11,0.4412135157990199,0.4324147993183612,-1.9942082836525543,8,True
2024-11-12,0.4324147993183612,0.4259471711909556,-1.4956999939874538,9,True
2024-11-13,0.4259471711909556,0.4357248781490254,2.2955210456571784,6,True
2024-11-14,0.4357248781490254,0.43213931703338615,-0.8228956608745452,7,True
2024-11-15,0.43213931703338615,0.4366126791939426,1.0351666659876857,8,True
2024-11-16,0.4366126791939426,0.44400103318119083,1.692198678446144,8,True
2024-11-17,0.44400103318119083,0.43802398542136406,-1.3461787953515048,8,True
2024-11-18,0.43802398542136406,0.44418229048848334,1.405928732691475,6,True
2024-11-19,0.44418229048848334,0.4404483453686086,-0.8406334966142848,6,True
2024-11-20,0.4404483453686086,0.4356155702227261,-1.097239936691774,3,True
2024-11-21,0.4356155702227261,0.4442546138222838,1.983180627620973,6,True
2024-11-22,0.4442546138222838,0.4412958328287418,-0.6660101890862191,4,True
2024-11-23,0.4412958328287418,0.46319815863374125,4.9631843710383095,1,True
2024-11-24,0.46319815863374125,0.4570017528590128,-1.3377440430690668,15,True
2024-11-25,0.4570017528590128,0.47189609320408277,3.2591429358619806,1,True
2024-11-26,0.47189609320408277,0.45492573431873456,-3.5962066924781655,12,True
2024-11-27,0.45492573431873456,0.4595818483192681,1.0234888135106868,3,True
2024-11-28,0.4595818483192681,0.45647453371148594,-0.6761177838389254,3,True
2024-11-29,0.45647453371148594,0.4616627440691517,1.13658265127774,5,True
2024-11-30,0.4616627440691517,0.47536167083342407,2.967301767417574,3,True
2024-12-01,0.47536167083342407,0.4714890084942129,-0.8146770294755745,4,True
2024-12-02,0.4714890084942129,0.47130189787069,-0.039685044646209366,9,True
2024-12-03,0.47130189787069,0.4781584602780734,1.4548132393187752,8,True
2024-12-04,0.4781584602780734,0.48382249724199744,1.1845522843264344,6,True
2024-12-05,0.48382249724199744,0.48286523404712833,-0.19785421313104345,9,True
2024-12-06,0.48286523404712833,0.47522242615297144,-1.5828035143675145,6,True
2024-12-07,0.47522242615297144,0.4736335803023219,-0.3343373046410303,4,True
2024-12-08,0.4736335803023219,0.47180496094362434,-0.3860831315064983,0,True
2024-12-09,0.47180496094362434,0.46875214729371983,-0.6470499258419804,3,True
2024-12-10,0.46875214729371983,0.4367542794630738,-6.8261805338666885,22,True
2024-12-11,0.4367542794630738,0.456710150301489,4.569130006682021,5,True
2024-12-12,0.456710150301489,0.45194866826268665,-1.0425610281836528,2,True
2024-12-13,0.45194866826268665,0.45170713122722295,-0.053443466576008625,1,True
2024-12-14,0.45170713122722295,0.45315707798904814,0.32099266573142327,0,True
2024-12-15,0.45315707798904814,0.44332627527748364,-2.1694028823714184,5,True
2024-12-16,0.44332627527748364,0.44196506297608285,-0.3070452570285376,0,True
2024-12-17,0.44196506297608285,0.44196506297608285,0.0,0,False
2024-12-18,0.44196506297608285,0.43539022242872943,-1.4876380732630867,4,True
2024-12-19,0.43539022242872943,0.429164587597059,-1.4298977126638412,11,True
2024-12-20,0.429164587597059,0.40024777161269665,-6.737931511607442,22,True
2024-12-21,0.40024777161269665,0.41741457580179153,4.289044288722854,3,True
2024-12-22,0.41741457580179153,0.42419829519398017,1.6251754934906382,2,True
2024-12-23,0.42419829519398017,0.4342911783872738,2.3792842422146743,3,True
2024-12-24,0.4342911783872738,0.43295768155449904,-0.3070513284950116,0,True
2024-12-25,0.43295768155449904,0.43862599569266325,1.3092074305767198,4,True
2024-12-26,0.43862599569266325,0.43649832334289856,-0.48507666455216425,3,True
2024-12-27,0.43649832334289856,0.4365318989291404,0.0076920309761252526,0,True
2024-12-28,0.4365318989291404,0.429629361270834,-1.5812218248515308,4,True
2024-12-29,0.429629361270834,0.4517930798373267,5.158799785222534,5,True
2024-12-30,0.4517930798373267,0.44782247368647743,-0.8788550174958276,4,True
2024-12-31,0.44782247368647743,0.44420701013451763,-0.8073430353321198,3,True
