day,start_equity,end_equity,return_pct,entries,active
2024-01-02,1.0,0.9985290200988501,-0.14709799011498603,1,True
2024-01-03,0.9985290200988501,0.9953866927176827,-0.31469564909154535,10,True
2024-01-04,0.9953866927176827,1.0106166966081827,1.53005902147616,6,True
2024-01-05,1.0106166966081827,0.9995405741043685,-1.09597659933659,4,True
2024-01-06,0.9995405741043685,0.9934963798088514,-0.6046972431242192,7,True
2024-01-07,0.9934963798088514,0.9846834265217368,-0.8870644590381116,3,True
2024-01-08,0.9846834265217368,0.9636364606854461,-2.1374347601884947,4,True
2024-01-09,0.9636364606854461,0.9636364606854461,0.0,0,False
2024-01-10,0.9636364606854461,0.9636024570265348,-0.0035286812297474768,4,True
2024-01-11,0.9636024570265348,0.9649090029471837,0.13558972490383958,3,True
2024-01-12,0.9649090029471837,0.9573955800887657,-0.7786664685964451,7,True
2024-01-13,0.9573955800887657,0.950750646982006,-0.6940634827396708,10,True
2024-01-14,0.950750646982006,0.9572672064440828,0.6854120460251689,0,True
2024-01-15,0.9572672064440828,0.9526146843680876,-0.48602125348863323,2,True
2024-01-16,0.9526146843680876,0.9522176609330087,-0.04167723231583986,1,True
2024-01-17,0.9522176609330087,0.9550459728788104,0.29702368080744,0,True
2024-01-18,0.9550459728788104,0.9527724705192296,-0.23805161470161762,1,True
2024-01-19,0.9527724705192296,0.9492775637950789,-0.3668144108158522,1,True
2024-01-20,0.9492775637950789,0.9739511647054598,2.599197732193237,7,True
2024-01-21,0.9739511647054598,0.9732189565926997,-0.07517914031978101,1,True
2024-01-22,0.9732189565926997,0.9564725751792922,-1.720720840871992,4,True
2024-01-23,0.9564725751792922,0.9364942276107536,-2.0887527867480715,9,True
2024-01-24,0.9364942276107536,0.9339460179929735,-0.27210094228571347,1,True
2024-01-25,0.9339460179929735,0.9288850285692659,-0.5418931422378703,2,True
2024-01-26,0.9288850285692659,0.9288850285692659,0.0,0,False
2024-01-27,0.9288850285692659,0.9288850285692659,0.0,0,False
2024-01-28,0.9288850285692659,0.9274777261011676,-0.1515044838504842,1,True
2024-01-29,0.9274777261011676,0.9274777261011676,0.0,0,False
2024-01-30,0.9274777261011676,0.9274777261011676,0.0,0,False
2024-01-31,0.9274777261011676,0.9233043357304674,-0.4499720320232159,1,True
2024-02-01,0.9233043357304674,0.9233043357304674,0.0,0,False
2024-02-02,0.9233043357304674,0.923057371221212,-0.026747898791146252,2,True
2024-02-03,0.923057371221212,0.9324815755266839,1.0209770919226369,1,True
2024-02-04,0.9324815755266839,0.9301485162806208,-0.2501989644937863,1,True
2024-02-05,0.9301485162806208,0.9301485162806208,0.0,0,False
2024-02-06,0.9301485162806208,0.9239215388513766,-0.669460556056567,2,True
2024-02-07,0.9239215388513766,0.9215157140755635,-0.26039275789631056,4,True
2024-02-08,0.9215157140755635,0.9390514443286341,1.9029225422012352,1,True
2024-02-09,0.9390514443286341,0.9520370593984618,1.3828438418634015,0,True
2024-02-10,0.9520370593984618,0.9464067452758819,-0.5913965288428469,2,True
2024-02-11,0.9464067452758819,0.9452037669896871,-0.12711007103441974,0,True
2024-02-12,0.9452037669896871,0.9461216019061608,0.09710444969943666,1,True
2024-02-13,0.9461216019061608,0.9461216019061608,0.0,0,False
2024-02-14,0.9461216019061608,0.947870841434545,0.1848852753028707,2,True
2024-02-15,0.947870841434545,0.9624013349952725,1.5329613408865406,1,True
2024-02-16,0.9624013349952725,0.9599067934192634,-0.2591997210832253,3,True
2024-02-17,0.9599067934192634,0.9571987545227417,-0.28211477563102605,5,True
2024-02-18,0.9571987545227417,0.964526616311771,0.7655527918737137,1,True
2024-02-19,0.964526616311771,0.9649001208469362,0.0387241294173446,2,True
2024-02-20,0.9649001208469362,0.9637199328867062,-0.12231192998443108,10,True
2024-02-21,0.9637199328867062,0.9541895852863049,-0.9889125746163852,7,True
2024-02-22,0.9541895852863049,0.9792458173941861,2.625917584330284,4,True
2024-02-23,0.9792458173941861,0.9741290619800851,-0.5225200172635835,3,True
2024-02-24,0.9741290619800851,0.9640794764705549,-1.0316482591231413,8,True
2024-02-25,0.9640794764705549,0.9469970141645732,-1.7718935754674314,4,True
2024-02-26,0.9469970141645732,0.9394225486370323,-0.7998404867435527,5,True
2024-02-27,0.9394225486370323,0.9410457886883135,0.1727912592300651,3,True
2024-02-28,0.9410457886883135,0.9747798558907096,3.5847423800085876,5,True
2024-02-29,0.9747798558907096,0.9853581549759438,1.0851987780941874,8,True
2024-03-01,0.9853581549759438,0.9846478983922992,-0.07208105804553666,6,True
2024-03-02,0.9846478983922992,0.9821597524670594,-0.2526939761210323,5,True
2024-03-03,0.9821597524670594,0.9889368014542368,0.6900149359770014,10,True
2024-03-04,0.9889368014542368,0.9944477032278973,0.5572552023098698,1,True
2024-03-05,0.9944477032278973,1.0231582007085511,2.8870796712046065,12,True
2024-03-06,1.0231582007085511,0.9975567744458196,-2.502196263002354,5,True
2024-03-07,0.9975567744458196,0.9987061380112943,0.11521785976675858,3,True
2024-03-08,0.9987061380112943,0.9951809731044983,-0.3529731892722321,5,True
2024-03-09,0.9951809731044983,0.9825319009960126,-1.2710323499279252,5,True
2024-03-10,0.9825319009960126,0.9934814024827351,1.1144168932960552,9,True
2024-03-11,0.9934814024827351,1.0034615478698137,1.0045628798020623,3,True
2024-03-12,1.0034615478698137,1.0020545276393766,-0.14021665637551362,3,True
2024-03-13,1.0020545276393766,1.0161439776204615,1.4060562167486523,5,True
2024-03-14,1.0161439776204615,1.0172770729652998,0.11150933035017907,5,True
2024-03-15,1.0172770729652998,0.9907273413507184,-2.6098820390388466,8,True
2024-03-16,0.9907273413507184,0.9887552654343827,-0.19905334535806896,3,True
2024-03-17,0.9887552654343827,0.9799998554484605,-0.8854981907050363,7,True
2024-03-18,0.9799998554484605,0.98289873165069,0.2958037377365663,4,True
2024-03-19,0.98289873165069,0.9579224277766784,-2.5410861841347776,8,True
2024-03-20,0.9579224277766784,0.9448355520723426,-1.3661728053189215,4,True
2024-03-21,0.9448355520723426,0.9402865560583726,-0.4814590225772575,4,True
2024-03-22,0.9402865560583726,0.9388094174719448,-0.1570945130407786,9,True
2024-03-23,0.9388094174719448,0.9435323262848111,0.5030742901561691,7,True
2024-03-24,0.9435323262848111,0.9376108397848866,-0.6275870296082564,4,True
2024-03-25,0.9376108397848866,0.946713392733277,0.9708242014862867,4,True
2024-03-26,0.946713392733277,0.9683448743900276,2.284902888539242,4,True
2024-03-27,0.9683448743900276,0.9642219587971567,-0.42576934126573596,6,True
2024-03-28,0.9642219587971567,0.9541217226779747,-1.0475011512683041,2,True
2024-03-29,0.9541217226779747,0.9494835016740207,-0.48612466247343056,6,True
2024-03-30,0.9494835016740207,0.9401422561117943,-0.983823894333824,2,True
2024-03-31,0.9401422561117943,0.9401422561117943,0.0,0,False
2024-04-01,0.9401422561117943,0.9415774844782633,0.15266076565951803,5,True
2024-04-02,0.9415774844782633,0.9372018586968198,-0.46471223596303846,6,True
2024-04-03,0.9372018586968198,0.9295716504531143,-0.8141477924846763,3,True
2024-04-04,0.9295716504531143,0.928991086817879,-0.06245496352564883,1,True
2024-04-05,0.928991086817879,0.9212343688160702,-0.8349615095208596,5,True
2024-04-06,0.9212343688160702,0.9188311263618719,-0.26087199257305294,1,True
2024-04-07,0.9188311263618719,0.9252414633927821,0.6976621543386408,3,True
2024-04-08,0.9252414633927821,0.9219598629141039,-0.3546750344115446,1,True
2024-04-09,0.9219598629141039,0.9171533189635821,-0.521339826587397,3,True
2024-04-10,0.9171533189635821,0.9171189133628218,-0.0037513466994987255,4,True
2024-04-11,0.9171189133628218,0.9182095337475198,0.11891809980224544,1,True
2024-04-12,0.9182095337475198,0.9127030607972669,-0.5996967737613379,9,True
2024-04-13,0.9127030607972669,0.9016194913846398,-1.2143675077571636,13,True
2024-04-14,0.9016194913846398,0.8810926930472331,-2.276658671817655,11,True
2024-04-15,0.8810926930472331,0.8819769417576013,0.10035819356417619,5,True
2024-04-16,0.8819769417576013,0.8796444815132762,-0.2644581886321218,1,True
2024-04-17,0.8796444815132762,0.8812903598269358,0.18710721754635617,1,True
2024-04-18,0.8812903598269358,0.8803062159949162,-0.1116707814905471,1,True
2024-04-19,0.8803062159949162,0.8723207641318975,-0.9071220579754291,4,True
2024-04-20,0.8723207641318975,0.8723207641318975,0.0,0,False
2024-04-21,0.8723207641318975,0.8723207641318975,0.0,0,False
2024-04-22,0.8723207641318975,0.8723207641318975,0.0,0,False
2024-04-23,0.8723207641318975,0.8723207641318975,0.0,0,False
2024-04-24,0.8723207641318975,0.8723207641318975,0.0,0,False
2024-04-25,0.8723207641318975,0.8723207641318975,0.0,0,False
2024-04-26,0.8723207641318975,0.8723207641318975,0.0,0,False
2024-04-27,0.8723207641318975,0.8723207641318975,0.0,0,False
2024-04-28,0.8723207641318975,0.8723207641318975,0.0,0,False
2024-04-29,0.8723207641318975,0.8723207641318975,0.0,0,False
2024-04-30,0.8723207641318975,0.8723207641318975,0.0,0,False
2024-05-01,0.8723207641318975,0.8723207641318975,0.0,0,False
2024-05-02,0.8723207641318975,0.8723207641318975,0.0,0,False
2024-05-03,0.8723207641318975,0.8723207641318975,0.0,0,False
2024-05-04,0.8723207641318975,0.8723207641318975,0.0,0,False
2024-05-05,0.8723207641318975,0.8723207641318975,0.0,0,False
2024-05-06,0.8723207641318975,0.8723207641318975,0.0,0,False
2024-05-07,0.8723207641318975,0.8723207641318975,0.0,0,False
2024-05-08,0.8723207641318975,0.8723207641318975,0.0,0,False
2024-05-09,0.8723207641318975,0.8723207641318975,0.0,0,False
2024-05-10,0.8723207641318975,0.8723207641318975,0.0,0,False
2024-05-11,0.8723207641318975,0.8723207641318975,0.0,0,False
2024-05-12,0.8723207641318975,0.8723207641318975,0.0,0,False
2024-05-13,0.8723207641318975,0.8723207641318975,0.0,0,False
2024-05-14,0.8723207641318975,0.8723207641318975,0.0,0,False
2024-05-15,0.8723207641318975,0.8723207641318975,0.0,0,False
2024-05-16,0.8723207641318975,0.8723207641318975,0.0,0,False
2024-05-17,0.8723207641318975,0.8723207641318975,0.0,0,False
2024-05-18,0.8723207641318975,0.8723207641318975,0.0,0,False
2024-05-19,0.8723207641318975,0.8723207641318975,0.0,0,False
2024-05-20,0.8723207641318975,0.8723207641318975,0.0,0,False
2024-05-21,0.8723207641318975,0.8723207641318975,0.0,0,False
2024-05-22,0.8723207641318975,0.8723207641318975,0.0,0,False
2024-05-23,0.8723207641318975,0.8723207641318975,0.0,0,False
2024-05-24,0.8723207641318975,0.8723207641318975,0.0,0,False
2024-05-25,0.8723207641318975,0.8723207641318975,0.0,0,False
2024-05-26,0.8723207641318975,0.8723207641318975,0.0,0,False
2024-05-27,0.8723207641318975,0.8723207641318975,0.0,0,False
2024-05-28,0.8723207641318975,0.8723207641318975,0.0,0,False
2024-05-29,0.8723207641318975,0.8723207641318975,0.0,0,False
2024-05-30,0.8723207641318975,0.8723207641318975,0.0,0,False
2024-05-31,0.8723207641318975,0.8723207641318975,0.0,0,False
2024-06-01,0.8723207641318975,0.8723207641318975,0.0,0,False
2024-06-02,0.8723207641318975,0.8723207641318975,0.0,0,False
2024-06-03,0.8723207641318975,0.8723207641318975,0.0,0,False
2024-06-04,0.8723207641318975,0.8723207641318975,0.0,0,False
2024-06-05,0.8723207641318975,0.8723207641318975,0.0,0,False
2024-06-06,0.8723207641318975,0.8723207641318975,0.0,0,False
2024-06-07,0.8723207641318975,0.8723207641318975,0.0,0,False
2024-06-08,0.8723207641318975,0.8723207641318975,0.0,0,False
2024-06-09,0.8723207641318975,0.8723207641318975,0.0,0,False
2024-06-10,0.8723207641318975,0.8723207641318975,0.0,0,False
2024-06-11,0.8723207641318975,0.8723207641318975,0.0,0,False
2024-06-12,0.8723207641318975,0.8723207641318975,0.0,0,False
2024-06-13,0.8723207641318975,0.8723207641318975,0.0,0,False
2024-06-14,0.8723207641318975,0.8723207641318975,0.0,0,False
2024-06-15,0.8723207641318975,0.8723207641318975,0.0,0,False
2024-06-16,0.8723207641318975,0.8723207641318975,0.0,0,False
2024-06-17,0.8723207641318975,0.8723207641318975,0.0,0,False
2024-06-18,0.8723207641318975,0.8723207641318975,0.0,0,False
2024-06-19,0.8723207641318975,0.8723207641318975,0.0,0,False
2024-06-20,0.8723207641318975,0.8723207641318975,0.0,0,False
2024-06-21,0.8723207641318975,0.8723207641318975,0.0,0,False
2024-06-22,0.8723207641318975,0.8723207641318975,0.0,0,False
2024-06-23,0.8723207641318975,0.8723207641318975,0.0,0,False
2024-06-24,0.8723207641318975,0.8723207641318975,0.0,0,False
2024-06-25,0.8723207641318975,0.8723207641318975,0.0,0,False
2024-06-26,0.8723207641318975,0.8723207641318975,0.0,0,False
2024-06-27,0.8723207641318975,0.8723207641318975,0.0,0,False
2024-06-28,0.8723207641318975,0.8723207641318975,0.0,0,False
2024-06-29,0.8723207641318975,0.8723207641318975,0.0,0,False
2024-06-30,0.8723207641318975,0.8723207641318975,0.0,0,False
2024-07-01,0.8723207641318975,0.8723207641318975,0.0,0,False
2024-07-02,0.8723207641318975,0.8723207641318975,0.0,0,False
2024-07-03,0.8723207641318975,0.8723207641318975,0.0,0,False
2024-07-04,0.8723207641318975,0.8723207641318975,0.0,0,False
2024-07-05,0.8723207641318975,0.8723207641318975,0.0,0,False
2024-07-06,0.8723207641318975,0.8723207641318975,0.0,0,False
2024-07-07,0.8723207641318975,0.8723207641318975,0.0,0,False
2024-07-08,0.8723207641318975,0.8723207641318975,0.0,0,False
2024-07-09,0.8723207641318975,0.8723207641318975,0.0,0,False
2024-07-10,0.8723207641318975,0.8723207641318975,0.0,0,False
2024-07-11,0.8723207641318975,0.8723207641318975,0.0,0,False
2024-07-12,0.8723207641318975,0.8723207641318975,0.0,0,False
2024-07-13,0.8723207641318975,0.8723207641318975,0.0,0,False
2024-07-14,0.8723207641318975,0.8723207641318975,0.0,0,False
2024-07-15,0.8723207641318975,0.8723207641318975,0.0,0,False
2024-07-16,0.8723207641318975,0.8723207641318975,0.0,0,False
2024-07-17,0.8723207641318975,0.8723207641318975,0.0,0,False
2024-07-18,0.8723207641318975,0.8723207641318975,0.0,0,False
2024-07-19,0.8723207641318975,0.8723207641318975,0.0,0,False
2024-07-20,0.8723207641318975,0.8723207641318975,0.0,0,False
2024-07-21,0.8723207641318975,0.8723207641318975,0.0,0,False
2024-07-22,0.8723207641318975,0.8723207641318975,0.0,0,False
2024-07-23,0.8723207641318975,0.8723207641318975,0.0,0,False
2024-07-24,0.8723207641318975,0.8723207641318975,0.0,0,False
2024-07-25,0.8723207641318975,0.8723207641318975,0.0,0,False
2024-07-26,0.8723207641318975,0.8723207641318975,0.0,0,False
2024-07-27,0.8723207641318975,0.8723207641318975,0.0,0,False
2024-07-28,0.8723207641318975,0.8723207641318975,0.0,0,False
2024-07-29,0.8723207641318975,0.8723207641318975,0.0,0,False
2024-07-30,0.8723207641318975,0.8723207641318975,0.0,0,False
2024-07-31,0.8723207641318975,0.8723207641318975,0.0,0,False
2024-08-01,0.8723207641318975,0.8723207641318975,0.0,0,False
2024-08-02,0.8723207641318975,0.8723207641318975,0.0,0,False
2024-08-03,0.8723207641318975,0.8723207641318975,0.0,0,False
2024-08-04,0.8723207641318975,0.8723207641318975,0.0,0,False
2024-08-05,0.8723207641318975,0.8723207641318975,0.0,0,False
2024-08-06,0.8723207641318975,0.8723207641318975,0.0,0,False
2024-08-07,0.8723207641318975,0.8723207641318975,0.0,0,False
2024-08-08,0.8723207641318975,0.8723207641318975,0.0,0,False
2024-08-09,0.8723207641318975,0.8723207641318975,0.0,0,False
2024-08-10,0.8723207641318975,0.8723207641318975,0.0,0,False
2024-08-11,0.8723207641318975,0.8723207641318975,0.0,0,False
2024-08-12,0.8723207641318975,0.8723207641318975,0.0,0,False
2024-08-13,0.8723207641318975,0.8723207641318975,0.0,0,False
2024-08-14,0.8723207641318975,0.8723207641318975,0.0,0,False
2024-08-15,0.8723207641318975,0.8723207641318975,0.0,0,False
2024-08-16,0.8723207641318975,0.8723207641318975,0.0,0,False
2024-08-17,0.8723207641318975,0.8723207641318975,0.0,0,False
2024-08-18,0.8723207641318975,0.8723207641318975,0.0,0,False
2024-08-19,0.8723207641318975,0.8723207641318975,0.0,0,False
2024-08-20,0.8723207641318975,0.8723207641318975,0.0,0,False
2024-08-21,0.8723207641318975,0.8723207641318975,0.0,0,False
2024-08-22,0.8723207641318975,0.8723207641318975,0.0,0,False
2024-08-23,0.8723207641318975,0.8723207641318975,0.0,0,False
2024-08-24,0.8723207641318975,0.8723207641318975,0.0,0,False
2024-08-25,0.8723207641318975,0.8723207641318975,0.0,0,False
2024-08-26,0.8723207641318975,0.8723207641318975,0.0,0,False
2024-08-27,0.8723207641318975,0.8723207641318975,0.0,0,False
2024-08-28,0.8723207641318975,0.8723207641318975,0.0,0,False
2024-08-29,0.8723207641318975,0.8723207641318975,0.0,0,False
2024-08-30,0.8723207641318975,0.8723207641318975,0.0,0,False
2024-08-31,0.8723207641318975,0.8723207641318975,0.0,0,False
2024-09-01,0.8723207641318975,0.8723207641318975,0.0,0,False
2024-09-02,0.8723207641318975,0.8723207641318975,0.0,0,False
2024-09-03,0.8723207641318975,0.8723207641318975,0.0,0,False
2024-09-04,0.8723207641318975,0.8723207641318975,0.0,0,False
2024-09-05,0.8723207641318975,0.8723207641318975,0.0,0,False
2024-09-06,0.8723207641318975,0.8723207641318975,0.0,0,False
2024-09-07,0.8723207641318975,0.8723207641318975,0.0,0,False
2024-09-08,0.8723207641318975,0.8723207641318975,0.0,0,False
2024-09-09,0.8723207641318975,0.8723207641318975,0.0,0,False
2024-09-10,0.8723207641318975,0.8723207641318975,0.0,0,False
2024-09-11,0.8723207641318975,0.8723207641318975,0.0,0,False
2024-09-12,0.8723207641318975,0.8723207641318975,0.0,0,False
2024-09-13,0.8723207641318975,0.8723207641318975,0.0,0,False
2024-09-14,0.8723207641318975,0.8723207641318975,0.0,0,False
2024-09-15,0.8723207641318975,0.8723207641318975,0.0,0,False
2024-09-16,0.8723207641318975,0.8723207641318975,0.0,0,False
2024-09-17,0.8723207641318975,0.8723207641318975,0.0,0,False
2024-09-18,0.8723207641318975,0.8723207641318975,0.0,0,False
2024-09-19,0.8723207641318975,0.8723207641318975,0.0,0,False
2024-09-20,0.8723207641318975,0.8723207641318975,0.0,0,False
2024-09-21,0.8723207641318975,0.8723207641318975,0.0,0,False
2024-09-22,0.8723207641318975,0.8723207641318975,0.0,0,False
2024-09-23,0.8723207641318975,0.8723207641318975,0.0,0,False
2024-09-24,0.8723207641318975,0.8723207641318975,0.0,0,False
2024-09-25,0.8723207641318975,0.8723207641318975,0.0,0,False
2024-09-26,0.8723207641318975,0.8723207641318975,0.0,0,False
2024-09-27,0.8723207641318975,0.8723207641318975,0.0,0,False
2024-09-28,0.8723207641318975,0.8723207641318975,0.0,0,False
2024-09-29,0.8723207641318975,0.8723207641318975,0.0,0,False
2024-09-30,0.8723207641318975,0.8723207641318975,0.0,0,False
2024-10-01,0.8723207641318975,0.8723207641318975,0.0,0,False
2024-10-02,0.8723207641318975,0.8723207641318975,0.0,0,False
2024-10-03,0.8723207641318975,0.8723207641318975,0.0,0,False
2024-10-04,0.8723207641318975,0.8723207641318975,0.0,0,False
2024-10-05,0.8723207641318975,0.8723207641318975,0.0,0,False
2024-10-06,0.8723207641318975,0.8723207641318975,0.0,0,False
2024-10-07,0.8723207641318975,0.8723207641318975,0.0,0,False
2024-10-08,0.8723207641318975,0.8723207641318975,0.0,0,False
2024-10-09,0.8723207641318975,0.8723207641318975,0.0,0,False
2024-10-10,0.8723207641318975,0.8723207641318975,0.0,0,False
2024-10-11,0.8723207641318975,0.8723207641318975,0.0,0,False
2024-10-12,0.8723207641318975,0.8723207641318975,0.0,0,False
2024-10-13,0.8723207641318975,0.8723207641318975,0.0,0,False
2024-10-14,0.8723207641318975,0.8723207641318975,0.0,0,False
2024-10-15,0.8723207641318975,0.8723207641318975,0.0,0,False
2024-10-16,0.8723207641318975,0.8723207641318975,0.0,0,False
2024-10-17,0.8723207641318975,0.8723207641318975,0.0,0,False
2024-10-18,0.8723207641318975,0.8723207641318975,0.0,0,False
2024-10-19,0.8723207641318975,0.8723207641318975,0.0,0,False
2024-10-20,0.8723207641318975,0.8723207641318975,0.0,0,False
2024-10-21,0.8723207641318975,0.8723207641318975,0.0,0,False
2024-10-22,0.8723207641318975,0.8723207641318975,0.0,0,False
2024-10-23,0.8723207641318975,0.8723207641318975,0.0,0,False
2024-10-24,0.8723207641318975,0.8723207641318975,0.0,0,False
2024-10-25,0.8723207641318975,0.8723207641318975,0.0,0,False
2024-10-26,0.8723207641318975,0.8723207641318975,0.0,0,False
2024-10-27,0.8723207641318975,0.8723207641318975,0.0,0,False
2024-10-28,0.8723207641318975,0.8723207641318975,0.0,0,False
2024-10-29,0.8723207641318975,0.8723207641318975,0.0,0,False
2024-10-30,0.8723207641318975,0.8723207641318975,0.0,0,False
2024-10-31,0.8723207641318975,0.8723207641318975,0.0,0,False
2024-11-01,0.8723207641318975,0.8723207641318975,0.0,0,False
2024-11-02,0.8723207641318975,0.8723207641318975,0.0,0,False
2024-11-03,0.8723207641318975,0.8723207641318975,0.0,0,False
2024-11-04,0.8723207641318975,0.8723207641318975,0.0,0,False
2024-11-05,0.8723207641318975,0.8723207641318975,0.0,0,False
2024-11-06,0.8723207641318975,0.8723207641318975,0.0,0,False
2024-11-07,0.8723207641318975,0.8723207641318975,0.0,0,False
2024-11-08,0.8723207641318975,0.8723207641318975,0.0,0,False
2024-11-09,0.8723207641318975,0.8723207641318975,0.0,0,False
2024-11-10,0.8723207641318975,0.8723207641318975,0.0,0,False
2024-11-11,0.8723207641318975,0.8723207641318975,0.0,0,False
2024-11-12,0.8723207641318975,0.8723207641318975,0.0,0,False
2024-11-13,0.8723207641318975,0.8723207641318975,0.0,0,False
2024-11-14,0.8723207641318975,0.8723207641318975,0.0,0,False
2024-11-15,0.8723207641318975,0.8723207641318975,0.0,0,False
2024-11-16,0.8723207641318975,0.8723207641318975,0.0,0,False
2024-11-17,0.8723207641318975,0.8723207641318975,0.0,0,False
2024-11-18,0.8723207641318975,0.8723207641318975,0.0,0,False
2024-11-19,0.8723207641318975,0.8723207641318975,0.0,0,False
2024-11-20,0.8723207641318975,0.8723207641318975,0.0,0,False
2024-11-21,0.8723207641318975,0.8723207641318975,0.0,0,False
2024-11-22,0.8723207641318975,0.8723207641318975,0.0,0,False
2024-11-23,0.8723207641318975,0.8723207641318975,0.0,0,False
2024-11-24,0.8723207641318975,0.8723207641318975,0.0,0,False
2024-11-25,0.8723207641318975,0.8723207641318975,0.0,0,False
2024-11-26,0.8723207641318975,0.8723207641318975,0.0,0,False
2024-11-27,0.8723207641318975,0.8723207641318975,0.0,0,False
2024-11-28,0.8723207641318975,0.8723207641318975,0.0,0,False
2024-11-29,0.8723207641318975,0.8723207641318975,0.0,0,False
2024-11-30,0.8723207641318975,0.8723207641318975,0.0,0,False
2024-12-01,0.8723207641318975,0.8723207641318975,0.0,0,False
2024-12-02,0.8723207641318975,0.8723207641318975,0.0,0,False
2024-12-03,0.8723207641318975,0.8723207641318975,0.0,0,False
2024-12-04,0.8723207641318975,0.8723207641318975,0.0,0,False
2024-12-05,0.8723207641318975,0.8723207641318975,0.0,0,False
2024-12-06,0.8723207641318975,0.8723207641318975,0.0,0,False
2024-12-07,0.8723207641318975,0.8723207641318975,0.0,0,False
2024-12-08,0.8723207641318975,0.8723207641318975,0.0,0,False
2024-12-09,0.8723207641318975,0.8723207641318975,0.0,0,False
2024-12-10,0.8723207641318975,0.8723207641318975,0.0,0,False
2024-12-11,0.8723207641318975,0.8723207641318975,0.0,0,False
2024-12-12,0.8723207641318975,0.8723207641318975,0.0,0,False
2024-12-13,0.8723207641318975,0.8723207641318975,0.0,0,False
2024-12-14,0.8723207641318975,0.8723207641318975,0.0,0,False
2024-12-15,0.8723207641318975,0.8723207641318975,0.0,0,False
2024-12-16,0.8723207641318975,0.8723207641318975,0.0,0,False
2024-12-17,0.8723207641318975,0.8723207641318975,0.0,0,False
2024-12-18,0.8723207641318975,0.8723207641318975,0.0,0,False
2024-12-19,0.8723207641318975,0.8723207641318975,0.0,0,False
2024-12-20,0.8723207641318975,0.8723207641318975,0.0,0,False
2024-12-21,0.8723207641318975,0.8723207641318975,0.0,0,False
2024-12-22,0.8723207641318975,0.8723207641318975,0.0,0,False
2024-12-23,0.8723207641318975,0.8723207641318975,0.0,0,False
2024-12-24,0.8723207641318975,0.8723207641318975,0.0,0,False
2024-12-25,0.8723207641318975,0.8723207641318975,0.0,0,False
2024-12-26,0.8723207641318975,0.8723207641318975,0.0,0,False
2024-12-27,0.8723207641318975,0.8723207641318975,0.0,0,False
2024-12-28,0.8723207641318975,0.8723207641318975,0.0,0,False
2024-12-29,0.8723207641318975,0.8723207641318975,0.0,0,False
2024-12-30,0.8723207641318975,0.8723207641318975,0.0,0,False
2024-12-31,0.8723207641318975,0.8723207641318975,0.0,0,False
