day,start_equity,end_equity,return_pct,entries,active
2024-01-02,1.0,1.0,0.0,0,False
2024-01-03,1.0,1.0101188661844145,1.0118866184414488,4,True
2024-01-04,1.0101188661844145,1.0101033682735332,-0.0015342660552253307,1,True
2024-01-05,1.0101033682735332,1.0101033682735332,0.0,0,False
2024-01-06,1.0101033682735332,1.0101033682735332,0.0,0,False
2024-01-07,1.0101033682735332,1.0101033682735332,0.0,0,False
2024-01-08,1.0101033682735332,1.0069462861612728,-0.3125503994364953,1,True
2024-01-09,1.0069462861612728,1.0069462861612728,0.0,0,False
2024-01-10,1.0069462861612728,1.0053643297837358,-0.15710434600914036,1,True
2024-01-11,1.0053643297837358,1.0053643297837358,0.0,0,False
2024-01-12,1.0053643297837358,1.0053643297837358,0.0,0,False
2024-01-13,1.0053643297837358,1.0053643297837358,0.0,0,False
2024-01-14,1.0053643297837358,1.0053643297837358,0.0,0,False
2024-01-15,1.0053643297837358,1.0053643297837358,0.0,0,False
2024-01-16,1.0053643297837358,1.0053643297837358,0.0,0,False
2024-01-17,1.0053643297837358,1.0053643297837358,0.0,0,False
2024-01-18,1.0053643297837358,1.0053643297837358,0.0,0,False
2024-01-19,1.0053643297837358,1.0053643297837358,0.0,0,False
2024-01-20,1.0053643297837358,1.0053643297837358,0.0,0,False
2024-01-21,1.0053643297837358,1.0053643297837358,0.0,0,False
2024-01-22,1.0053643297837358,1.0053643297837358,0.0,0,False
2024-01-23,1.0053643297837358,0.9953566615650928,-0.9954270230370876,2,True
2024-01-24,0.9953566615650928,0.9953566615650928,0.0,0,False
2024-01-25,0.9953566615650928,0.9953566615650928,0.0,0,False
2024-01-26,0.9953566615650928,0.9953566615650928,0.0,0,False
2024-01-27,0.9953566615650928,0.9953566615650928,0.0,0,False
2024-01-28,0.9953566615650928,0.9926513594051393,-0.27179223934662433,2,True
2024-01-29,0.9926513594051393,0.9926513594051393,0.0,0,False
2024-01-30,0.9926513594051393,0.9926513594051393,0.0,0,False
2024-01-31,0.9926513594051393,0.9926513594051393,0.0,0,False
2024-02-01,0.9926513594051393,0.9926513594051393,0.0,0,False
2024-02-02,0.9926513594051393,0.9926513594051393,0.0,0,False
2024-02-03,0.9926513594051393,0.9926513594051393,0.0,0,False
2024-02-04,0.9926513594051393,0.9926513594051393,0.0,0,False
2024-02-05,0.9926513594051393,0.9926513594051393,0.0,0,False
2024-02-06,0.9926513594051393,0.9859918107027884,-0.6708849627065083,2,True
2024-02-07,0.9859918107027884,0.9834967710605839,-0.2530487185716246,0,True
2024-02-08,0.9834967710605839,0.9834967710605839,0.0,0,False
2024-02-09,0.9834967710605839,0.9834967710605839,0.0,0,False
2024-02-10,0.9834967710605839,0.9834967710605839,0.0,0,False
2024-02-11,0.9834967710605839,0.9834967710605839,0.0,0,False
2024-02-12,0.9834967710605839,0.9834967710605839,0.0,0,False
2024-02-13,0.9834967710605839,0.9834967710605839,0.0,0,False
2024-02-14,0.9834967710605839,0.9834967710605839,0.0,0,False
2024-02-15,0.9834967710605839,0.999337311437799,1.6106347110965036,1,True
2024-02-16,0.999337311437799,0.9955426201621305,-0.3797207641741074,0,True
2024-02-17,0.9955426201621305,0.9955426201621305,0.0,0,False
2024-02-18,0.9955426201621305,0.9955426201621305,0.0,0,False
2024-02-19,0.9955426201621305,0.9955426201621305,0.0,0,False
2024-02-20,0.9955426201621305,0.9955426201621305,0.0,0,False
2024-02-21,0.9955426201621305,1.0107475151504122,1.5272972427645026,5,True
2024-02-22,1.0107475151504122,1.0249330655994382,1.4034712167375396,1,True
2024-02-23,1.0249330655994382,1.0249330655994382,0.0,0,False
2024-02-24,1.0249330655994382,1.0249330655994382,0.0,0,False
2024-02-25,1.0249330655994382,1.0249330655994382,0.0,0,False
2024-02-26,1.0249330655994382,1.0237737616244833,-0.11311021313151759,1,True
2024-02-27,1.0237737616244833,1.022698517382567,-0.10502752485180844,1,True
2024-02-28,1.022698517382567,1.022698517382567,0.0,0,False
2024-02-29,1.022698517382567,1.0307341111259176,0.7857245910472654,2,True
2024-03-01,1.0307341111259176,1.0307341111259176,0.0,0,False
2024-03-02,1.0307341111259176,1.0307341111259176,0.0,0,False
2024-03-03,1.0307341111259176,1.0470649957367415,1.5843935341370408,4,True
2024-03-04,1.0470649957367415,1.049416998029365,0.22462810830272684,0,True
2024-03-05,1.049416998029365,1.04854937614652,-0.08267656084036679,1,True
2024-03-06,1.04854937614652,1.0560276410407756,0.7132010246134968,1,True
2024-03-07,1.0560276410407756,1.0568347516205923,0.07642892557444547,2,True
2024-03-08,1.0568347516205923,1.0577937111330238,0.09073883224988144,0,True
2024-03-09,1.0577937111330238,1.0577937111330238,0.0,0,False
2024-03-10,1.0577937111330238,1.0577937111330238,0.0,0,False
2024-03-11,1.0577937111330238,1.0577937111330238,0.0,0,False
2024-03-12,1.0577937111330238,1.0588519224225348,0.10003947635286448,1,True
2024-03-13,1.0588519224225348,1.0588519224225348,0.0,0,False
2024-03-14,1.0588519224225348,1.0588519224225348,0.0,0,False
2024-03-15,1.0588519224225348,1.0588519224225348,0.0,0,False
2024-03-16,1.0588519224225348,1.0588519224225348,0.0,0,False
2024-03-17,1.0588519224225348,1.0561388622577164,-0.2562265891354554,1,True
2024-03-18,1.0561388622577164,1.0555108701663765,-0.059461129003191004,1,True
2024-03-19,1.0555108701663765,1.0464093509832009,-0.8622856893686914,1,True
2024-03-20,1.0464093509832009,1.0464093509832009,0.0,0,False
2024-03-21,1.0464093509832009,1.0359851861174874,-0.9961842233079277,2,True
2024-03-22,1.0359851861174874,1.0359851861174874,0.0,0,False
2024-03-23,1.0359851861174874,1.0374249457861968,0.13897492821350887,1,True
2024-03-24,1.0374249457861968,1.0374249457861968,0.0,0,False
2024-03-25,1.0374249457861968,1.0374249457861968,0.0,0,False
2024-03-26,1.0374249457861968,1.0411914423851105,0.36306208118597194,1,True
2024-03-27,1.0411914423851105,1.0382575290076783,-0.28178423851730194,2,True
2024-03-28,1.0382575290076783,1.0382575290076783,0.0,0,False
2024-03-29,1.0382575290076783,1.0330731779483502,-0.49933190123678806,1,True
2024-03-30,1.0330731779483502,1.0330731779483502,0.0,0,False
2024-03-31,1.0330731779483502,1.0330731779483502,0.0,0,False
2024-04-01,1.0330731779483502,1.0330731779483502,0.0,0,False
2024-04-02,1.0330731779483502,1.0330731779483502,0.0,0,False
2024-04-03,1.0330731779483502,1.0330731779483502,0.0,0,False
2024-04-04,1.0330731779483502,1.0330731779483502,0.0,0,False
2024-04-05,1.0330731779483502,1.0323413055961514,-0.07084419263040376,2,True
2024-04-06,1.0323413055961514,1.030502241690489,-0.17814495028855015,0,True
2024-04-07,1.030502241690489,1.0334099183699874,0.28216112123429227,1,True
2024-04-08,1.0334099183699874,1.0334099183699874,0.0,0,False
2024-04-09,1.0334099183699874,1.031062911942664,-0.22711282189215032,1,True
2024-04-10,1.031062911942664,1.0232447522897476,-0.7582621353517394,1,True
2024-04-11,1.0232447522897476,1.0232447522897476,0.0,0,False
2024-04-12,1.0232447522897476,1.0272162118464476,0.3881241069463526,1,True
2024-04-13,1.0272162118464476,1.0043974868886207,-2.2214140211834876,8,True
2024-04-14,1.0043974868886207,0.9842381968725695,-2.0071027933870833,5,True
2024-04-15,0.9842381968725695,0.9861494091229823,0.1941818816304508,1,True
2024-04-16,0.9861494091229823,0.9826271109765509,-0.3571769261175084,0,True
2024-04-17,0.9826271109765509,0.979987909365289,-0.2685862807753181,1,True
2024-04-18,0.979987909365289,0.9797779972217892,-0.021419870744709968,0,True
2024-04-19,0.9797779972217892,0.9797779972217892,0.0,0,False
2024-04-20,0.9797779972217892,0.9797779972217892,0.0,0,False
2024-04-21,0.9797779972217892,0.9797779972217892,0.0,0,False
2024-04-22,0.9797779972217892,0.9797779972217892,0.0,0,False
2024-04-23,0.9797779972217892,0.9797779972217892,0.0,0,False
2024-04-24,0.9797779972217892,0.9797779972217892,0.0,0,False
2024-04-25,0.9797779972217892,0.9869607806393277,0.733103155807302,1,True
2024-04-26,0.9869607806393277,0.9838969129528171,-0.31043459341169033,0,True
2024-04-27,0.9838969129528171,0.9789813286479812,-0.49960359059197934,1,True
2024-04-28,0.9789813286479812,0.9789813286479812,0.0,0,False
2024-04-29,0.9789813286479812,0.9896774460830047,1.0925762445127996,1,True
2024-04-30,0.9896774460830047,0.9900438396090876,0.03702150913240665,0,True
2024-05-01,0.9900438396090876,0.9900438396090876,0.0,0,False
2024-05-02,0.9900438396090876,0.9900438396090876,0.0,0,False
2024-05-03,0.9900438396090876,0.9900438396090876,0.0,0,False
2024-05-04,0.9900438396090876,0.9900438396090876,0.0,0,False
2024-05-05,0.9900438396090876,0.9900438396090876,0.0,0,False
2024-05-06,0.9900438396090876,0.9900438396090876,0.0,0,False
2024-05-07,0.9900438396090876,0.9873403479110282,-0.2730678773908535,1,True
2024-05-08,0.9873403479110282,0.9873473021632302,0.0007043419441687959,0,True
2024-05-09,0.9873473021632302,0.984675347742843,-0.27061950891373865,1,True
2024-05-10,0.984675347742843,0.984675347742843,0.0,0,False
2024-05-11,0.984675347742843,0.9850247730502222,0.035486346660351664,1,True
2024-05-12,0.9850247730502222,0.9826497507567289,-0.24111295050365245,0,True
2024-05-13,0.9826497507567289,0.9863353651914039,0.3750689838202037,1,True
2024-05-14,0.9863353651914039,0.9863353651914039,0.0,0,False
2024-05-15,0.9863353651914039,0.9863353651914039,0.0,0,False
2024-05-16,0.9863353651914039,0.9863353651914039,0.0,0,False
2024-05-17,0.9863353651914039,0.9863353651914039,0.0,0,False
2024-05-18,0.9863353651914039,0.9863353651914039,0.0,0,False
2024-05-19,0.9863353651914039,0.9863353651914039,0.0,0,False
2024-05-20,0.9863353651914039,0.9863353651914039,0.0,0,False
2024-05-21,0.9863353651914039,0.9863353651914039,0.0,0,False
2024-05-22,0.9863353651914039,0.9863353651914039,0.0,0,False
2024-05-23,0.9863353651914039,0.9934441237127283,0.7207242863024543,1,True
2024-05-24,0.9934441237127283,0.9950853792534179,0.16520864148412695,1,True
2024-05-25,0.9950853792534179,0.9950853792534179,0.0,0,False
2024-05-26,0.9950853792534179,0.9950853792534179,0.0,0,False
2024-05-27,0.9950853792534179,0.9950853792534179,0.0,0,False
2024-05-28,0.9950853792534179,0.9950853792534179,0.0,0,False
2024-05-29,0.9950853792534179,0.9950853792534179,0.0,0,False
2024-05-30,0.9950853792534179,0.9950853792534179,0.0,0,False
2024-05-31,0.9950853792534179,0.9950853792534179,0.0,0,False
2024-06-01,0.9950853792534179,0.9950853792534179,0.0,0,False
2024-06-02,0.9950853792534179,0.9950853792534179,0.0,0,False
2024-06-03,0.9950853792534179,0.9865969760194183,-0.8530326553856327,3,True
2024-06-04,0.9865969760194183,0.9878663928616117,0.12866620038864962,1,True
2024-06-05,0.9878663928616117,0.9878663928616117,0.0,0,False
2024-06-06,0.9878663928616117,0.9829334518081119,-0.49935305919359685,1,True
2024-06-07,0.9829334518081119,0.9829334518081119,0.0,0,False
2024-06-08,0.9829334518081119,1.0147779819397673,3.2397442647899677,5,True
2024-06-09,1.0147779819397673,1.0147779819397673,0.0,0,False
2024-06-10,1.0147779819397673,1.0147779819397673,0.0,0,False
2024-06-11,1.0147779819397673,1.0147779819397673,0.0,0,False
2024-06-12,1.0147779819397673,1.0147779819397673,0.0,0,False
2024-06-13,1.0147779819397673,1.008215787526673,-0.6466630661960626,2,True
2024-06-14,1.008215787526673,1.0031827105461837,-0.49920632495117356,1,True
2024-06-15,1.0031827105461837,1.0131725707427748,0.9958166235891408,1,True
2024-06-16,1.0131725707427748,1.0131725707427748,0.0,0,False
2024-06-17,1.0131725707427748,1.0131725707427748,0.0,0,False
2024-06-18,1.0131725707427748,1.0237548789689401,1.0444724355701096,4,True
2024-06-19,1.0237548789689401,1.0237548789689401,0.0,0,False
2024-06-20,1.0237548789689401,1.0237548789689401,0.0,0,False
2024-06-21,1.0237548789689401,1.0237548789689401,0.0,0,False
2024-06-22,1.0237548789689401,1.0237548789689401,0.0,0,False
2024-06-23,1.0237548789689401,1.0314071109813694,0.7474672081793754,1,True
2024-06-24,1.0314071109813694,1.0318418529819897,0.042150378448213566,1,True
2024-06-25,1.0318418529819897,1.0429106180779109,1.0727191443080875,0,True
2024-06-26,1.0429106180779109,1.0429106180779109,0.0,0,False
2024-06-27,1.0429106180779109,1.0433334778023138,0.04054611364321392,1,True
2024-06-28,1.0433334778023138,1.0415441605919633,-0.17150002836289202,0,True
2024-06-29,1.0415441605919633,1.0311732853739495,-0.9957211235402164,2,True
2024-06-30,1.0311732853739495,1.0311732853739495,0.0,0,False
2024-07-01,1.0311732853739495,1.0311732853739495,0.0,0,False
2024-07-02,1.0311732853739495,1.0311732853739495,0.0,0,False
2024-07-03,1.0311732853739495,1.0311732853739495,0.0,0,False
2024-07-04,1.0311732853739495,1.0311732853739495,0.0,0,False
2024-07-05,1.0311732853739495,1.0522918152602485,2.048009794846517,5,True
2024-07-06,1.0522918152602485,1.0522918152602485,0.0,0,False
2024-07-07,1.0522918152602485,1.0490926606185607,-0.30401782046519665,1,True
2024-07-08,1.0490926606185607,1.0490926606185607,0.0,0,False
2024-07-09,1.0490926606185607,1.0490926606185607,0.0,0,False
2024-07-10,1.0490926606185607,1.0490926606185607,0.0,0,False
2024-07-11,1.0490926606185607,1.0490926606185607,0.0,0,False
2024-07-12,1.0490926606185607,1.0490926606185607,0.0,0,False
2024-07-13,1.0490926606185607,1.0490926606185607,0.0,0,False
2024-07-14,1.0490926606185607,1.0490926606185607,0.0,0,False
2024-07-15,1.0490926606185607,1.0490926606185607,0.0,0,False
2024-07-16,1.0490926606185607,1.0479062515509585,-0.11308906373461713,1,True
2024-07-17,1.0479062515509585,1.0426743131370184,-0.4992754271860189,1,True
2024-07-18,1.0426743131370184,1.0426743131370184,0.0,0,False
2024-07-19,1.0426743131370184,1.0426743131370184,0.0,0,False
2024-07-20,1.0426743131370184,1.043880610216221,0.11569260544774806,1,True
2024-07-21,1.043880610216221,1.043880610216221,0.0,0,False
2024-07-22,1.043880610216221,1.043880610216221,0.0,0,False
2024-07-23,1.043880610216221,1.039917805124445,-0.37962244465438166,1,True
2024-07-24,1.039917805124445,1.039917805124445,0.0,0,False
2024-07-25,1.039917805124445,1.039917805124445,0.0,0,False
2024-07-26,1.039917805124445,1.039917805124445,0.0,0,False
2024-07-27,1.039917805124445,1.039917805124445,0.0,0,False
2024-07-28,1.039917805124445,1.039917805124445,0.0,0,False
2024-07-29,1.039917805124445,1.039917805124445,0.0,0,False
2024-07-30,1.039917805124445,1.039917805124445,0.0,0,False
2024-07-31,1.039917805124445,1.034726056053041,-0.499246098664774,1,True
2024-08-01,1.034726056053041,1.034726056053041,0.0,0,False
2024-08-02,1.034726056053041,1.034726056053041,0.0,0,False
2024-08-03,1.034726056053041,1.029561296735626,-0.49914267522321865,1,True
2024-08-04,1.029561296735626,1.029561296735626,0.0,0,False
2024-08-05,1.029561296735626,1.010596599347666,-1.842017318258793,4,True
2024-08-06,1.010596599347666,1.010596599347666,0.0,0,False
2024-08-07,1.010596599347666,1.010596599347666,0.0,0,False
2024-08-08,1.010596599347666,1.010596599347666,0.0,0,False
2024-08-09,1.010596599347666,1.010596599347666,0.0,0,False
2024-08-10,1.010596599347666,1.010596599347666,0.0,0,False
2024-08-11,1.010596599347666,1.010596599347666,0.0,0,False
2024-08-12,1.010596599347666,1.010596599347666,0.0,0,False
2024-08-13,1.010596599347666,1.010596599347666,0.0,0,False
2024-08-14,1.010596599347666,1.010596599347666,0.0,0,False
2024-08-15,1.010596599347666,1.010596599347666,0.0,0,False
2024-08-16,1.010596599347666,1.010596599347666,0.0,0,False
2024-08-17,1.010596599347666,1.010596599347666,0.0,0,False
2024-08-18,1.010596599347666,1.010596599347666,0.0,0,False
2024-08-19,1.010596599347666,1.010596599347666,0.0,0,False
2024-08-20,1.010596599347666,1.010596599347666,0.0,0,False
2024-08-21,1.010596599347666,1.010596599347666,0.0,0,False
2024-08-22,1.010596599347666,1.010596599347666,0.0,0,False
2024-08-23,1.010596599347666,1.010596599347666,0.0,0,False
2024-08-24,1.010596599347666,1.010596599347666,0.0,0,False
2024-08-25,1.010596599347666,1.010596599347666,0.0,0,False
2024-08-26,1.010596599347666,1.010596599347666,0.0,0,False
2024-08-27,1.010596599347666,1.010596599347666,0.0,0,False
2024-08-28,1.010596599347666,1.010596599347666,0.0,0,False
2024-08-29,1.010596599347666,1.005553678981347,-0.4990042881179435,1,True
2024-08-30,1.005553678981347,1.005553678981347,0.0,0,False
2024-08-31,1.005553678981347,1.005553678981347,0.0,0,False
2024-09-01,1.005553678981347,1.0005435375690885,-0.49824703712822993,1,True
2024-09-02,1.0005435375690885,1.0005435375690885,0.0,0,False
2024-09-03,1.0005435375690885,1.0005435375690885,0.0,0,False
2024-09-04,1.0005435375690885,1.0005435375690885,0.0,0,False
2024-09-05,1.0005435375690885,1.0005435375690885,0.0,0,False
2024-09-06,1.0005435375690885,1.0005435375690885,0.0,0,False
2024-09-07,1.0005435375690885,1.0005435375690885,0.0,0,False
2024-09-08,1.0005435375690885,1.0005435375690885,0.0,0,False
2024-09-09,1.0005435375690885,1.0005435375690885,0.0,0,False
2024-09-10,1.0005435375690885,1.0005435375690885,0.0,0,False
2024-09-11,1.0005435375690885,1.0005435375690885,0.0,0,False
2024-09-12,1.0005435375690885,1.0005435375690885,0.0,0,False
2024-09-13,1.0005435375690885,1.0005435375690885,0.0,0,False
2024-09-14,1.0005435375690885,1.0005435375690885,0.0,0,False
2024-09-15,1.0005435375690885,1.0005435375690885,0.0,0,False
2024-09-16,1.0005435375690885,1.0005435375690885,0.0,0,False
2024-09-17,1.0005435375690885,1.0005435375690885,0.0,0,False
2024-09-18,1.0005435375690885,1.0005435375690885,0.0,0,False
2024-09-19,1.0005435375690885,1.0000567049760913,-0.04865681249414111,1,True
2024-09-20,1.0000567049760913,1.0027903575466839,0.2733497567678267,1,True
2024-09-21,1.0027903575466839,0.9967977973290876,-0.5975885360781752,1,True
2024-09-22,0.9967977973290876,1.0077783671501808,1.1015844788697882,1,True
2024-09-23,1.0077783671501808,1.003683806524303,-0.40629574511075184,0,True
2024-09-24,1.003683806524303,1.003683806524303,0.0,0,False
2024-09-25,1.003683806524303,1.003683806524303,0.0,0,False
2024-09-26,1.003683806524303,1.003683806524303,0.0,0,False
2024-09-27,1.003683806524303,1.003683806524303,0.0,0,False
2024-09-28,1.003683806524303,1.003683806524303,0.0,0,False
2024-09-29,1.003683806524303,1.003683806524303,0.0,0,False
2024-09-30,1.003683806524303,1.003683806524303,0.0,0,False
2024-10-01,1.003683806524303,1.003683806524303,0.0,0,False
2024-10-02,1.003683806524303,1.003683806524303,0.0,0,False
2024-10-03,1.003683806524303,1.0098604261400859,0.6153949655890223,1,True
2024-10-04,1.0098604261400859,1.007891718527298,-0.19494848613017535,0,True
2024-10-05,1.007891718527298,1.007891718527298,0.0,0,False
2024-10-06,1.007891718527298,1.007891718527298,0.0,0,False
2024-10-07,1.007891718527298,1.007891718527298,0.0,0,False
2024-10-08,1.007891718527298,1.007891718527298,0.0,0,False
2024-10-09,1.007891718527298,1.007891718527298,0.0,0,False
2024-10-10,1.007891718527298,1.007891718527298,0.0,0,False
2024-10-11,1.007891718527298,1.0069026447596425,-0.09813293923087718,1,True
2024-10-12,1.0069026447596425,1.007625700810677,0.07180992668929242,0,True
2024-10-13,1.007625700810677,1.007625700810677,0.0,0,False
2024-10-14,1.007625700810677,1.007625700810677,0.0,0,False
2024-10-15,1.007625700810677,1.007625700810677,0.0,0,False
2024-10-16,1.007625700810677,1.007625700810677,0.0,0,False
2024-10-17,1.007625700810677,1.007625700810677,0.0,0,False
2024-10-18,1.007625700810677,1.0081652770634202,0.053549274528141844,1,True
2024-10-19,1.0081652770634202,1.0042731616290697,-0.3860592625930859,1,True
2024-10-20,1.0042731616290697,1.0042731616290697,0.0,0,False
2024-10-21,1.0042731616290697,1.0143399309355194,1.0023935410282236,1,True
2024-10-22,1.0143399309355194,1.0143399309355194,0.0,0,False
2024-10-23,1.0143399309355194,1.0092750221621645,-0.4993305122754643,1,True
2024-10-24,1.0092750221621645,1.0042357795441497,-0.4992933053291293,1,True
2024-10-25,1.0042357795441497,1.0071181256218398,0.28701885915660696,1,True
2024-10-26,1.0071181256218398,1.0170842953484098,0.989573067252314,2,True
2024-10-27,1.0170842953484098,1.0170842953484098,0.0,0,False
2024-10-28,1.0170842953484098,1.0170842953484098,0.0,0,False
2024-10-29,1.0170842953484098,1.0170842953484098,0.0,0,False
2024-10-30,1.0170842953484098,1.0170842953484098,0.0,0,False
2024-10-31,1.0170842953484098,1.0170842953484098,0.0,0,False
2024-11-01,1.0170842953484098,1.0170842953484098,0.0,0,False
2024-11-02,1.0170842953484098,1.0170842953484098,0.0,0,False
2024-11-03,1.0170842953484098,1.0170842953484098,0.0,0,False
2024-11-04,1.0170842953484098,1.0170842953484098,0.0,0,False
2024-11-05,1.0170842953484098,1.0170842953484098,0.0,0,False
2024-11-06,1.0170842953484098,1.0170842953484098,0.0,0,False
2024-11-07,1.0170842953484098,1.0170842953484098,0.0,0,False
2024-11-08,1.0170842953484098,1.0170842953484098,0.0,0,False
2024-11-09,1.0170842953484098,1.0154857811314841,-0.15716634542843888,1,True
2024-11-10,1.0154857811314841,1.018133211889199,0.2607058421600916,0,True
2024-11-11,1.018133211889199,1.0171696168868314,-0.09464331298845163,1,True
2024-11-12,1.0171696168868314,1.0184313815243207,0.12404663062499655,0,True
2024-11-13,1.0184313815243207,1.0184313815243207,0.0,0,False
2024-11-14,1.0184313815243207,1.0184313815243207,0.0,0,False
2024-11-15,1.0184313815243207,1.0184313815243207,0.0,0,False
2024-11-16,1.0184313815243207,1.0184313815243207,0.0,0,False
2024-11-17,1.0184313815243207,1.0184313815243207,0.0,0,False
2024-11-18,1.0184313815243207,1.0184313815243207,0.0,0,False
2024-11-19,1.0184313815243207,1.0184313815243207,0.0,0,False
2024-11-20,1.0184313815243207,1.0184313815243207,0.0,0,False
2024-11-21,1.0184313815243207,1.0184313815243207,0.0,0,False
2024-11-22,1.0184313815243207,1.0184313815243207,0.0,0,False
2024-11-23,1.0184313815243207,1.022160963919611,0.36620851074995464,1,True
2024-11-24,1.022160963919611,1.0346905509977606,1.225793932699526,4,True
2024-11-25,1.0346905509977606,1.0348496812408952,0.015379500951384628,1,True
2024-11-26,1.0348496812408952,1.0348496812408952,0.0,0,False
2024-11-27,1.0348496812408952,1.0348496812408952,0.0,0,False
2024-11-28,1.0348496812408952,1.0348496812408952,0.0,0,False
2024-11-29,1.0348496812408952,1.0348496812408952,0.0,0,False
2024-11-30,1.0348496812408952,1.0348496812408952,0.0,0,False
2024-12-01,1.0348496812408952,1.0348496812408952,0.0,0,False
2024-12-02,1.0348496812408952,1.0348496812408952,0.0,0,False
2024-12-03,1.0348496812408952,1.0348496812408952,0.0,0,False
2024-12-04,1.0348496812408952,1.0348496812408952,0.0,0,False
2024-12-05,1.0348496812408952,1.0391515515769219,0.4157000203999006,1,True
2024-12-06,1.0391515515769219,1.0391515515769219,0.0,0,False
2024-12-07,1.0391515515769219,1.0391515515769219,0.0,0,False
2024-12-08,1.0391515515769219,1.0391515515769219,0.0,0,False
2024-12-09,1.0391515515769219,1.0370677926113099,-0.20052503048759718,1,True
2024-12-10,1.0370677926113099,1.0370677926113099,0.0,0,False
2024-12-11,1.0370677926113099,1.0370677926113099,0.0,0,False
2024-12-12,1.0370677926113099,1.0370677926113099,0.0,0,False
2024-12-13,1.0370677926113099,1.0370677926113099,0.0,0,False
2024-12-14,1.0370677926113099,1.0370677926113099,0.0,0,False
2024-12-15,1.0370677926113099,1.0306319682870828,-0.6205789409409634,2,True
2024-12-16,1.0306319682870828,1.0275294024798103,-0.30103527764901994,0,True
2024-12-17,1.0275294024798103,1.0275294024798103,0.0,0,False
2024-12-18,1.0275294024798103,1.0275294024798103,0.0,0,False
2024-12-19,1.0275294024798103,1.0275294024798103,0.0,0,False
2024-12-20,1.0275294024798103,1.0298677782458443,0.22757263786230553,2,True
2024-12-21,1.0298677782458443,1.0298677782458443,0.0,0,False
2024-12-22,1.0298677782458443,1.0298677782458443,0.0,0,False
2024-12-23,1.0298677782458443,1.0298677782458443,0.0,0,False
2024-12-24,1.0298677782458443,1.0298677782458443,0.0,0,False
2024-12-25,1.0298677782458443,1.0371483130596328,0.7069387903551494,1,True
2024-12-26,1.0371483130596328,1.03605010004657,-0.10588775001937334,0,True
2024-12-27,1.03605010004657,1.03605010004657,0.0,0,False
2024-12-28,1.03605010004657,1.03605010004657,0.0,0,False
2024-12-29,1.03605010004657,1.03605010004657,0.0,0,False
2024-12-30,1.03605010004657,1.03605010004657,0.0,0,False
2024-12-31,1.03605010004657,1.03605010004657,0.0,0,False
