day,start_equity,end_equity,return_pct,entries,active
2024-01-02,1.0,0.9989153035442373,-0.10846964557627015,1,True
2024-01-03,0.9989153035442373,0.989548024167323,-0.9377451064848441,8,True
2024-01-04,0.989548024167323,1.008444659824608,1.9096228981090535,4,True
2024-01-05,1.008444659824608,0.9878693604095365,-2.040300299537501,4,True
2024-01-06,0.9878693604095365,0.9773211484011928,-1.0677739821762344,7,True
2024-01-07,0.9773211484011928,0.9755713165724782,-0.1790436881036639,3,True
2024-01-08,0.9755713165724782,0.969319746321003,-0.6408111990663157,7,True
2024-01-09,0.969319746321003,0.9711890095695428,0.19284279058942033,0,True
2024-01-10,0.9711890095695428,0.9636594954402694,-0.7752882348422196,4,True
2024-01-11,0.9636594954402694,0.9748349380921026,1.1596879089254886,3,True
2024-01-12,0.9748349380921026,0.9702851540071146,-0.466723535154856,5,True
2024-01-13,0.9702851540071146,0.9546558792867659,-1.6107919054313524,5,True
2024-01-14,0.9546558792867659,0.9591316426783757,0.4688352618698266,0,True
2024-01-15,0.9591316426783757,0.9536982773480805,-0.5664879656271604,2,True
2024-01-16,0.9536982773480805,0.9546757650157162,0.10249443569865235,1,True
2024-01-17,0.9546757650157162,0.9598625745317879,0.5433058747423392,0,True
2024-01-18,0.9598625745317879,0.9589947326770694,-0.09041313597853984,1,True
2024-01-19,0.9589947326770694,0.9502997230524304,-0.9066796019167378,1,True
2024-01-20,0.9502997230524304,0.9663757618428427,1.6916808876650924,6,True
2024-01-21,0.9663757618428427,0.9676590456585805,0.1327934605158898,1,True
2024-01-22,0.9676590456585805,0.9467913466961356,-2.1565136042563937,4,True
2024-01-23,0.9467913466961356,0.9219352967789277,-2.6252933134574996,8,True
2024-01-24,0.9219352967789277,0.9305081775953256,0.9298787937016773,1,True
2024-01-25,0.9305081775953256,0.92101944710765,-1.019736388797443,2,True
2024-01-26,0.92101944710765,0.92101944710765,0.0,0,False
2024-01-27,0.92101944710765,0.92101944710765,0.0,0,False
2024-01-28,0.92101944710765,0.9178894315245497,-0.3398425074443101,2,True
2024-01-29,0.9178894315245497,0.9178213295432228,-0.007419410114983815,0,True
2024-01-30,0.9178213295432228,0.9178213295432228,0.0,0,False
2024-01-31,0.9178213295432228,0.9132427254696502,-0.49885570602845597,1,True
2024-02-01,0.9132427254696502,0.9132427254696502,0.0,0,False
2024-02-02,0.9132427254696502,0.9126754174486232,-0.06212017957605287,2,True
2024-02-03,0.9126754174486232,0.9219939804475957,1.0210161050488775,1,True
2024-02-04,0.9219939804475957,0.9213378073193161,-0.07116891673859538,1,True
2024-02-05,0.9213378073193161,0.9213378073193161,0.0,0,False
2024-02-06,0.9213378073193161,0.9150836987326848,-0.6788073317894106,2,True
2024-02-07,0.9150836987326848,0.910097746855567,-0.544862932650092,4,True
2024-02-08,0.910097746855567,0.9328909696794886,2.5044807442577754,1,True
2024-02-09,0.9328909696794886,0.9454038324976803,1.3412995971534336,0,True
2024-02-10,0.9454038324976803,0.9397197145104424,-0.6012370366873743,2,True
2024-02-11,0.9397197145104424,0.9379235742560372,-0.1911357425698923,0,True
2024-02-12,0.9379235742560372,0.9398167180891908,0.201844146486585,1,True
2024-02-13,0.9398167180891908,0.9398856643009689,0.007336133785562637,0,True
2024-02-14,0.9398856643009689,0.9412616910534841,0.14640363235443044,2,True
2024-02-15,0.9412616910534841,0.950757674835831,1.0088569281640147,1,True
2024-02-16,0.950757674835831,0.9499592237236272,-0.08398050663558365,3,True
2024-02-17,0.9499592237236272,0.9458886080002827,-0.42850425804473735,5,True
2024-02-18,0.9458886080002827,0.9493126933770748,0.3619966820438858,1,True
2024-02-19,0.9493126933770748,0.9504408998315245,0.11884455588981879,2,True
2024-02-20,0.9504408998315245,0.9443749979893573,-0.6382197823391667,6,True
2024-02-21,0.9443749979893573,0.927010570667012,-1.8387216264000528,6,True
2024-02-22,0.927010570667012,0.9488002813634243,2.350535299800738,2,True
2024-02-23,0.9488002813634243,0.9499462962972113,0.12078568654514399,3,True
2024-02-24,0.9499462962972113,0.9462213241854368,-0.39212449443658537,5,True
2024-02-25,0.9462213241854368,0.9379712996998695,-0.871891625637311,4,True
2024-02-26,0.9379712996998695,0.9329026464110066,-0.540384688794282,5,True
2024-02-27,0.9329026464110066,0.9306887154556841,-0.23731639778703517,2,True
2024-02-28,0.9306887154556841,0.9678921526511509,3.9974092924562,5,True
2024-02-29,0.9678921526511509,0.9924621129922631,2.5385018644703994,6,True
2024-03-01,0.9924621129922631,0.9879399952458284,-0.4556463856137061,5,True
2024-03-02,0.9879399952458284,0.996491534553938,0.8655929863414125,4,True
2024-03-03,0.996491534553938,0.9991127643920069,0.2630458711565753,9,True
2024-03-04,0.9991127643920069,1.0312487797389975,3.2164552883624076,1,True
2024-03-05,1.0312487797389975,1.049565630083357,1.7761815290579408,8,True
2024-03-06,1.049565630083357,1.0353996093073004,-1.3497031886354205,13,True
2024-03-07,1.0353996093073004,1.0393275206876944,0.37936187584828307,5,True
2024-03-08,1.0393275206876944,1.0421172004527335,0.26841199809597427,5,True
2024-03-09,1.0421172004527335,1.028856871958368,-1.2724411888225928,5,True
2024-03-10,1.028856871958368,1.0639122692329257,3.4072180718229372,6,True
2024-03-11,1.0639122692329257,1.0757970368732273,1.117081547416543,3,True
2024-03-12,1.0757970368732273,1.0732870502421985,-0.2333141424449292,4,True
2024-03-13,1.0732870502421985,1.0840714347778915,1.0047996510587964,5,True
2024-03-14,1.0840714347778915,1.1031497386228895,1.7598751551743286,5,True
2024-03-15,1.1031497386228895,1.0710211841867214,-2.91243820410777,14,True
2024-03-16,1.0710211841867214,1.0857954986780127,1.379460528832599,1,True
2024-03-17,1.0857954986780127,1.0759955029209853,-0.90256367510817,7,True
2024-03-18,1.0759955029209853,1.0750333777521257,-0.089417210968612,4,True
2024-03-19,1.0750333777521257,1.0522665988063498,-2.11777414701122,10,True
2024-03-20,1.0522665988063498,1.0378862279847336,-1.3666090739674397,4,True
2024-03-21,1.0378862279847336,1.0379986185436247,0.01082879374065815,4,True
2024-03-22,1.0379986185436247,1.0450469816606838,0.6790339593079953,6,True
2024-03-23,1.0450469816606838,1.0771444975173428,3.0713945324881697,5,True
2024-03-24,1.0771444975173428,1.0753300816296059,-0.16844684180431502,4,True
2024-03-25,1.0753300816296059,1.0882325507582824,1.1998612657727836,4,True
2024-03-26,1.0882325507582824,1.1240361240324144,3.2900663786599615,5,True
2024-03-27,1.1240361240324144,1.117395212012538,-0.5908094836002631,6,True
2024-03-28,1.117395212012538,1.1049551438414307,-1.1133096005218834,2,True
2024-03-29,1.1049551438414307,1.091553602682453,-1.212858389199989,6,True
2024-03-30,1.091553602682453,1.0800318427297195,-1.0555377147232314,2,True
2024-03-31,1.0800318427297195,1.0799389885831008,-0.008597352683981097,0,True
2024-04-01,1.0799389885831008,1.0775738147487466,-0.21900994957663178,5,True
2024-04-02,1.0775738147487466,1.0457394624195457,-2.954261869904806,5,True
2024-04-03,1.0457394624195457,1.0218451148790306,-2.284923577927367,3,True
2024-04-04,1.0218451148790306,1.0210678344740793,-0.0760663620771207,1,True
2024-04-05,1.0210678344740793,1.011197649202134,-0.9666532368076464,5,True
2024-04-06,1.011197649202134,1.006571427352985,-0.45749926859492973,1,True
2024-04-07,1.006571427352985,1.0273834551433676,2.067615593372496,3,True
2024-04-08,1.0273834551433676,1.0111430590531825,-1.5807531266813002,1,True
2024-04-09,1.0111430590531825,0.9987251719047676,-1.228103880774567,3,True
2024-04-10,0.9987251719047676,0.9916386006606657,-0.7095616935924864,5,True
2024-04-11,0.9916386006606657,1.0044018044657321,1.2870821886686423,1,True
2024-04-12,1.0044018044657321,0.9913869757081905,-1.2957791094834414,7,True
2024-04-13,0.9913869757081905,0.9661312105538525,-2.547518352891076,11,True
2024-04-14,0.9661312105538525,0.9354118396339814,-3.179627216707004,15,True
2024-04-15,0.9354118396339814,0.947188964416369,1.2590309726030258,1,True
2024-04-16,0.947188964416369,0.9390769304419675,-0.8564324838180482,1,True
2024-04-17,0.9390769304419675,0.9379038333885191,-0.12492022915484569,0,True
2024-04-18,0.9379038333885191,0.9589568392205416,2.244687043868976,1,True
2024-04-19,0.9589568392205416,0.9759191313772245,1.7688274865915954,5,True
2024-04-20,0.9759191313772245,0.9757926723695561,-0.01295793919829924,0,True
2024-04-21,0.9757926723695561,0.9757926723695561,0.0,0,False
2024-04-22,0.9757926723695561,0.9757926723695561,0.0,0,False
2024-04-23,0.9757926723695561,0.9892509459387846,1.3792144530607287,3,True
2024-04-24,0.9892509459387846,0.9820744598100151,-0.7254464762688873,2,True
2024-04-25,0.9820744598100151,0.9826558591982969,0.059201151447751954,2,True
2024-04-26,0.9826558591982969,0.9769537977855082,-0.5802704333784492,1,True
2024-04-27,0.9769537977855082,0.9799242807000724,0.30405561873012577,6,True
2024-04-28,0.9799242807000724,0.9867915560621572,0.7007965306440544,3,True
2024-04-29,0.9867915560621572,0.9922721156027606,0.5553918157218396,2,True
2024-04-30,0.9922721156027606,0.9827539655741178,-0.959227804447671,2,True
2024-05-01,0.9827539655741178,0.9688838633648607,-1.4113504188359438,6,True
2024-05-02,0.9688838633648607,0.9796507301112851,1.1112649465573554,3,True
2024-05-03,0.9796507301112851,0.9840646916118347,0.4505648150793684,1,True
2024-05-04,0.9840646916118347,0.9850360789791787,0.0987117387326375,0,True
2024-05-05,0.9850360789791787,0.9809306083841419,-0.416783779056229,1,True
2024-05-06,0.9809306083841419,0.9801177362772001,-0.08286744240562083,0,True
2024-05-07,0.9801177362772001,0.9838724936208026,0.38309248007941665,3,True
2024-05-08,0.9838724936208026,0.9849721495423586,0.1117681334406484,3,True
2024-05-09,0.9849721495423586,0.9781413543890864,-0.6935013499057674,1,True
2024-05-10,0.9781413543890864,0.9744269539047343,-0.3797406650567381,2,True
2024-05-11,0.9744269539047343,0.9703399609955053,-0.4194252727566239,4,True
2024-05-12,0.9703399609955053,0.9648079613673498,-0.5701094307689947,0,True
2024-05-13,0.9648079613673498,0.9627788963330718,-0.21030765867668944,4,True
2024-05-14,0.9627788963330718,0.9524214439406659,-1.0757872271457414,3,True
2024-05-15,0.9524214439406659,0.956042009935409,0.38014326722453085,3,True
2024-05-16,0.956042009935409,0.9605209914959603,0.4684921283797827,2,True
2024-05-17,0.9605209914959603,0.9611469454506187,0.06516817021182675,0,True
2024-05-18,0.9611469454506187,0.9679172821871854,0.7044018366403337,2,True
2024-05-19,0.9679172821871854,0.9670348087719638,-0.09117239990048542,0,True
2024-05-20,0.9670348087719638,0.97321969996104,0.6395727571513632,2,True
2024-05-21,0.97321969996104,0.9660679649608562,-0.7348530861500224,2,True
2024-05-22,0.9660679649608562,0.9701395129422064,0.4214556458784102,1,True
2024-05-23,0.9701395129422064,0.9616695450038762,-0.8730669996774632,6,True
2024-05-24,0.9616695450038762,0.9771913697169008,1.6140497319130587,2,True
2024-05-25,0.9771913697169008,0.9759233987185703,-0.1297566717865961,0,True
2024-05-26,0.9759233987185703,0.9806896230945823,0.48838099201948815,3,True
2024-05-27,0.9806896230945823,1.0022453790312202,2.198020192017358,3,True
2024-05-28,1.0022453790312202,1.0128459843177784,1.0576856235350984,2,True
2024-05-29,1.0128459843177784,1.0136788935456769,0.08223453918905221,1,True
2024-05-30,1.0136788935456769,0.9903614878216073,-2.3002753507581963,5,True
2024-05-31,0.9903614878216073,0.9897777250332779,-0.05894441529763483,1,True
2024-06-01,0.9897777250332779,0.9855327119648695,-0.4288854922720797,2,True
2024-06-02,0.9855327119648695,0.9971144965751182,1.1751801304654697,0,True
2024-06-03,0.9971144965751182,0.9834104782367898,-1.374367576180957,5,True
2024-06-04,0.9834104782367898,0.9798262113245934,-0.36447312607680304,6,True
2024-06-05,0.9798262113245934,0.9808877515199113,0.10833964054532963,0,True
2024-06-06,0.9808877515199113,0.9773353391288528,-0.3621629881251809,2,True
2024-06-07,0.9773353391288528,0.9764587198794547,-0.08969482779366267,0,True
2024-06-08,0.9764587198794547,1.0024449042882029,2.6612680986612736,7,True
2024-06-09,1.0024449042882029,1.0099071977569078,0.7444093372895866,1,True
2024-06-10,1.0099071977569078,1.0032932290562646,-0.6549085614335093,0,True
2024-06-11,1.0032932290562646,1.0004131773484684,-0.2870598170492289,2,True
2024-06-12,1.0004131773484684,1.010647751714204,1.023034741791573,3,True
2024-06-13,1.010647751714204,1.0031743388002805,-0.7394676237341469,4,True
2024-06-14,1.0031743388002805,0.9859846037222982,-1.7135341697974371,5,True
2024-06-15,0.9859846037222982,0.9910339239027179,0.5121094347069421,5,True
2024-06-16,0.9910339239027179,0.9921088449688841,0.10846460855074014,0,True
2024-06-17,0.9921088449688841,0.9745905675561944,-1.7657616401191456,4,True
2024-06-18,0.9745905675561944,0.9766281671329845,0.20907236788669792,5,True
2024-06-19,0.9766281671329845,0.973535303729329,-0.31668791744303704,2,True
2024-06-20,0.973535303729329,0.9801036298023706,0.6746880208535089,1,True
2024-06-21,0.9801036298023706,0.9780450043002412,-0.21004161596100968,1,True
2024-06-22,0.9780450043002412,0.982233180503868,0.4282191704075178,2,True
2024-06-23,0.982233180503868,0.9834426694587265,0.1231366419772284,2,True
2024-06-24,0.9834426694587265,0.9837195074913206,0.02814989029777948,1,True
2024-06-25,0.9837195074913206,0.9940009663787565,1.045161634911107,0,True
2024-06-26,0.9940009663787565,0.9940009663787565,0.0,0,False
2024-06-27,0.9940009663787565,0.9892947748446433,-0.47345945258566724,2,True
2024-06-28,0.9892947748446433,0.9818773892180521,-0.7497649654276239,2,True
2024-06-29,0.9818773892180521,0.9644846537119763,-1.7713754993306297,5,True
2024-06-30,0.9644846537119763,0.9747632635300753,1.0657100430307542,0,True
2024-07-01,0.9747632635300753,0.9679750361808588,-0.6963975360164021,2,True
2024-07-02,0.9679750361808588,0.9733545892167527,0.5557532823489808,0,True
2024-07-03,0.9733545892167527,0.9685024940776041,-0.4984920390679992,1,True
2024-07-04,0.9685024940776041,0.951648954754075,-1.7401647829085265,5,True
2024-07-05,0.951648954754075,0.8953759550404017,-5.913209848290679,18,True
2024-07-06,0.8953759550404017,0.9062203816852278,1.2111590202728673,1,True
2024-07-07,0.9062203816852278,0.9044878834857376,-0.19117846326390797,1,True
2024-07-08,0.9044878834857376,0.9046164016997719,0.014208948110949748,2,True
2024-07-09,0.9046164016997719,0.9186992469693567,1.5567753628082714,2,True
2024-07-10,0.9186992469693567,0.9199117534736421,0.13198078786775813,1,True
2024-07-11,0.9199117534736421,0.9096038692724675,-1.1205296771403805,2,True
2024-07-12,0.9096038692724675,0.9096038692724675,0.0,0,False
2024-07-13,0.9096038692724675,0.9083119864361584,-0.14202697239430462,2,True
2024-07-14,0.9083119864361584,0.9316091718110724,2.564888025569556,1,True
2024-07-15,0.9316091718110724,0.9341554484733511,0.27332026554962585,0,True
2024-07-16,0.9341554484733511,0.9202043010528689,-1.4934503077921324,3,True
2024-07-17,0.9202043010528689,0.9156097574643993,-0.4992960349362252,1,True
2024-07-18,0.9156097574643993,0.9156097574643993,0.0,0,False
2024-07-19,0.9156097574643993,0.9129428913534482,-0.2912666765737093,2,True
2024-07-20,0.9129428913534482,0.915083754633002,0.23450133626430336,1,True
2024-07-21,0.915083754633002,0.9146618397835552,-0.046106692126335336,1,True
2024-07-22,0.9146618397835552,0.9143069149264268,-0.03880394280059152,1,True
2024-07-23,0.9143069149264268,0.9081187575671962,-0.6768140170665293,3,True
2024-07-24,0.9081187575671962,0.9035270021670606,-0.5056338019530204,1,True
2024-07-25,0.9035270021670606,0.8972569076522076,-0.6939576238246925,3,True
2024-07-26,0.8972569076522076,0.8961452230118685,-0.1238981423110963,0,True
2024-07-27,0.8961452230118685,0.89955361274708,0.3803389950298719,1,True
2024-07-28,0.89955361274708,0.8879002397856897,-1.295461748611404,2,True
2024-07-29,0.8879002397856897,0.8872336721793158,-0.07507235345884933,0,True
2024-07-30,0.8872336721793158,0.8838490046145964,-0.38148547230016927,2,True
2024-07-31,0.8838490046145964,0.8710164919768306,-1.4518896973088058,5,True
2024-08-01,0.8710164919768306,0.871046990900231,0.0035015322535469906,1,True
2024-08-02,0.871046990900231,0.8571404180345765,-1.5965353202451182,4,True
2024-08-03,0.8571404180345765,0.8514245226575476,-0.666856358277379,7,True
2024-08-04,0.8514245226575476,0.8216819336456213,-3.4932737101688094,4,True
2024-08-05,0.8216819336456213,0.8035713707524096,-2.204084348411939,16,True
2024-08-06,0.8035713707524096,0.8164643327544098,1.6044576090270768,0,True
2024-08-07,0.8164643327544098,0.8160753718810881,-0.04763966504323092,1,True
2024-08-08,0.8160753718810881,0.8123912333265104,-0.451445869036049,0,True
2024-08-09,0.8123912333265104,0.8123912333265104,0.0,0,False
2024-08-10,0.8123912333265104,0.8123912333265104,0.0,0,False
2024-08-11,0.8123912333265104,0.8083300450801003,-0.4999054740879805,1,True
2024-08-12,0.8083300450801003,0.8093633262895396,0.12782912323108242,1,True
2024-08-13,0.8093633262895396,0.8042941631993235,-0.6263148978414068,0,True
2024-08-14,0.8042941631993235,0.8042941631993235,0.0,0,False
2024-08-15,0.8042941631993235,0.8042941631993235,0.0,0,False
2024-08-16,0.8042941631993235,0.8042941631993235,0.0,0,False
2024-08-17,0.8042941631993235,0.8269327743034605,2.8147178159400044,1,True
2024-08-18,0.8269327743034605,0.8447399899980514,2.1534054820345316,1,True
2024-08-19,0.8447399899980514,0.8365821297561727,-0.9657244049612879,3,True
2024-08-20,0.8365821297561727,0.8279968376897091,-1.026234216712929,2,True
2024-08-21,0.8279968376897091,0.8272597692009529,-0.08901827340461743,0,True
2024-08-22,0.8272597692009529,0.827671531211356,0.049774209472408515,1,True
2024-08-23,0.827671531211356,0.8282233888147352,0.06667591944011786,0,True
2024-08-24,0.8282233888147352,0.8260606923428204,-0.26112477637341147,2,True
2024-08-25,0.8260606923428204,0.8245186723757431,-0.1866715098988614,2,True
2024-08-26,0.8245186723757431,0.8267889265335235,0.2753429647917027,2,True
2024-08-27,0.8267889265335235,0.8201306458524632,-0.805318076643391,1,True
2024-08-28,0.8201306458524632,0.8205325668905126,0.04900695274367983,4,True
2024-08-29,0.8205325668905126,0.8138885739382484,-0.8097171544868997,3,True
2024-08-30,0.8138885739382484,0.8161819754564552,0.2817832307326018,0,True
2024-08-31,0.8161819754564552,0.8161819754564552,0.0,0,False
2024-09-01,0.8161819754564552,0.8121144421589713,-0.4983610787544168,1,True
2024-09-02,0.8121144421589713,0.8132013868199921,0.13384131651830167,1,True
2024-09-03,0.8132013868199921,0.8111947995906109,-0.24675157493617705,0,True
2024-09-04,0.8111947995906109,0.8111947995906109,0.0,0,False
2024-09-05,0.8111947995906109,0.8111947995906109,0.0,0,False
2024-09-06,0.8111947995906109,0.810918208501149,-0.03409675328311934,1,True
2024-09-07,0.810918208501149,0.8123856218490992,0.18095701053038038,0,True
2024-09-08,0.8123856218490992,0.8123856218490992,0.0,0,False
2024-09-09,0.8123856218490992,0.8123856218490992,0.0,0,False
2024-09-10,0.8123856218490992,0.8123856218490992,0.0,0,False
2024-09-11,0.8123856218490992,0.8043028341457001,-0.9949447018771207,2,True
2024-09-12,0.8043028341457001,0.8043028341457001,0.0,0,False
2024-09-13,0.8043028341457001,0.8040394415579375,-0.03274793729185488,1,True
2024-09-14,0.8040394415579375,0.8058910053232912,0.23028270376463933,0,True
2024-09-15,0.8058910053232912,0.8077039489397149,0.2249613911122328,2,True
2024-09-16,0.8077039489397149,0.8023951187637042,-0.6572742628013217,2,True
2024-09-17,0.8023951187637042,0.8084529326040342,0.7549664371916398,1,True
2024-09-18,0.8084529326040342,0.8085446618038336,0.01134626347434331,0,True
2024-09-19,0.8085446618038336,0.8080486467858112,-0.06134664434190862,1,True
2024-09-20,0.8080486467858112,0.8104407565616365,0.296035366848324,2,True
2024-09-21,0.8104407565616365,0.8028674345904163,-0.934469535237914,2,True
2024-09-22,0.8028674345904163,0.8111692068079779,1.0340153131004337,2,True
2024-09-23,0.8111692068079779,0.8098552799641677,-0.16197937899794512,0,True
2024-09-24,0.8098552799641677,0.8098552799641677,0.0,0,False
2024-09-25,0.8098552799641677,0.8098552799641677,0.0,0,False
2024-09-26,0.8098552799641677,0.8098552799641677,0.0,0,False
2024-09-27,0.8098552799641677,0.8098552799641677,0.0,0,False
2024-09-28,0.8098552799641677,0.8098552799641677,0.0,0,False
2024-09-29,0.8098552799641677,0.8098552799641677,0.0,0,False
2024-09-30,0.8098552799641677,0.8062613780873545,-0.44377087681297667,2,True
2024-10-01,0.8062613780873545,0.8065904506424686,0.04081462464378127,0,True
2024-10-02,0.8065904506424686,0.7877692424103983,-2.33342810060283,11,True
2024-10-03,0.7877692424103983,0.788504663987541,0.0933549493367547,3,True
2024-10-04,0.788504663987541,0.7908996758430172,0.30374098782934844,2,True
2024-10-05,0.7908996758430172,0.7915151398778165,0.07781821811259082,0,True
2024-10-06,0.7915151398778165,0.7915151398778165,0.0,0,False
2024-10-07,0.7915151398778165,0.7915151398778165,0.0,0,False
2024-10-08,0.7915151398778165,0.7852465437284765,-0.7919742571579458,2,True
2024-10-09,0.7852465437284765,0.7856808514566738,0.05530845460779421,0,True
2024-10-10,0.7856808514566738,0.7856808514566738,0.0,0,False
2024-10-11,0.7856808514566738,0.7848255112806899,-0.10886610948936948,1,True
2024-10-12,0.7848255112806899,0.7835819173429908,-0.15845483101967206,1,True
2024-10-13,0.7835819173429908,0.7835309116660845,-0.006509297340506759,0,True
2024-10-14,0.7835309116660845,0.7835309116660845,0.0,0,False
2024-10-15,0.7835309116660845,0.783618476629094,0.011175687098718967,1,True
2024-10-16,0.783618476629094,0.7784796321578807,-0.6557839847420532,5,True
2024-10-17,0.7784796321578807,0.7744764238226474,-0.5142341777313875,2,True
2024-10-18,0.7744764238226474,0.781883821466399,0.956439397753428,2,True
2024-10-19,0.781883821466399,0.7751239760346533,-0.8645588060727238,3,True
2024-10-20,0.7751239760346533,0.7767592828503181,0.21097358180437453,2,True
2024-10-21,0.7767592828503181,0.7800888103899906,0.4286434180039267,2,True
2024-10-22,0.7800888103899906,0.7773688949195158,-0.34866741251101674,0,True
2024-10-23,0.7773688949195158,0.7734871227912834,-0.4993474981571322,1,True
2024-10-24,0.7734871227912834,0.7677120004788529,-0.7466345776500849,3,True
2024-10-25,0.7677120004788529,0.7648479371183947,-0.3730648157996397,2,True
2024-10-26,0.7648479371183947,0.7480782411545024,-2.19255294419346,10,True
2024-10-27,0.7480782411545024,0.7557905008869151,1.030942929246348,1,True
2024-10-28,0.7557905008869151,0.7529518778098296,-0.3755833228592298,1,True
2024-10-29,0.7529518778098296,0.7655337097872956,1.671000810046941,2,True
2024-10-30,0.7655337097872956,0.7680690054432019,0.3311801457587915,0,True
2024-10-31,0.7680690054432019,0.7680690054432019,0.0,0,False
2024-11-01,0.7680690054432019,0.7642566725836877,-0.4963529100245889,3,True
2024-11-02,0.7642566725836877,0.7581799746674182,-0.7951121834142816,1,True
2024-11-03,0.7581799746674182,0.7523970343338346,-0.762739788283151,2,True
2024-11-04,0.7523970343338346,0.7637831154931545,1.513307554355392,4,True
2024-11-05,0.7637831154931545,0.7573413460731532,-0.8434029620885242,1,True
2024-11-06,0.7573413460731532,0.7616929826797423,0.5745938247201821,2,True
2024-11-07,0.7616929826797423,0.7580616669831614,-0.47674270068833735,2,True
2024-11-08,0.7580616669831614,0.7550754997206561,-0.39392141728906704,2,True
2024-11-09,0.7550754997206561,0.7544024625209148,-0.0891350864900664,2,True
2024-11-10,0.7544024625209148,0.7659265075518198,1.5275725628461245,3,True
2024-11-11,0.7659265075518198,0.7564705366521034,-1.2345794023947754,5,True
2024-11-12,0.7564705366521034,0.7498218860351195,-0.878904107278089,6,True
2024-11-13,0.7498218860351195,0.74678522822675,-0.4049838854966792,2,True
2024-11-14,0.74678522822675,0.7458429623369572,-0.1261762892699636,3,True
2024-11-15,0.7458429623369572,0.7633231031029767,2.343675766712172,6,True
2024-11-16,0.7633231031029767,0.7658547989012442,0.3316676500391358,1,True
2024-11-17,0.7658547989012442,0.7557623313625036,-1.3178043087567093,4,True
2024-11-18,0.7557623313625036,0.7546813695232394,-0.14302933533554274,2,True
2024-11-19,0.7546813695232394,0.7446160473105109,-1.333718125185357,3,True
2024-11-20,0.7446160473105109,0.7448651187861225,0.03344965187241922,1,True
2024-11-21,0.7448651187861225,0.7594831933438471,1.9625129689986087,4,True
2024-11-22,0.7594831933438471,0.7593365329199887,-0.019310555538776253,5,True
2024-11-23,0.7593365329199887,0.7826169817347166,3.065893422143695,1,True
2024-11-24,0.7826169817347166,0.7758208374500597,-0.8683870198667121,11,True
2024-11-25,0.7758208374500597,0.7933858210850212,2.264051542195422,1,True
2024-11-26,0.7933858210850212,0.7804199726761823,-1.634242516598916,5,True
2024-11-27,0.7804199726761823,0.7865265392082486,0.7824718415554877,3,True
2024-11-28,0.7865265392082486,0.7852021349054907,-0.16838647353095704,2,True
2024-11-29,0.7852021349054907,0.7953906786721601,1.297569544674726,5,True
2024-11-30,0.7953906786721601,0.798945318580104,0.4469048988452018,1,True
2024-12-01,0.798945318580104,0.8014995370561508,0.319698784966449,3,True
2024-12-02,0.8014995370561508,0.8039517049499798,0.3059475121889088,8,True
2024-12-03,0.8039517049499798,0.8032255614476075,-0.09032178150769621,7,True
2024-12-04,0.8032255614476075,0.8228090763955475,2.4381090303756903,3,True
2024-12-05,0.8228090763955475,0.8197165572738025,-0.3758489314790059,6,True
2024-12-06,0.8197165572738025,0.8216649584255543,0.23769205763413126,2,True
2024-12-07,0.8216649584255543,0.822657439462265,0.12078901826511057,2,True
2024-12-08,0.822657439462265,0.8209851565709759,-0.20327815820667672,0,True
2024-12-09,0.8209851565709759,0.8147772286823404,-0.7561559230332859,3,True
2024-12-10,0.8147772286823404,0.7716234874797318,-5.296385279740445,16,True
2024-12-11,0.7716234874797318,0.78492322904822,1.7236050722001295,3,True
2024-12-12,0.78492322904822,0.7843522690573455,-0.07274087066665436,0,True
2024-12-13,0.7843522690573455,0.7843522690573455,0.0,0,False
2024-12-14,0.7843522690573455,0.7843522690573455,0.0,0,False
2024-12-15,0.7843522690573455,0.7785383349718713,-0.7412401690966575,3,True
2024-12-16,0.7785383349718713,0.7759112572526636,-0.3374371692695832,0,True
2024-12-17,0.7759112572526636,0.7759112572526636,0.0,0,False
2024-12-18,0.7759112572526636,0.7720526070283814,-0.49730561171967835,2,True
2024-12-19,0.7720526070283814,0.7646599643788407,-0.9575309483112693,9,True
2024-12-20,0.7646599643788407,0.7369767168120549,-3.6203343782061137,12,True
2024-12-21,0.7369767168120549,0.7566300116008875,2.666745684157701,2,True
2024-12-22,0.7566300116008875,0.7594040709045982,0.3666335277715538,1,True
2024-12-23,0.7594040709045982,0.7671095234068677,1.01467095022163,3,True
2024-12-24,0.7671095234068677,0.7654478923472068,-0.2166093639772937,0,True
2024-12-25,0.7654478923472068,0.7708561187054268,0.7065440263524625,3,True
2024-12-26,0.7708561187054268,0.7636645063767185,-0.932938346625034,1,True
2024-12-27,0.7636645063767185,0.7636645063767185,0.0,0,False
2024-12-28,0.7636645063767185,0.759859516330978,-0.4982541435366139,1,True
2024-12-29,0.759859516330978,0.7892398159498186,3.8665436159442956,4,True
2024-12-30,0.7892398159498186,0.7812980810185103,-1.0062511762347848,2,True
2024-12-31,0.7812980810185103,0.778303444751074,-0.3832898531546891,2,True
