day,start_equity,end_equity,return_pct,entries,active
2021-09-02,1.0,1.0,0.0,0,False
2021-09-03,1.0,1.0,0.0,0,False
2021-09-04,1.0,1.0,0.0,0,False
2021-09-05,1.0,1.0,0.0,0,False
2021-09-06,1.0,1.0,0.0,0,False
2021-09-07,1.0,1.0,0.0,0,False
2021-09-08,1.0,1.0,0.0,0,False
2021-09-09,1.0,1.0,0.0,0,False
2021-09-10,1.0,1.0,0.0,0,False
2021-09-11,1.0,1.0,0.0,0,False
2021-09-12,1.0,1.0,0.0,0,False
2021-09-13,1.0,1.0,0.0,0,False
2021-09-14,1.0,1.0,0.0,0,False
2021-09-15,1.0,1.0,0.0,0,False
2021-09-16,1.0,1.0,0.0,0,False
2021-09-17,1.0,1.0,0.0,0,False
2021-09-18,1.0,1.0,0.0,0,False
2021-09-19,1.0,1.0,0.0,0,False
2021-09-20,1.0,1.0,0.0,0,False
2021-09-21,1.0,1.0,0.0,0,False
2021-09-22,1.0,1.0,0.0,0,False
2021-09-23,1.0,1.0,0.0,0,False
2021-09-24,1.0,1.0,0.0,0,False
2021-09-25,1.0,1.0,0.0,0,False
2021-09-26,1.0,1.0,0.0,0,False
2021-09-27,1.0,1.0,0.0,0,False
2021-09-28,1.0,1.0,0.0,0,False
2021-09-29,1.0,1.0,0.0,0,False
2021-09-30,1.0,1.0,0.0,0,False
2021-10-01,1.0,1.0,0.0,0,False
2021-10-02,1.0,1.0,0.0,0,False
2021-10-03,1.0,1.0,0.0,0,False
2021-10-04,1.0,1.0,0.0,0,False
2021-10-05,1.0,0.9995269898820623,-0.04730101179376556,1,True
2021-10-06,0.9995269898820623,1.0056427254528877,0.6118629744602533,3,True
2021-10-07,1.0056427254528877,0.9936929741494578,-1.1882700486943176,2,True
2021-10-08,0.9936929741494578,0.993244264698245,-0.04515574356322993,1,True
2021-10-09,0.993244264698245,0.9945403214368996,0.13048721092272508,2,True
2021-10-10,0.9945403214368996,1.0003332277438293,0.5824707336712143,1,True
2021-10-11,1.0003332277438293,0.9969946011947755,-0.3337514396661412,0,True
2021-10-12,0.9969946011947755,0.9969946011947755,0.0,0,False
2021-10-13,0.9969946011947755,1.0149805069481226,1.8040123519017293,4,True
2021-10-14,1.0149805069481226,1.034911212371487,1.963654009798943,0,True
2021-10-15,1.034911212371487,1.0348760254624887,-0.00339999302140237,4,True
2021-10-16,1.0348760254624887,1.0535612583731233,1.8055527861208454,2,True
2021-10-17,1.0535612583731233,1.0533045920039843,-0.024361788847038213,0,True
2021-10-18,1.0533045920039843,1.0520329783371416,-0.12072611061377803,1,True
2021-10-19,1.0520329783371416,1.054848088236347,0.2675876096255969,0,True
2021-10-20,1.054848088236347,1.054848088236347,0.0,0,False
2021-10-21,1.054848088236347,1.054848088236347,0.0,0,False
2021-10-22,1.054848088236347,1.054848088236347,0.0,0,False
2021-10-23,1.054848088236347,1.054848088236347,0.0,0,False
2021-10-24,1.054848088236347,1.054848088236347,0.0,0,False
2021-10-25,1.054848088236347,1.0682998854797854,1.275235495371585,2,True
2021-10-26,1.0682998854797854,1.0735025544193035,0.4870045396645928,0,True
2021-10-27,1.0735025544193035,1.0769894788417582,0.3248175244763063,7,True
2021-10-28,1.0769894788417582,1.0772932866222749,0.028208983140975974,1,True
2021-10-29,1.0772932866222749,1.0714741068783742,-0.5401667137596267,0,True
2021-10-30,1.0714741068783742,1.0731735552456125,0.15860844012269837,1,True
2021-10-31,1.0731735552456125,1.065789503600855,-0.688057547510823,1,True
2021-11-01,1.065789503600855,1.0774864017806745,1.0974867119915022,2,True
2021-11-02,1.0774864017806745,1.0810061699866629,0.3266647449259308,1,True
2021-11-03,1.0810061699866629,1.0793168020563102,-0.15627736244775425,1,True
2021-11-04,1.0793168020563102,1.1059693621989743,2.469391757071304,1,True
2021-11-05,1.1059693621989743,1.08319433789162,-2.0592816660012447,3,True
2021-11-06,1.08319433789162,1.0723568925259128,-1.0005079408743622,2,True
2021-11-07,1.0723568925259128,1.072895186318796,0.05019726143740133,0,True
2021-11-08,1.072895186318796,1.072895186318796,0.0,0,False
2021-11-09,1.072895186318796,1.072895186318796,0.0,0,False
2021-11-10,1.072895186318796,1.072895186318796,0.0,0,False
2021-11-11,1.072895186318796,1.0555107437974218,-1.6203299952367134,13,True
2021-11-12,1.0555107437974218,1.053865294377238,-0.15589130000364104,1,True
2021-11-13,1.053865294377238,1.0524224046759945,-0.13691405428586378,1,True
2021-11-14,1.0524224046759945,1.0528744114439708,0.042949177627527035,0,True
2021-11-15,1.0528744114439708,1.0528744114439708,0.0,0,False
2021-11-16,1.0528744114439708,1.0712546681632091,1.74572166627458,7,True
2021-11-17,1.0712546681632091,1.0560734647249639,-1.4171423368707692,0,True
2021-11-18,1.0560734647249639,1.0467869069471898,-0.8793477052463028,4,True
2021-11-19,1.0467869069471898,1.0703630449354242,2.2522385245523413,4,True
2021-11-20,1.0703630449354242,1.0708473272702521,0.04524468002882198,0,True
2021-11-21,1.0708473272702521,1.066757790722283,-0.3818972549890942,1,True
2021-11-22,1.066757790722283,1.051222591206093,-1.4563005446317168,4,True
2021-11-23,1.051222591206093,1.048156028402967,-0.291713936589566,0,True
2021-11-24,1.048156028402967,1.043351205009325,-0.4584072660406169,2,True
2021-11-25,1.043351205009325,1.0422062634887965,-0.10973692415663372,4,True
2021-11-26,1.0422062634887965,1.0207034341538372,-2.0632028503626887,9,True
2021-11-27,1.0207034341538372,1.030272388926126,0.937486291522216,0,True
2021-11-28,1.030272388926126,1.020453020548713,-0.9530846874046595,7,True
2021-11-29,1.020453020548713,1.015541646908083,-0.4812934590549989,1,True
2021-11-30,1.015541646908083,1.005033629813446,-1.0347204495876339,3,True
2021-12-01,1.005033629813446,0.9989988549097273,-0.6004550220711335,1,True
2021-12-02,0.9989988549097273,0.9933597434291483,-0.5644762707048834,5,True
2021-12-03,0.9933597434291483,0.9750848498086349,-1.83970547844301,2,True
2021-12-04,0.9750848498086349,0.9042602094840992,-7.2634335707744135,18,True
2021-12-05,0.9042602094840992,0.8972933675295361,-0.7704465906487101,3,True
2021-12-06,0.8972933675295361,0.8803302443675743,-1.8904768246159387,11,True
2021-12-07,0.8803302443675743,0.9017321815484881,2.4311259686742748,0,True
2021-12-08,0.9017321815484881,0.907479036777009,0.6373128680682294,2,True
2021-12-09,0.907479036777009,0.9204352746221284,1.4277175912662976,2,True
2021-12-10,0.9204352746221284,0.9029453776837212,-1.900176733837955,3,True
2021-12-11,0.9029453776837212,0.8939466672908325,-0.996595211104867,2,True
2021-12-12,0.8939466672908325,0.8939466672908325,0.0,0,False
2021-12-13,0.8939466672908325,0.8850252148046446,-0.9979848700845895,2,True
2021-12-14,0.8850252148046446,0.8845447953766135,-0.0542831345361372,1,True
2021-12-15,0.8845447953766135,0.8813754383944318,-0.35830372851068937,1,True
2021-12-16,0.8813754383944318,0.8822237372381051,0.09624716173377568,0,True
2021-12-17,0.8822237372381051,0.8783181570494986,-0.4426972460334522,4,True
2021-12-18,0.8783181570494986,0.8792155972708983,0.10217712274267488,1,True
2021-12-19,0.8792155972708983,0.8745495993315795,-0.5307000869641199,1,True
2021-12-20,0.8745495993315795,0.8745495993315795,0.0,0,False
2021-12-21,0.8745495993315795,0.8715212794249656,-0.34627194488779933,1,True
2021-12-22,0.8715212794249656,0.8720529052256073,0.06099974988476031,0,True
2021-12-23,0.8720529052256073,0.8720529052256073,0.0,0,False
2021-12-24,0.8720529052256073,0.8720529052256073,0.0,0,False
2021-12-25,0.8720529052256073,0.8741039368055185,0.23519577397435043,1,True
2021-12-26,0.8741039368055185,0.873710765612236,-0.044979913340659206,0,True
2021-12-27,0.873710765612236,0.873710765612236,0.0,0,False
2021-12-28,0.873710765612236,0.8757079563523448,0.2285871730914657,1,True
2021-12-29,0.8757079563523448,0.8754857948011224,-0.025369365392968746,0,True
2021-12-30,0.8754857948011224,0.8754857948011224,0.0,0,False
2021-12-31,0.8754857948011224,0.8754857948011224,0.0,0,False
2022-01-01,0.8754857948011224,0.8754857948011224,0.0,0,False
2022-01-02,0.8754857948011224,0.8754857948011224,0.0,0,False
2022-01-03,0.8754857948011224,0.8754857948011224,0.0,0,False
2022-01-04,0.8754857948011224,0.8754857948011224,0.0,0,False
2022-01-05,0.8754857948011224,0.8771720090688835,0.19260326983878695,1,True
2022-01-06,0.8771720090688835,0.8533494545214261,-2.7158361531331776,8,True
2022-01-07,0.8533494545214261,0.8576358238490855,0.502299416135843,5,True
2022-01-08,0.8576358238490855,0.854472499857243,-0.36884233422590507,0,True
2022-01-09,0.854472499857243,0.8552441084768297,0.09030233503308782,1,True
2022-01-10,0.8552441084768297,0.8569540461766179,0.19993563040539009,0,True
2022-01-11,0.8569540461766179,0.8569540461766179,0.0,0,False
2022-01-12,0.8569540461766179,0.8569540461766179,0.0,0,False
2022-01-13,0.8569540461766179,0.8569540461766179,0.0,0,False
2022-01-14,0.8569540461766179,0.8569540461766179,0.0,0,False
2022-01-15,0.8569540461766179,0.857498003838129,0.06347570957137005,1,True
2022-01-16,0.857498003838129,0.8563248123718146,-0.13681564983980543,0,True
2022-01-17,0.8563248123718146,0.8588456307617988,0.2943764274448757,1,True
2022-01-18,0.8588456307617988,0.8658833913824049,0.8194441897973581,0,True
2022-01-19,0.8658833913824049,0.8615583263069158,-0.4994974056014678,1,True
2022-01-20,0.8615583263069158,0.8615583263069158,0.0,0,False
2022-01-21,0.8615583263069158,0.8276395768949772,-3.9369069250751454,8,True
2022-01-22,0.8276395768949772,0.7951617353122932,-3.9241527942066146,17,True
2022-01-23,0.7951617353122932,0.810961046187672,1.9869304788885156,0,True
2022-01-24,0.810961046187672,0.7998256916184909,-1.3731059736504347,5,True
2022-01-25,0.7998256916184909,0.8107156119661731,1.3615367025340053,0,True
2022-01-26,0.8107156119661731,0.8116218059573972,0.11177704954099532,1,True
2022-01-27,0.8116218059573972,0.8095789187015573,-0.25170433332925013,7,True
2022-01-28,0.8095789187015573,0.7956469800319631,-1.7208870374167962,0,True
2022-01-29,0.7956469800319631,0.7956469800319631,0.0,0,False
2022-01-30,0.7956469800319631,0.8031584234852874,0.9440673617616913,1,True
2022-01-31,0.8031584234852874,0.8017655965906559,-0.1734186997114917,0,True
2022-02-01,0.8017655965906559,0.8017655965906559,0.0,0,False
2022-02-02,0.8017655965906559,0.8012716063752454,-0.06161279774427042,1,True
2022-02-03,0.8012716063752454,0.8007876110494561,-0.060403404031605934,4,True
2022-02-04,0.8007876110494561,0.8096511364311058,1.1068509626458667,0,True
2022-02-05,0.8096511364311058,0.8096511364311058,0.0,0,False
2022-02-06,0.8096511364311058,0.8096511364311058,0.0,0,False
2022-02-07,0.8096511364311058,0.8096511364311058,0.0,0,False
2022-02-08,0.8096511364311058,0.8053326146523135,-0.5333805616364651,3,True
2022-02-09,0.8053326146523135,0.8132141445232428,0.9786676619736756,2,True
2022-02-10,0.8132141445232428,0.815306714703508,0.25732092762502656,5,True
2022-02-11,0.815306714703508,0.8048552792861495,-1.2819022864492435,0,True
2022-02-12,0.8048552792861495,0.7850332714662858,-2.4628039760693943,5,True
2022-02-13,0.7850332714662858,0.7850332714662858,0.0,0,False
2022-02-14,0.7850332714662858,0.7850332714662858,0.0,0,False
2022-02-15,0.7850332714662858,0.7850332714662858,0.0,0,False
2022-02-16,0.7850332714662858,0.7850332714662858,0.0,0,False
2022-02-17,0.7850332714662858,0.7850332714662858,0.0,0,False
2022-02-18,0.7850332714662858,0.7850332714662858,0.0,0,False
2022-02-19,0.7850332714662858,0.7850332714662858,0.0,0,False
2022-02-20,0.7850332714662858,0.7850332714662858,0.0,0,False
2022-02-21,0.7850332714662858,0.7850332714662858,0.0,0,False
2022-02-22,0.7850332714662858,0.7772204080759874,-0.99522703995788,2,True
2022-02-23,0.7772204080759874,0.7772204080759874,0.0,0,False
2022-02-24,0.7772204080759874,0.7608548731776373,-2.105649147693245,9,True
2022-02-25,0.7608548731776373,0.7805203718542657,2.584658306057408,0,True
2022-02-26,0.7805203718542657,0.7805203718542657,0.0,0,False
2022-02-27,0.7805203718542657,0.7805203718542657,0.0,0,False
2022-02-28,0.7805203718542657,0.785470008566988,0.6341457431743303,2,True
2022-03-01,0.785470008566988,0.792146466622384,0.8499952872263794,0,True
2022-03-02,0.792146466622384,0.792146466622384,0.0,0,False
2022-03-03,0.792146466622384,0.792146466622384,0.0,0,False
2022-03-04,0.792146466622384,0.8011919350684144,1.1418934284462834,3,True
2022-03-05,0.8011919350684144,0.7928483436477369,-1.0413973300873236,2,True
2022-03-06,0.7928483436477369,0.7881167520678038,-0.5967839395569663,4,True
2022-03-07,0.7881167520678038,0.7792008216473211,-1.1312956357151127,0,True
2022-03-08,0.7792008216473211,0.7753190347655046,-0.4981754092109325,1,True
2022-03-09,0.7753190347655046,0.7857655783253691,1.3473864424113025,2,True
2022-03-10,0.7857655783253691,0.782277818410751,-0.4438677400518509,3,True
2022-03-11,0.782277818410751,0.7760913121649237,-0.7908323744108658,1,True
2022-03-12,0.7760913121649237,0.7755341489650721,-0.07179093376233903,0,True
2022-03-13,0.7755341489650721,0.7755341489650721,0.0,0,False
2022-03-14,0.7755341489650721,0.7716666956099136,-0.4986825351687596,1,True
2022-03-15,0.7716666956099136,0.7727637638343269,0.1421686630580954,1,True
2022-03-16,0.7727637638343269,0.7764330838034449,0.4748307491686088,1,True
2022-03-17,0.7764330838034449,0.777922571010578,0.1918371638463423,1,True
2022-03-18,0.777922571010578,0.7769228665816938,-0.12850950289120533,0,True
2022-03-19,0.7769228665816938,0.7769228665816938,0.0,0,False
2022-03-20,0.7769228665816938,0.7730451042756357,-0.4991180557111896,1,True
2022-03-21,0.7730451042756357,0.7743268249808879,0.16580154225971366,3,True
2022-03-22,0.7743268249808879,0.7701956286127039,-0.5335210191492523,0,True
2022-03-23,0.7701956286127039,0.7696782822877053,-0.0671707687994072,2,True
2022-03-24,0.7696782822877053,0.7655515416260978,-0.5361643632897595,0,True
2022-03-25,0.7655515416260978,0.7655515416260978,0.0,0,False
2022-03-26,0.7655515416260978,0.7669089074573603,0.17730561006765733,1,True
2022-03-27,0.7669089074573603,0.7655515859064206,-0.17698601981815942,1,True
2022-03-28,0.7655515859064206,0.7653299884174497,-0.028946121077977338,1,True
2022-03-29,0.7653299884174497,0.767229295968449,0.2481684475642565,1,True
2022-03-30,0.767229295968449,0.7710587382262292,0.49912617751990407,5,True
2022-03-31,0.7710587382262292,0.7758352925452898,0.6194799542832197,5,True
2022-04-01,0.7758352925452898,0.7878301204501537,1.5460533982041946,7,True
2022-04-02,0.7878301204501537,0.796368542374671,1.083789728633211,0,True
2022-04-03,0.796368542374671,0.7909394752197685,-0.6817279771892726,2,True
2022-04-04,0.7909394752197685,0.7901395578982143,-0.10113508638974755,0,True
2022-04-05,0.7901395578982143,0.7816650816734183,-1.0725290412415656,6,True
2022-04-06,0.7816650816734183,0.75035750221464,-4.005242167368383,12,True
2022-04-07,0.75035750221464,0.7520167043993273,0.2211215560303348,2,True
2022-04-08,0.7520167043993273,0.7570796793234076,0.6732529868634041,0,True
2022-04-09,0.7570796793234076,0.7570796793234076,0.0,0,False
2022-04-10,0.7570796793234076,0.7570796793234076,0.0,0,False
2022-04-11,0.7570796793234076,0.7499053856596872,-0.9476272920350914,6,True
2022-04-12,0.7499053856596872,0.7382643968489376,-1.552327671378051,0,True
2022-04-13,0.7382643968489376,0.7393292150469194,0.14423263569618427,1,True
2022-04-14,0.7393292150469194,0.7393511212791961,0.002962987506904824,0,True
2022-04-15,0.7393511212791961,0.740622322841251,0.17193475812351533,1,True
2022-04-16,0.740622322841251,0.7403208882892977,-0.04070017101251988,0,True
2022-04-17,0.7403208882892977,0.744759264861684,0.5995206460596147,1,True
2022-04-18,0.744759264861684,0.7597521477446918,2.013118008782655,6,True
2022-04-19,0.7597521477446918,0.7710149305292128,1.4824285548852068,1,True
2022-04-20,0.7710149305292128,0.7704577669109942,-0.07226366133222806,0,True
2022-04-21,0.7704577669109942,0.7694159773241417,-0.13521696212231982,3,True
2022-04-22,0.7694159773241417,0.7649057956579772,-0.5861824811397742,1,True
2022-04-23,0.7649057956579772,0.7651435665067564,0.031084984599272225,2,True
2022-04-24,0.7651435665067564,0.7656321888335708,0.0638602150241141,0,True
2022-04-25,0.7656321888335708,0.7610162200069539,-0.6028963899296413,3,True
2022-04-26,0.7610162200069539,0.7648929641064034,0.509416750593572,2,True
2022-04-27,0.7648929641064034,0.7617826795817141,-0.40663003461183234,0,True
2022-04-28,0.7617826795817141,0.7636324353841869,0.24281935676044863,1,True
2022-04-29,0.7636324353841869,0.7523505131130106,-1.4774021830935347,2,True
2022-04-30,0.7523505131130106,0.7438521158483605,-1.1295795133422826,2,True
2022-05-01,0.7438521158483605,0.7532020851888845,1.256966155142325,7,True
2022-05-02,0.7532020851888845,0.763208357715821,1.3284977197622894,1,True
2022-05-03,0.763208357715821,0.76906186389554,0.7669604401657537,3,True
2022-05-04,0.76906186389554,0.7634425694725643,-0.7306687129839173,1,True
2022-05-05,0.7634425694725643,0.7634425694725643,0.0,0,False
2022-05-06,0.7634425694725643,0.745443724665521,-2.3575898864898304,8,True
2022-05-07,0.745443724665521,0.7465095801435331,0.14298268839680883,2,True
2022-05-08,0.7465095801435331,0.7379823894165545,-1.1422747884011208,3,True
2022-05-09,0.7379823894165545,0.7270603271272654,-1.4799895561090515,5,True
2022-05-10,0.7270603271272654,0.7226715981388665,-0.6036265251522566,11,True
2022-05-11,0.7226715981388665,0.6931165045893548,-4.089699059106023,19,True
2022-05-12,0.6931165045893548,0.6591717013732585,-4.89741666679937,1,True
2022-05-13,0.6591717013732585,0.7019171742169386,6.484725111018563,6,True
2022-05-14,0.7019171742169386,0.6800496637919128,-3.115397546643772,7,True
2022-05-15,0.6800496637919128,0.6956968602620499,2.3008902589392255,2,True
2022-05-16,0.6956968602620499,0.701570640403862,0.8443016602949216,6,True
2022-05-17,0.701570640403862,0.7070252115838754,0.7774799665039467,4,True
2022-05-18,0.7070252115838754,0.6865207671611685,-2.900100885620893,2,True
2022-05-19,0.6865207671611685,0.6917920446672211,0.7678249163313611,6,True
2022-05-20,0.6917920446672211,0.6974430691862706,0.8168675200316722,1,True
2022-05-21,0.6974430691862706,0.6981238104760178,0.0976052841906272,0,True
2022-05-22,0.6981238104760178,0.6981238104760178,0.0,0,False
2022-05-23,0.6981238104760178,0.7010269142089351,0.4158436783495256,4,True
2022-05-24,0.7010269142089351,0.6733193961798344,-3.9524185830107528,8,True
2022-05-25,0.6733193961798344,0.668096938313001,-0.7756286090173092,1,True
2022-05-26,0.668096938313001,0.6613282626112275,-1.0131277833520635,13,True
2022-05-27,0.6613282626112275,0.6421687055176103,-2.897132661163826,3,True
2022-05-28,0.6421687055176103,0.6431391107393163,0.15111375147498496,0,True
2022-05-29,0.6431391107393163,0.6469864230945265,0.5982084266011434,3,True
2022-05-30,0.6469864230945265,0.6506531643337619,0.5667416051325258,0,True
2022-05-31,0.6506531643337619,0.6431663192569643,-1.1506660517764056,5,True
2022-06-01,0.6431663192569643,0.6378041285558781,-0.8337175844781552,2,True
2022-06-02,0.6378041285558781,0.6323135481311993,-0.8608568334467437,6,True
2022-06-03,0.6323135481311993,0.6340991499910174,0.2823918394751157,0,True
2022-06-04,0.6340991499910174,0.6340991499910174,0.0,0,False
2022-06-05,0.6340991499910174,0.6340991499910174,0.0,0,False
2022-06-06,0.6340991499910174,0.6358838177380955,0.2814493202054402,1,True
2022-06-07,0.6358838177380955,0.6307312226050018,-0.8103044910660051,4,True
2022-06-08,0.6307312226050018,0.6453074828192221,2.311009775926176,4,True
2022-06-09,0.6453074828192221,0.6435643203370904,-0.2701289739452828,2,True
2022-06-10,0.6435643203370904,0.6418975343511361,-0.2589929138833158,4,True
2022-06-11,0.6418975343511361,0.6444387779674821,0.3958955254306895,5,True
2022-06-12,0.6444387779674821,0.638833212067437,-0.8698368396955591,13,True
2022-06-13,0.638833212067437,0.5995358814211806,-6.151422609835766,7,True
2022-06-14,0.5995358814211806,0.607667064290268,1.356246243312853,6,True
2022-06-15,0.607667064290268,0.6008174319011463,-1.1272015206421848,7,True
2022-06-16,0.6008174319011463,0.6078665294964538,1.1732511776501253,5,True
2022-06-17,0.6078665294964538,0.6184797901039167,1.7459853590318097,1,True
2022-06-18,0.6184797901039167,0.6130699760324066,-0.8746953672651325,6,True
2022-06-19,0.6130699760324066,0.6277772704884821,2.398958525298589,3,True
2022-06-20,0.6277772704884821,0.6332823837703101,0.876921408375364,1,True
2022-06-21,0.6332823837703101,0.6318715955069655,-0.22277396300609542,0,True
2022-06-22,0.6318715955069655,0.6304802627791298,-0.220192320358914,5,True
2022-06-23,0.6304802627791298,0.6358684806440491,0.8546211805534165,1,True
2022-06-24,0.6358684806440491,0.6302119761719317,-0.8895714513775133,2,True
2022-06-25,0.6302119761719317,0.626328533875125,-0.6162120752442268,4,True
2022-06-26,0.626328533875125,0.6303973987007225,0.649637467484232,0,True
2022-06-27,0.6303973987007225,0.6275883573922115,-0.44559849299831145,5,True
2022-06-28,0.6275883573922115,0.6223134873997408,-0.8404983824730539,3,True
2022-06-29,0.6223134873997408,0.6272091294096397,0.7866842208988034,4,True
2022-06-30,0.6272091294096397,0.6207218224756569,-1.0343132186371395,2,True
2022-07-01,0.6207218224756569,0.6209602880026784,0.03841745503170291,1,True
2022-07-02,0.6209602880026784,0.6205316929841759,-0.069021324999885,1,True
2022-07-03,0.6205316929841759,0.6216634479131238,0.18238471003877432,1,True
2022-07-04,0.6216634479131238,0.6247398926589938,0.494873030768872,0,True
2022-07-05,0.6247398926589938,0.6250834785130448,0.05499662468946287,1,True
2022-07-06,0.6250834785130448,0.6260894060929083,0.16092691847438,0,True
2022-07-07,0.6260894060929083,0.6260894060929083,0.0,0,False
2022-07-08,0.6260894060929083,0.6260894060929083,0.0,0,False
2022-07-09,0.6260894060929083,0.6260894060929083,0.0,0,False
2022-07-10,0.6260894060929083,0.6260894060929083,0.0,0,False
2022-07-11,0.6260894060929083,0.6229671221570612,-0.4986961774887111,1,True
2022-07-12,0.6229671221570612,0.6252242766899149,0.36232321940814494,2,True
2022-07-13,0.6252242766899149,0.6270660179797731,0.2945729010410236,5,True
2022-07-14,0.6270660179797731,0.6326223313660821,0.8860810866788693,0,True
2022-07-15,0.6326223313660821,0.6326223313660821,0.0,0,False
2022-07-16,0.6326223313660821,0.6326223313660821,0.0,0,False
2022-07-17,0.6326223313660821,0.6326223313660821,0.0,0,False
2022-07-18,0.6326223313660821,0.633675734183222,0.1665136946501944,1,True
2022-07-19,0.633675734183222,0.6361087417194912,0.38395150784891197,0,True
2022-07-20,0.6361087417194912,0.6371508607930049,0.16382718946712505,2,True
2022-07-21,0.6371508607930049,0.6272006897276518,-1.561666424333008,6,True
2022-07-22,0.6272006897276518,0.632965525405783,0.9191373307696038,0,True
2022-07-23,0.632965525405783,0.6355887149529518,0.4144285023243821,2,True
2022-07-24,0.6355887149529518,0.6400679055950885,0.7047309898301712,3,True
2022-07-25,0.6400679055950885,0.6409494733042697,0.13773034102710913,1,True
2022-07-26,0.6409494733042697,0.6381731903536406,-0.43315160808488073,1,True
2022-07-27,0.6381731903536406,0.6389915680688126,0.1282375580081263,1,True
2022-07-28,0.6389915680688126,0.6392392217208469,0.038756951485718893,0,True
2022-07-29,0.6392392217208469,0.6418545958421228,0.4091385560221372,2,True
2022-07-30,0.6418545958421228,0.6457486736290848,0.6066915797109607,1,True
2022-07-31,0.6457486736290848,0.6453390403487752,-0.06343540405704395,1,True
2022-08-01,0.6453390403487752,0.6439324567557972,-0.21796040608634826,1,True
2022-08-02,0.6439324567557972,0.6374390416561256,-1.0084000319515063,5,True
2022-08-03,0.6374390416561256,0.6387799898101137,0.21036492375869908,1,True
2022-08-04,0.6387799898101137,0.6365886697813048,-0.34304769463119333,0,True
2022-08-05,0.6365886697813048,0.641694526994724,0.8020653611653605,2,True
2022-08-06,0.641694526994724,0.6410434302889497,-0.10146521099744232,0,True
2022-08-07,0.6410434302889497,0.6419910757380706,0.14782858763464635,2,True
2022-08-08,0.6419910757380706,0.6425700616160629,0.0901859698480445,0,True
2022-08-09,0.6425700616160629,0.6428565872835046,0.04459057222820917,6,True
2022-08-10,0.6428565872835046,0.6712252435603469,4.412905901255315,2,True
2022-08-11,0.6712252435603469,0.6740004805080623,0.4134583695027505,1,True
2022-08-12,0.6740004805080623,0.6706310499632377,-0.4999151547020575,3,True
2022-08-13,0.6706310499632377,0.6695928415534995,-0.15481066821989575,0,True
2022-08-14,0.6695928415534995,0.6695928415534995,0.0,0,False
2022-08-15,0.6695928415534995,0.6695928415534995,0.0,0,False
2022-08-16,0.6695928415534995,0.6656932689708629,-0.5823796702469797,2,True
2022-08-17,0.6656932689708629,0.6628756213337298,-0.4232651535577503,1,True
2022-08-18,0.6628756213337298,0.6597312384105677,-0.4743548898110794,1,True
2022-08-19,0.6597312384105677,0.6397759914187509,-3.0247539952622637,12,True
2022-08-20,0.6397759914187509,0.6442419639590294,0.6980525371661717,1,True
2022-08-21,0.6442419639590294,0.6486288636627384,0.6809397631831304,0,True
2022-08-22,0.6486288636627384,0.6486288636627384,0.0,0,False
2022-08-23,0.6486288636627384,0.6486288636627384,0.0,0,False
2022-08-24,0.6486288636627384,0.6486288636627384,0.0,0,False
2022-08-25,0.6486288636627384,0.6471016481685549,-0.23545290376988381,1,True
2022-08-26,0.6471016481685549,0.6460507867906045,-0.1623951014380176,1,True
2022-08-27,0.6460507867906045,0.6352275334091898,-1.6752945128635344,5,True
2022-08-28,0.6352275334091898,0.6334014185650936,-0.28747413297652846,0,True
2022-08-29,0.6334014185650936,0.6373525487023246,0.6237955933508843,2,True
2022-08-30,0.6373525487023246,0.640077705673992,0.4275744997358055,1,True
2022-08-31,0.640077705673992,0.6382501052116165,-0.2855279048425974,2,True
2022-09-01,0.6382501052116165,0.6324791535323716,-0.904183427800842,1,True
2022-09-02,0.6324791535323716,0.6325631178660233,0.01327543100555495,0,True
2022-09-03,0.6325631178660233,0.6325631178660233,0.0,0,False
2022-09-04,0.6325631178660233,0.6325631178660233,0.0,0,False
2022-09-05,0.6325631178660233,0.6325631178660233,0.0,0,False
2022-09-06,0.6325631178660233,0.6308389212264496,-0.2725730588577946,1,True
2022-09-07,0.6308389212264496,0.6229840557360214,-1.245145983566942,5,True
2022-09-08,0.6229840557360214,0.6227673182402874,-0.03479021553416395,0,True
2022-09-09,0.6227673182402874,0.6227673182402874,0.0,0,False
2022-09-10,0.6227673182402874,0.6240012383013059,0.1981350056238007,1,True
2022-09-11,0.6240012383013059,0.624991452481065,0.15868785492392234,0,True
2022-09-12,0.624991452481065,0.624991452481065,0.0,0,False
2022-09-13,0.624991452481065,0.6198279445092726,-0.8261725742479409,4,True
2022-09-14,0.6198279445092726,0.6265289199814821,1.081102511038723,1,True
2022-09-15,0.6265289199814821,0.625450146219771,-0.17218259641437195,3,True
2022-09-16,0.625450146219771,0.6128518556485002,-2.014275741626259,2,True
2022-09-17,0.6128518556485002,0.6122359720981868,-0.10049468638088088,1,True
2022-09-18,0.6122359720981868,0.6133696638959498,0.18517235991177827,0,True
2022-09-19,0.6133696638959498,0.6200355737841503,1.0867687596188835,8,True
2022-09-20,0.6200355737841503,0.6212016648274331,0.18806840971494765,0,True
2022-09-21,0.6212016648274331,0.6212016648274331,0.0,0,False
2022-09-22,0.6212016648274331,0.6208565278871476,-0.055559564603124834,2,True
2022-09-23,0.6208565278871476,0.6187183484431061,-0.3443918760616005,2,True
2022-09-24,0.6187183484431061,0.6206044626359634,0.30484213012322847,0,True
2022-09-25,0.6206044626359634,0.6206044626359634,0.0,0,False
2022-09-26,0.6206044626359634,0.6206044626359634,0.0,0,False
2022-09-27,0.6206044626359634,0.6206044626359634,0.0,0,False
2022-09-28,0.6206044626359634,0.6206044626359634,0.0,0,False
2022-09-29,0.6206044626359634,0.6206044626359634,0.0,0,False
2022-09-30,0.6206044626359634,0.6191326415565965,-0.2371592806657219,1,True
2022-10-01,0.6191326415565965,0.61889440069139,-0.0384797778724022,0,True
2022-10-02,0.61889440069139,0.61889440069139,0.0,0,False
2022-10-03,0.61889440069139,0.61889440069139,0.0,0,False
2022-10-04,0.61889440069139,0.61889440069139,0.0,0,False
2022-10-05,0.61889440069139,0.61889440069139,0.0,0,False
2022-10-06,0.61889440069139,0.61889440069139,0.0,0,False
2022-10-07,0.61889440069139,0.61889440069139,0.0,0,False
2022-10-08,0.61889440069139,0.617227081452641,-0.2694028637011958,1,True
2022-10-09,0.617227081452641,0.6162135929709869,-0.1642002614773319,0,True
2022-10-10,0.6162135929709869,0.6162135929709869,0.0,0,False
2022-10-11,0.6162135929709869,0.6305772356808383,2.3309519416147895,6,True
2022-10-12,0.6305772356808383,0.6291495453853976,-0.22641005964944005,2,True
2022-10-13,0.6291495453853976,0.6288056040590726,-0.05466765872242929,1,True
2022-10-14,0.6288056040590726,0.6362266379022525,1.1801793424351725,0,True
2022-10-15,0.6362266379022525,0.6362266379022525,0.0,0,False
2022-10-16,0.6362266379022525,0.6362266379022525,0.0,0,False
2022-10-17,0.6362266379022525,0.6362266379022525,0.0,0,False
2022-10-18,0.6362266379022525,0.6362266379022525,0.0,0,False
2022-10-19,0.6362266379022525,0.6362266379022525,0.0,0,False
2022-10-20,0.6362266379022525,0.6400869479279875,0.606750770207154,2,True
2022-10-21,0.6400869479279875,0.6337710203665622,-0.9867296281966809,0,True
2022-10-22,0.6337710203665622,0.6337710203665622,0.0,0,False
2022-10-23,0.6337710203665622,0.6337710203665622,0.0,0,False
2022-10-24,0.6337710203665622,0.6337710203665622,0.0,0,False
2022-10-25,0.6337710203665622,0.6317539081034939,-0.31827145739508067,1,True
2022-10-26,0.6317539081034939,0.6306032022230675,-0.1821446398140525,0,True
2022-10-27,0.6306032022230675,0.6306032022230675,0.0,0,False
2022-10-28,0.6306032022230675,0.6274582590721401,-0.4987198193476483,1,True
2022-10-29,0.6274582590721401,0.6274582590721401,0.0,0,False
2022-10-30,0.6274582590721401,0.6243994669564563,-0.4874893383676304,2,True
2022-10-31,0.6243994669564563,0.6255025064553897,0.17665606031185277,1,True
2022-11-01,0.6255025064553897,0.6335559077335209,1.2875090339395046,0,True
2022-11-02,0.6335559077335209,0.6375939142105277,0.6373559819609742,3,True
2022-11-03,0.6375939142105277,0.6454871631348845,1.2379743200858995,3,True
2022-11-04,0.6454871631348845,0.6519289278226481,0.9979694493811975,3,True
2022-11-05,0.6519289278226481,0.64875571013345,-0.48674288772492247,2,True
2022-11-06,0.64875571013345,0.6470597901520879,-0.26141118372788874,2,True
2022-11-07,0.6470597901520879,0.6409558399423576,-0.9433363504623871,7,True
2022-11-08,0.6409558399423576,0.6208161739490724,-3.1421300405182984,10,True
2022-11-09,0.6208161739490724,0.5884246927243234,-5.217564004285458,13,True
2022-11-10,0.5884246927243234,0.6031386006330747,2.500559220352905,9,True
2022-11-11,0.6031386006330747,0.5966641275335451,-1.0734635609018772,11,True
2022-11-12,0.5966641275335451,0.5854768943764219,-1.8749632566932295,2,True
2022-11-13,0.5854768943764219,0.5820828230320699,-0.5797105533886127,1,True
2022-11-14,0.5820828230320699,0.5844647988311115,0.40921595772811514,6,True
2022-11-15,0.5844647988311115,0.5869838747410958,0.4310055823759207,1,True
2022-11-16,0.5869838747410958,0.583685563930698,-0.5619082486469584,2,True
2022-11-17,0.583685563930698,0.5849001365009161,0.20808679283392806,1,True
2022-11-18,0.5849001365009161,0.5866489225757214,0.29898883000218923,0,True
2022-11-19,0.5866489225757214,0.5865871329026996,-0.010532649195116317,3,True
2022-11-20,0.5865871329026996,0.5757208144603193,-1.8524645074652124,3,True
2022-11-21,0.5757208144603193,0.5652943072893619,-1.8110352985467815,6,True
2022-11-22,0.5652943072893619,0.5563794541096089,-1.5770286494659058,3,True
2022-11-23,0.5563794541096089,0.5643230734999954,1.4277341357076256,1,True
2022-11-24,0.5643230734999954,0.5599206390410215,-0.7801266093320547,2,True
2022-11-25,0.5599206390410215,0.5573369607257627,-0.46143652066191754,2,True
2022-11-26,0.5573369607257627,0.5584197207718731,0.1942738634632235,0,True
2022-11-27,0.5584197207718731,0.5584197207718731,0.0,0,False
2022-11-28,0.5584197207718731,0.5536432814863123,-0.8553493202135831,5,True
2022-11-29,0.5536432814863123,0.5564321337183165,0.503727278062005,0,True
2022-11-30,0.5564321337183165,0.5564321337183165,0.0,0,False
2022-12-01,0.5564321337183165,0.5567454762146988,0.05631279672662082,1,True
2022-12-02,0.5567454762146988,0.5570811413163274,0.06029058447150071,1,True
2022-12-03,0.5570811413163274,0.5569436783520358,-0.02467557310712465,0,True
2022-12-04,0.5569436783520358,0.5569436783520358,0.0,0,False
2022-12-05,0.5569436783520358,0.5569436783520358,0.0,0,False
2022-12-06,0.5569436783520358,0.5579021924360241,0.17210251615109584,2,True
2022-12-07,0.5579021924360241,0.5551389882000277,-0.49528470643414035,1,True
2022-12-08,0.5551389882000277,0.5536115947390161,-0.2751371266435432,2,True
2022-12-09,0.5536115947390161,0.5555372393928136,0.3478331509124688,0,True
2022-12-10,0.5555372393928136,0.5555372393928136,0.0,0,False
2022-12-11,0.5555372393928136,0.5555372393928136,0.0,0,False
2022-12-12,0.5555372393928136,0.5551555105732621,-0.06871345293949505,1,True
2022-12-13,0.5551555105732621,0.5558582046098652,0.12657607160875273,1,True
2022-12-14,0.5558582046098652,0.555709133289315,-0.026818227978631093,0,True
2022-12-15,0.555709133289315,0.555709133289315,0.0,0,False
2022-12-16,0.555709133289315,0.5569421924716811,0.22188931376156962,5,True
2022-12-17,0.5569421924716811,0.5529819797202509,-0.7110635187926762,5,True
2022-12-18,0.5529819797202509,0.5547951365268652,0.32788714155416177,0,True
2022-12-19,0.5547951365268652,0.5520289179818877,-0.49860180143153077,1,True
2022-12-20,0.5520289179818877,0.5520289179818877,0.0,0,False
2022-12-21,0.5520289179818877,0.5520289179818877,0.0,0,False
2022-12-22,0.5520289179818877,0.5520289179818877,0.0,0,False
2022-12-23,0.5520289179818877,0.5520289179818877,0.0,0,False
2022-12-24,0.5520289179818877,0.5520289179818877,0.0,0,False
2022-12-25,0.5520289179818877,0.5520289179818877,0.0,0,False
2022-12-26,0.5520289179818877,0.5520289179818877,0.0,0,False
2022-12-27,0.5520289179818877,0.5520289179818877,0.0,0,False
2022-12-28,0.5520289179818877,0.5543371168307493,0.41813006052289214,4,True
2022-12-29,0.5543371168307493,0.5492358420600784,-0.9202477365823691,0,True
2022-12-30,0.5492358420600784,0.5558283369093497,1.2003031019505617,1,True
2022-12-31,0.5558283369093497,0.5576323076742112,0.3245553788949307,0,True
2023-01-01,0.5576323076742112,0.5576323076742112,0.0,0,False
2023-01-02,0.5576323076742112,0.557117303561028,-0.09235550130358705,1,True
2023-01-03,0.557117303561028,0.5594861001403637,0.425188118228359,0,True
2023-01-04,0.5594861001403637,0.5594861001403637,0.0,0,False
2023-01-05,0.5594861001403637,0.5594861001403637,0.0,0,False
2023-01-06,0.5594861001403637,0.5588750522096994,-0.10921592699283389,1,True
2023-01-07,0.5588750522096994,0.5601532653014136,0.2287117821166751,0,True
2023-01-08,0.5601532653014136,0.5601532653014136,0.0,0,False
2023-01-09,0.5601532653014136,0.5602636774205323,0.01971105516260785,1,True
2023-01-10,0.5602636774205323,0.5610037049869545,0.13208558688462269,1,True
2023-01-11,0.5610037049869545,0.5536640316871017,-1.308311020873476,3,True
2023-01-12,0.5536640316871017,0.5510263899246655,-0.47639752837093097,0,True
2023-01-13,0.5510263899246655,0.5510145110144341,-0.002155778824486365,1,True
2023-01-14,0.5510145110144341,0.5542227005599476,0.5822332227888305,4,True
2023-01-15,0.5542227005599476,0.5529694437480916,-0.22612874041242348,2,True
2023-01-16,0.5529694437480916,0.5525538758146301,-0.07515206096104787,1,True
2023-01-17,0.5525538758146301,0.5522002397807318,-0.0640002811267748,0,True
2023-01-18,0.5522002397807318,0.5522002397807318,0.0,0,False
2023-01-19,0.5522002397807318,0.5441724948123825,-1.4537742633971007,7,True
2023-01-20,0.5441724948123825,0.5451317704354376,0.17628153429287696,0,True
2023-01-21,0.5451317704354376,0.5431225185457378,-0.36858095577421146,2,True
2023-01-22,0.5431225185457378,0.5492073064575473,1.120334308380766,1,True
2023-01-23,0.5492073064575473,0.5482159489389229,-0.1805069792350067,0,True
2023-01-24,0.5482159489389229,0.5698907884908009,3.953704665803648,4,True
2023-01-25,0.5698907884908009,0.5589934610072199,-1.9121782109234542,8,True
2023-01-26,0.5589934610072199,0.5716694878626448,2.267652081758631,0,True
2023-01-27,0.5716694878626448,0.5703807581966637,-0.22543264829463228,2,True
2023-01-28,0.5703807581966637,0.574071417068242,0.6470517840130086,0,True
2023-01-29,0.574071417068242,0.5730708613855567,-0.1742911514032719,1,True
2023-01-30,0.5730708613855567,0.5727767439731791,-0.05132304435554458,5,True
2023-01-31,0.5727767439731791,0.5818904169519541,1.5911387944203437,4,True
2023-02-01,0.5818904169519541,0.5796729014249971,-0.3810881675235023,2,True
2023-02-02,0.5796729014249971,0.5852554797317854,0.9630566295344867,0,True
2023-02-03,0.5852554797317854,0.5908551864467477,0.9567969730977399,2,True
2023-02-04,0.5908551864467477,0.5899181884939034,-0.15858335076639474,0,True
2023-02-05,0.5899181884939034,0.5922481228786327,0.3949588994158315,5,True
2023-02-06,0.5922481228786327,0.5832800999911334,-1.5142340753922623,1,True
2023-02-07,0.5832800999911334,0.5816414817119864,-0.28093162773287217,0,True
2023-02-08,0.5816414817119864,0.5767391772785356,-0.8428395476576811,3,True
2023-02-09,0.5767391772785356,0.5730740073142189,-0.6354986983217681,9,True
2023-02-10,0.5730740073142189,0.559642932418592,-2.3436894230421057,8,True
2023-02-11,0.559642932418592,0.5681980473151987,1.5286738027110225,2,True
2023-02-12,0.5681980473151987,0.5759258637889934,1.3600568517103229,1,True
2023-02-13,0.5759258637889934,0.5762654090248905,0.05895641387996253,2,True
2023-02-14,0.5762654090248905,0.5757084923098402,-0.09664239885449621,1,True
2023-02-15,0.5757084923098402,0.5765566906743171,0.14733122331995752,0,True
2023-02-16,0.5765566906743171,0.5765566906743171,0.0,0,False
2023-02-17,0.5765566906743171,0.5814436500450185,0.8476112496389243,1,True
2023-02-18,0.5814436500450185,0.5811752888797708,-0.046154286013266876,1,True
2023-02-19,0.5811752888797708,0.582255336969109,0.1858386118618549,1,True
2023-02-20,0.582255336969109,0.5866454633560887,0.7539864571842525,3,True
2023-02-21,0.5866454633560887,0.5925019031379388,0.9982928613044395,5,True
2023-02-22,0.5925019031379388,0.5885331869065114,-0.6698233727872926,1,True
2023-02-23,0.5885331869065114,0.5930953127286865,0.7751688305216886,1,True
2023-02-24,0.5930953127286865,0.5924032876038875,-0.11668025525529702,0,True
2023-02-25,0.5924032876038875,0.5901191526644844,-0.385570942497937,2,True
2023-02-26,0.5901191526644844,0.5897777786218169,-0.05784832455042466,0,True
2023-02-27,0.5897777786218169,0.5868360248913158,-0.49879019473662023,1,True
2023-02-28,0.5868360248913158,0.5856491897116616,-0.20224306779291767,1,True
2023-03-01,0.5856491897116616,0.585061352363456,-0.10037362956054618,1,True
2023-03-02,0.585061352363456,0.5818271384601812,-0.5527991022154621,1,True
2023-03-03,0.5818271384601812,0.5785986678792407,-0.5548848390751759,9,True
2023-03-04,0.5785986678792407,0.5805633936914092,0.3395662522642562,0,True
2023-03-05,0.5805633936914092,0.5891722064744067,1.4828376843155633,4,True
2023-03-06,0.5891722064744067,0.5885726842224044,-0.101756709738543,0,True
2023-03-07,0.5885726842224044,0.5885726842224044,0.0,0,False
2023-03-08,0.5885726842224044,0.5885726842224044,0.0,0,False
2023-03-09,0.5885726842224044,0.5885726842224044,0.0,0,False
2023-03-10,0.5885726842224044,0.5745596725933684,-2.3808464111020333,10,True
2023-03-11,0.5745596725933684,0.5682293582717941,-1.1017679491846954,2,True
2023-03-12,0.5682293582717941,0.5682293582717941,0.0,0,False
2023-03-13,0.5682293582717941,0.5682293582717941,0.0,0,False
2023-03-14,0.5682293582717941,0.5722886091159739,0.7143683769746723,1,True
2023-03-15,0.5722886091159739,0.5646823819058733,-1.3290893945714033,4,True
2023-03-16,0.5646823819058733,0.5636739257714238,-0.1785882058239152,5,True
2023-03-17,0.5636739257714238,0.5616279922820732,-0.3629640108952503,2,True
2023-03-18,0.5616279922820732,0.573524543664158,2.1182262183452316,2,True
2023-03-19,0.573524543664158,0.5708324554957988,-0.46939371611890435,2,True
2023-03-20,0.5708324554957988,0.5739855629886663,0.5523700452751745,4,True
2023-03-21,0.5739855629886663,0.5628193426036496,-1.9453834913330637,0,True
2023-03-22,0.5628193426036496,0.5628193426036496,0.0,0,False
2023-03-23,0.5628193426036496,0.5693809053610865,1.1658381759025227,6,True
2023-03-24,0.5693809053610865,0.5639490899145342,-0.9539862323109771,1,True
2023-03-25,0.5639490899145342,0.5611368131271645,-0.49867564956899146,1,True
2023-03-26,0.5611368131271645,0.5611368131271645,0.0,0,False
2023-03-27,0.5611368131271645,0.5583393638082322,-0.49853248859975663,1,True
2023-03-28,0.5583393638082322,0.5698746040290269,2.0659908594151233,4,True
2023-03-29,0.5698746040290269,0.5701355218931096,0.04578513628050729,0,True
2023-03-30,0.5701355218931096,0.5687415699298866,-0.24449484547015565,1,True
2023-03-31,0.5687415699298866,0.5672851619275396,-0.25607553225386326,0,True
2023-04-01,0.5672851619275396,0.5668703902958401,-0.07311519135988487,1,True
2023-04-02,0.5668703902958401,0.565633154762304,-0.21825721623780492,0,True
2023-04-03,0.565633154762304,0.565633154762304,0.0,0,False
2023-04-04,0.565633154762304,0.5659267101296807,0.05189854323515153,1,True
2023-04-05,0.5659267101296807,0.5651008599359759,-0.14592882416090136,1,True
2023-04-06,0.5651008599359759,0.5599985797379814,-0.9028972630784171,2,True
2023-04-07,0.5599985797379814,0.5574195830456296,-0.46053629163819165,1,True
2023-04-08,0.5574195830456296,0.5586152606668222,0.21450226320713917,1,True
2023-04-09,0.5586152606668222,0.5587440204863553,0.023049821334875098,0,True
2023-04-10,0.5587440204863553,0.5587440204863553,0.0,0,False
2023-04-11,0.5587440204863553,0.5587440204863553,0.0,0,False
2023-04-12,0.5587440204863553,0.5616269875603909,0.5159727833017547,1,True
2023-04-13,0.5616269875603909,0.561894365165118,0.0476076845752349,0,True
2023-04-14,0.561894365165118,0.5660791484462306,0.7447633470897719,1,True
2023-04-15,0.5660791484462306,0.5645320947436641,-0.2732928260673284,1,True
2023-04-16,0.5645320947436641,0.5664968254420454,0.3480281664540952,0,True
2023-04-17,0.5664968254420454,0.5636674781194829,-0.49944628027785987,1,True
2023-04-18,0.5636674781194829,0.5636674781194829,0.0,0,False
2023-04-19,0.5636674781194829,0.5547672059400794,-1.578993382605065,9,True
2023-04-20,0.5547672059400794,0.5468837867898674,-1.4210319329984955,0,True
2023-04-21,0.5468837867898674,0.5468837867898674,0.0,0,False
2023-04-22,0.5468837867898674,0.5463569468900963,-0.09633489097630177,1,True
2023-04-23,0.5463569468900963,0.5464092054519506,0.00956491212416033,0,True
2023-04-24,0.5464092054519506,0.5464092054519506,0.0,0,False
2023-04-25,0.5464092054519506,0.5464092054519506,0.0,0,False
2023-04-26,0.5464092054519506,0.5464092054519506,0.0,0,False
2023-04-27,0.5464092054519506,0.5466279852188373,0.04003954631506268,9,True
2023-04-28,0.5466279852188373,0.5538439935240841,1.3200949275141705,0,True
2023-04-29,0.5538439935240841,0.551081410698299,-0.4988016224942604,1,True
2023-04-30,0.551081410698299,0.551081410698299,0.0,0,False
2023-05-01,0.551081410698299,0.551081410698299,0.0,0,False
2023-05-02,0.551081410698299,0.551081410698299,0.0,0,False
2023-05-03,0.551081410698299,0.551081410698299,0.0,0,False
2023-05-04,0.551081410698299,0.551081410698299,0.0,0,False
2023-05-05,0.551081410698299,0.551081410698299,0.0,0,False
2023-05-06,0.551081410698299,0.5483357278355334,-0.4982354348128659,1,True
2023-05-07,0.5483357278355334,0.5483357278355334,0.0,0,False
2023-05-08,0.5483357278355334,0.5587717981457374,1.9032263958795204,6,True
2023-05-09,0.5587717981457374,0.5484035147450286,-1.8555488009802223,4,True
2023-05-10,0.5484035147450286,0.5448253100428033,-0.6524766173114149,2,True
2023-05-11,0.5448253100428033,0.5408631819901351,-0.7272290731788811,4,True
2023-05-12,0.5408631819901351,0.5372188215751151,-0.673804491851393,0,True
2023-05-13,0.5372188215751151,0.5372188215751151,0.0,0,False
2023-05-14,0.5372188215751151,0.5372188215751151,0.0,0,False
2023-05-15,0.5372188215751151,0.5372188215751151,0.0,0,False
2023-05-16,0.5372188215751151,0.5372188215751151,0.0,0,False
2023-05-17,0.5372188215751151,0.5372188215751151,0.0,0,False
2023-05-18,0.5372188215751151,0.5355482637038763,-0.31096413680011814,1,True
2023-05-19,0.5355482637038763,0.5345348580251915,-0.1892277031534051,0,True
2023-05-20,0.5345348580251915,0.5345348580251915,0.0,0,False
2023-05-21,0.5345348580251915,0.5345348580251915,0.0,0,False
2023-05-22,0.5345348580251915,0.5318647743630825,-0.49951534909686846,1,True
2023-05-23,0.5318647743630825,0.5318647743630825,0.0,0,False
2023-05-24,0.5318647743630825,0.5303182604742642,-0.2907720088570098,1,True
2023-05-25,0.5303182604742642,0.5329248441401727,0.49151308943753413,0,True
2023-05-26,0.5329248441401727,0.5343261463572109,0.2629455602316755,1,True
2023-05-27,0.5343261463572109,0.5391259834514476,0.8982972528968958,0,True
2023-05-28,0.5391259834514476,0.5391259834514476,0.0,0,False
2023-05-29,0.5391259834514476,0.5391259834514476,0.0,0,False
2023-05-30,0.5391259834514476,0.5419019214764649,0.5148959816861254,2,True
2023-05-31,0.5419019214764649,0.536299260986542,-1.0338882864002197,1,True
2023-06-01,0.536299260986542,0.536299260986542,0.0,0,False
2023-06-02,0.536299260986542,0.5436027615260088,1.361833041878846,1,True
2023-06-03,0.5436027615260088,0.555752892011211,2.235111987123495,0,True
2023-06-04,0.555752892011211,0.5518715832179,-0.6983875116267968,3,True
2023-06-05,0.5518715832179,0.5570434164427203,0.9371443252547795,1,True
2023-06-06,0.5570434164427203,0.5415266459917344,-2.785558538699906,11,True
2023-06-07,0.5415266459917344,0.5394377764110249,-0.38573717400074425,1,True
2023-06-08,0.5394377764110249,0.5381487534602175,-0.2389567448137342,1,True
2023-06-09,0.5381487534602175,0.536407361255404,-0.32358937814435107,1,True
2023-06-10,0.536407361255404,0.5442411803426682,1.4604234865327026,7,True
2023-06-11,0.5442411803426682,0.5438164752203549,-0.07803619748985025,0,True
2023-06-12,0.5438164752203549,0.5438164752203549,0.0,0,False
2023-06-13,0.5438164752203549,0.5443695541366557,0.10170322921472241,1,True
2023-06-14,0.5443695541366557,0.5443394264369217,-0.005534420414410324,0,True
2023-06-15,0.5443394264369217,0.547574516027708,0.5943147664247306,5,True
2023-06-16,0.547574516027708,0.5530502799690004,1.0000034298556004,0,True
2023-06-17,0.5530502799690004,0.5539687583879416,0.16607503010264146,1,True
2023-06-18,0.5539687583879416,0.5546793856106232,0.12827929588477005,0,True
2023-06-19,0.5546793856106232,0.5576116263130955,0.5286370430449994,1,True
2023-06-20,0.5576116263130955,0.5573575449422926,-0.0455660102503308,1,True
2023-06-21,0.5573575449422926,0.5573575449422926,0.0,0,False
2023-06-22,0.5573575449422926,0.554575292860119,-0.4991862238918343,1,True
2023-06-23,0.554575292860119,0.554575292860119,0.0,0,False
2023-06-24,0.554575292860119,0.5546535340369608,0.014108305553661715,1,True
2023-06-25,0.5546535340369608,0.5512982760181668,-0.6049286289358413,4,True
2023-06-26,0.5512982760181668,0.5496218297489602,-0.3040906061442805,0,True
2023-06-27,0.5496218297489602,0.5496218297489602,0.0,0,False
2023-06-28,0.5496218297489602,0.5496218297489602,0.0,0,False
2023-06-29,0.5496218297489602,0.5481579883530273,-0.2663361090664007,2,True
2023-06-30,0.5481579883530273,0.5473266636081399,-0.15165787283064613,8,True
2023-07-01,0.5473266636081399,0.5496620865211923,0.42669635308036913,1,True
2023-07-02,0.5496620865211923,0.5496520413361276,-0.0018275200911799239,0,True
2023-07-03,0.5496520413361276,0.5496520413361276,0.0,0,False
2023-07-04,0.5496520413361276,0.5489981395853292,-0.11896649182068231,1,True
2023-07-05,0.5489981395853292,0.5493760826907921,0.06884232900103981,1,True
2023-07-06,0.5493760826907921,0.5468961130516387,-0.4514156544651149,2,True
2023-07-07,0.5468961130516387,0.546330544012645,-0.10341434606981892,0,True
2023-07-08,0.546330544012645,0.546330544012645,0.0,0,False
2023-07-09,0.546330544012645,0.546330544012645,0.0,0,False
2023-07-10,0.546330544012645,0.546330544012645,0.0,0,False
2023-07-11,0.546330544012645,0.546330544012645,0.0,0,False
2023-07-12,0.546330544012645,0.5452675506939776,-0.19456963011075246,1,True
2023-07-13,0.5452675506939776,0.5448167319694331,-0.08267844363206711,0,True
2023-07-14,0.5448167319694331,0.5448167319694331,0.0,0,False
2023-07-15,0.5448167319694331,0.5470449598980903,0.4089866918371765,6,True
2023-07-16,0.5470449598980903,0.5478818432272963,0.1529825499830606,1,True
2023-07-17,0.5478818432272963,0.5487778544235814,0.16354095456188045,0,True
2023-07-18,0.5487778544235814,0.5488429133292307,0.011855235251378993,2,True
2023-07-19,0.5488429133292307,0.5475418123809597,-0.23706253951221168,0,True
2023-07-20,0.5475418123809597,0.545466720834194,-0.37898321184681727,2,True
2023-07-21,0.545466720834194,0.5443358708785933,-0.20731786420834508,0,True
2023-07-22,0.5443358708785933,0.5443358708785933,0.0,0,False
2023-07-23,0.5443358708785933,0.5443358708785933,0.0,0,False
2023-07-24,0.5443358708785933,0.5399567230014437,-0.8044937163669386,4,True
2023-07-25,0.5399567230014437,0.5386953709831078,-0.23360242860287483,0,True
2023-07-26,0.5386953709831078,0.5386953709831078,0.0,0,False
2023-07-27,0.5386953709831078,0.5386953709831078,0.0,0,False
2023-07-28,0.5386953709831078,0.5386953709831078,0.0,0,False
2023-07-29,0.5386953709831078,0.5386953709831078,0.0,0,False
2023-07-30,0.5386953709831078,0.5386953709831078,0.0,0,False
2023-07-31,0.5386953709831078,0.5360105263058993,-0.4983975771517657,1,True
2023-08-01,0.5360105263058993,0.5335591921836554,-0.4573294743179912,2,True
2023-08-02,0.5335591921836554,0.537033191329161,0.6510991088519713,0,True
2023-08-03,0.537033191329161,0.537033191329161,0.0,0,False
2023-08-04,0.537033191329161,0.537033191329161,0.0,0,False
2023-08-05,0.537033191329161,0.537033191329161,0.0,0,False
2023-08-06,0.537033191329161,0.537033191329161,0.0,0,False
2023-08-07,0.537033191329161,0.5355491923894696,-0.2763328158579048,2,True
2023-08-08,0.5355491923894696,0.5299348755529217,-1.0483288774086996,4,True
2023-08-09,0.5299348755529217,0.5275094936952073,-0.45767545591028913,0,True
2023-08-10,0.5275094936952073,0.524878617743277,-0.49873528028868686,1,True
2023-08-11,0.524878617743277,0.524878617743277,0.0,0,False
2023-08-12,0.524878617743277,0.524878617743277,0.0,0,False
2023-08-13,0.524878617743277,0.5268465105975179,0.3749234180469685,1,True
2023-08-14,0.5268465105975179,0.5236424193148611,-0.6081640891998807,1,True
2023-08-15,0.5236424193148611,0.5236424193148611,0.0,0,False
2023-08-16,0.5236424193148611,0.5236854176118895,0.008211385373368962,6,True
2023-08-17,0.5236854176118895,0.5280250660104419,0.8286746685332691,5,True
2023-08-18,0.5280250660104419,0.5451922190885438,3.2512004037630993,6,True
2023-08-19,0.5451922190885438,0.5461534569833758,0.17631174128622806,0,True
2023-08-20,0.5461534569833758,0.5453338755664223,-0.15006431003483645,1,True
2023-08-21,0.5453338755664223,0.543980796614625,-0.2481193654789826,1,True
2023-08-22,0.543980796614625,0.5507631630055354,1.246802540295433,1,True
2023-08-23,0.5507631630055354,0.5514231650113404,0.1198340866159775,0,True
2023-08-24,0.5514231650113404,0.5514231650113404,0.0,0,False
2023-08-25,0.5514231650113404,0.5405506469923994,-1.9717194903694946,6,True
2023-08-26,0.5405506469923994,0.5398942882193617,-0.12142410275330917,0,True
2023-08-27,0.5398942882193617,0.5398942882193617,0.0,0,False
2023-08-28,0.5398942882193617,0.5363269166119661,-0.6607537225780336,2,True
2023-08-29,0.5363269166119661,0.539652064413366,0.6199852549644946,1,True
2023-08-30,0.539652064413366,0.5350961368780205,-0.844234245689035,2,True
2023-08-31,0.5350961368780205,0.5385389302059305,0.6433971562562091,2,True
2023-09-01,0.5385389302059305,0.5351053597359609,-0.637571450713259,1,True
2023-09-02,0.5351053597359609,0.5283531227972182,-1.2618518607390494,3,True
2023-09-03,0.5283531227972182,0.5274453152852066,-0.17181832998460767,0,True
2023-09-04,0.5274453152852066,0.5266913719732563,-0.1429424605928209,3,True
2023-09-05,0.5266913719732563,0.5266462941237482,-0.008558683871973116,0,True
2023-09-06,0.5266462941237482,0.5277622427531165,0.2118971768756195,4,True
2023-09-07,0.5277622427531165,0.5310980813587279,0.6320722354463681,3,True
2023-09-08,0.5310980813587279,0.5249543400897875,-1.156799748404791,4,True
2023-09-09,0.5249543400897875,0.5277763859806862,0.5375793045955257,4,True
2023-09-10,0.5277763859806862,0.5205290084223938,-1.373190948061409,5,True
2023-09-11,0.5205290084223938,0.5150967516980034,-1.0436030723540934,1,True
2023-09-12,0.5150967516980034,0.5136837639192401,-0.2743150241397263,2,True
2023-09-13,0.5136837639192401,0.5190263088768002,1.0400455168756428,2,True
2023-09-14,0.5190263088768002,0.5239125221759798,0.941419195060389,4,True
2023-09-15,0.5239125221759798,0.5315886766745175,1.4651595779112236,0,True
2023-09-16,0.5315886766745175,0.530285990001956,-0.24505538393156945,5,True
2023-09-17,0.530285990001956,0.5310094241438964,0.13642339333492792,2,True
2023-09-18,0.5310094241438964,0.5255105130569403,-1.0355580968871791,1,True
2023-09-19,0.5255105130569403,0.5255105130569403,0.0,0,False
2023-09-20,0.5255105130569403,0.526414991261972,0.17211419801486105,3,True
2023-09-21,0.526414991261972,0.5206190128564022,-1.1010283714897873,1,True
2023-09-22,0.5206190128564022,0.5234126708350133,0.5366031415724892,0,True
2023-09-23,0.5234126708350133,0.5234126708350133,0.0,0,False
2023-09-24,0.5234126708350133,0.5208014197562251,-0.49888954247562234,1,True
2023-09-25,0.5208014197562251,0.5206883093008967,-0.021718538206227933,1,True
2023-09-26,0.5206883093008967,0.521293734776362,0.11627406735483792,1,True
2023-09-27,0.521293734776362,0.5198438200868807,-0.27813775473501945,0,True
2023-09-28,0.5198438200868807,0.5198438200868807,0.0,0,False
2023-09-29,0.5198438200868807,0.5146757784715316,-0.9941527465855748,2,True
2023-09-30,0.5146757784715316,0.5146757784715316,0.0,0,False
2023-10-01,0.5146757784715316,0.514327066024831,-0.06775380954124888,1,True
2023-10-02,0.514327066024831,0.5178624004795476,0.6873708751205188,1,True
2023-10-03,0.5178624004795476,0.5161208549174259,-0.33629503908934044,2,True
2023-10-04,0.5161208549174259,0.5084498019640605,-1.486290057895967,5,True
2023-10-05,0.5084498019640605,0.5042350705599121,-0.8289375643116714,1,True
2023-10-06,0.5042350705599121,0.5042230952640268,-0.002374943074079372,0,True
2023-10-07,0.5042230952640268,0.5017096085121552,-0.4984870339101444,1,True
2023-10-08,0.5017096085121552,0.5008191012595379,-0.17749455810864845,1,True
2023-10-09,0.5008191012595379,0.4996565799129958,-0.23212400318166626,1,True
2023-10-10,0.4996565799129958,0.49671829834167586,-0.5880602176462024,1,True
2023-10-11,0.49671829834167586,0.49661307705966373,-0.02118329088407478,0,True
2023-10-12,0.49661307705966373,0.49661307705966373,0.0,0,False
2023-10-13,0.49661307705966373,0.49661307705966373,0.0,0,False
2023-10-14,0.49661307705966373,0.49661307705966373,0.0,0,False
2023-10-15,0.49661307705966373,0.4966360277399826,0.0046214409928024835,1,True
2023-10-16,0.4966360277399826,0.49812278006369093,0.29936457297994323,2,True
2023-10-17,0.49812278006369093,0.4992882275815594,0.23396792206922257,2,True
2023-10-18,0.4992882275815594,0.49337658081006014,-1.1840148525299576,3,True
2023-10-19,0.49337658081006014,0.4858244527200867,-1.5307025877827174,4,True
2023-10-20,0.4858244527200867,0.48457971312077264,-0.25621180497293894,0,True
2023-10-21,0.48457971312077264,0.4849487782991409,0.07616191276176298,2,True
2023-10-22,0.4849487782991409,0.4876891508491902,0.565084947664074,1,True
2023-10-23,0.4876891508491902,0.4876891508491902,0.0,0,False
2023-10-24,0.4876891508491902,0.4864081527470854,-0.2626669262324688,4,True
2023-10-25,0.4864081527470854,0.4999101877978165,2.7758652840162545,6,True
2023-10-26,0.4999101877978165,0.5080434694490493,1.626948569914366,2,True
2023-10-27,0.5080434694490493,0.5055078979292882,-0.4990855452803755,4,True
2023-10-28,0.5055078979292882,0.5052788212195665,-0.045316148503338205,1,True
2023-10-29,0.5052788212195665,0.5062385496109255,0.1899403559093571,0,True
2023-10-30,0.5062385496109255,0.5049122090131926,-0.26199913040054756,2,True
2023-10-31,0.5049122090131926,0.4945961199148472,-2.043145108039135,5,True
2023-11-01,0.4945961199148472,0.4906768528935197,-0.7924176643363645,4,True
2023-11-02,0.4906768528935197,0.4899259147570623,-0.1530412800255565,3,True
2023-11-03,0.4899259147570623,0.48706277397087183,-0.5844028045771443,1,True
2023-11-04,0.48706277397087183,0.4880556757016194,0.20385498211097364,1,True
2023-11-05,0.4880556757016194,0.48767537151617163,-0.07792229542276097,4,True
2023-11-06,0.48767537151617163,0.48286014582280873,-0.9873834059719866,3,True
2023-11-07,0.48286014582280873,0.4779578360108692,-1.0152649487328969,5,True
2023-11-08,0.4779578360108692,0.4787260860805385,0.1607359502840744,0,True
2023-11-09,0.4787260860805385,0.48317331531959057,0.9289715702486046,3,True
2023-11-10,0.48317331531959057,0.47486023205587086,-1.7205178763278983,5,True
2023-11-11,0.47486023205587086,0.47583994979652317,0.2063170749023735,3,True
2023-11-12,0.47583994979652317,0.48323080667654295,1.5532232808910251,4,True
2023-11-13,0.48323080667654295,0.48017973144804743,-0.6313908770592458,3,True
2023-11-14,0.48017973144804743,0.4803797619831746,0.04165742992190413,4,True
2023-11-15,0.4803797619831746,0.4755879058290078,-0.9975141613760674,1,True
2023-11-16,0.4755879058290078,0.4689710446855846,-1.3913013897797089,3,True
2023-11-17,0.4689710446855846,0.4664577762850182,-0.5359112100942975,3,True
2023-11-18,0.4664577762850182,0.4646994675444534,-0.37694917524334626,3,True
2023-11-19,0.4646994675444534,0.4591729282134179,-1.1892717158120791,3,True
2023-11-20,0.4591729282134179,0.46035340952787157,0.2570886134439121,1,True
2023-11-21,0.46035340952787157,0.45023341795684774,-2.1983092471070553,4,True
2023-11-22,0.45023341795684774,0.4500938460565332,-0.030999897996897285,4,True
2023-11-23,0.4500938460565332,0.4500425449132792,-0.01139787706573303,3,True
2023-11-24,0.4500425449132792,0.45775049550446395,1.7127159817012405,1,True
2023-11-25,0.45775049550446395,0.4586830509375872,0.20372570696958192,4,True
2023-11-26,0.4586830509375872,0.4586672167192631,-0.00345210451787592,0,True
2023-11-27,0.4586672167192631,0.4564804820424218,-0.47675844209718043,2,True
2023-11-28,0.4564804820424218,0.45821190813954193,0.3792990423978848,3,True
2023-11-29,0.45821190813954193,0.4626712949277778,0.9732149490270015,3,True
2023-11-30,0.4626712949277778,0.4599226037367321,-0.5940915767153387,0,True
2023-12-01,0.4599226037367321,0.4599226037367321,0.0,0,False
2023-12-02,0.4599226037367321,0.4599226037367321,0.0,0,False
2023-12-03,0.4599226037367321,0.4604582743074286,0.1164697204147691,1,True
2023-12-04,0.4604582743074286,0.46526066239047814,1.0429583636590634,3,True
2023-12-05,0.46526066239047814,0.4688879007183465,0.7796142294153707,4,True
2023-12-06,0.4688879007183465,0.45865734648263834,-2.1818763546755493,4,True
2023-12-07,0.45865734648263834,0.4590213417366263,0.07936104300505509,4,True
2023-12-08,0.4590213417366263,0.45725492251522093,-0.38482289619092835,1,True
2023-12-09,0.45725492251522093,0.45955266284482427,0.5025075109009514,0,True
2023-12-10,0.45955266284482427,0.4586274056917365,-0.20133865558737973,3,True
2023-12-11,0.4586274056917365,0.46001537940491133,0.3026364530225534,6,True
2023-12-12,0.46001537940491133,0.46495537593521913,1.073876385763084,0,True
2023-12-13,0.46495537593521913,0.46289831781590957,-0.44242054738521386,5,True
2023-12-14,0.46289831781590957,0.46785419012553847,1.0706179130250737,1,True
2023-12-15,0.46785419012553847,0.4639181107529409,-0.8413047175106825,2,True
2023-12-16,0.4639181107529409,0.4786716820533324,3.180210247978099,4,True
2023-12-17,0.4786716820533324,0.47057617953506636,-1.6912432512278919,2,True
2023-12-18,0.47057617953506636,0.46847180746713213,-0.4471905207810045,7,True
2023-12-19,0.46847180746713213,0.4705471048628749,0.44299301743753183,4,True
2023-12-20,0.4705471048628749,0.4720355890634303,0.3163305405925687,2,True
2023-12-21,0.4720355890634303,0.46820591702502407,-0.8113100213491764,1,True
2023-12-22,0.46820591702502407,0.4642816201279304,-0.838156194613815,1,True
2023-12-23,0.4642816201279304,0.4641404140367232,-0.030413887839952913,1,True
2023-12-24,0.4641404140367232,0.4789328611046101,3.187062927624429,2,True
2023-12-25,0.4789328611046101,0.47732660659065035,-0.33538198031662914,1,True
2023-12-26,0.47732660659065035,0.47538807916231596,-0.4061218045607218,1,True
2023-12-27,0.47538807916231596,0.47081953529035364,-0.9610135533925424,11,True
2023-12-28,0.47081953529035364,0.47285180608557525,0.43164538488580373,1,True
2023-12-29,0.47285180608557525,0.47988445579229433,1.4872840953992883,1,True
2023-12-30,0.47988445579229433,0.4814994417259284,0.3365364129095827,3,True
2023-12-31,0.4814994417259284,0.4789839682647685,-0.5224250005655628,2,True
