day,start_equity,end_equity,return_pct,entries,active
2024-01-02,1.0111757462734035,1.0150980372001075,0.38789408677564197,1,True
2024-01-03,1.0150980372001075,1.0075626974381249,-0.7423263060154173,10,True
2024-01-04,1.0075626974381249,1.0295438755116384,2.181618883807812,4,True
2024-01-05,1.0295438755116384,1.0151055856784226,-1.4023967483698163,8,True
2024-01-06,1.0151055856784226,1.0248100643177254,0.9560068209867101,7,True
2024-01-07,1.0248100643177254,1.0556876935642368,3.0130099539048105,8,True
2024-01-08,1.0556876935642368,1.028408184652501,-2.5840510482445844,13,True
2024-01-09,1.028408184652501,1.028612572135681,0.0198741595244023,4,True
2024-01-10,1.028612572135681,0.9958785560211557,-3.182346492864696,6,True
2024-01-11,0.9958785560211557,1.0293622686558443,3.362228499875175,5,True
2024-01-12,1.0293622686558443,1.0218420491168971,-0.7305707395674488,6,True
2024-01-13,1.0218420491168971,1.0228927101036616,0.10282029279109484,8,True
2024-01-14,1.0228927101036616,1.0215293230875933,-0.1332873919817179,0,True
2024-01-15,1.0215293230875933,1.0299054701742039,0.8199614927639542,4,True
2024-01-16,1.0299054701742039,1.0233508333464676,-0.6364309169682891,1,True
2024-01-17,1.0233508333464676,1.0317506920289654,0.8208190591910025,0,True
2024-01-18,1.0317506920289654,1.0254038371385048,-0.6151539261853411,2,True
2024-01-19,1.0254038371385048,1.0163750340723448,-0.8805119250729354,1,True
2024-01-20,1.0163750340723448,1.0434093076752953,2.659871867831254,7,True
2024-01-21,1.0434093076752953,1.0404393674550743,-0.28463808002997526,3,True
2024-01-22,1.0404393674550743,1.0136167363419752,-2.5780100169323084,4,True
2024-01-23,1.0136167363419752,0.9763892341359364,-3.6727394952443815,10,True
2024-01-24,0.9763892341359364,0.9757709017801858,-0.06332846923469138,1,True
2024-01-25,0.9757709017801858,0.9610396903624355,-1.509699806673348,4,True
2024-01-26,0.9610396903624355,0.9563849208393864,-0.48434727199390126,0,True
2024-01-27,0.9563849208393864,0.9563849208393864,0.0,0,False
2024-01-28,0.9563849208393864,0.9519237079196083,-0.4664662545978526,2,True
2024-01-29,0.9519237079196083,0.9518169242962753,-0.0112176661264618,0,True
2024-01-30,0.9518169242962753,0.9518169242962753,0.0,0,False
2024-01-31,0.9518169242962753,0.9470759861692327,-0.4980934889918909,1,True
2024-02-01,0.9470759861692327,0.9470759861692327,0.0,0,False
2024-02-02,0.9470759861692327,0.9472864138036816,0.022218664343931493,3,True
2024-02-03,0.9472864138036816,0.9524799781277453,0.5482570264266462,1,True
2024-02-04,0.9524799781277453,0.9538779191654522,0.14676854840085518,1,True
2024-02-05,0.9538779191654522,0.9538779191654522,0.0,0,False
2024-02-06,0.9538779191654522,0.9467095239775435,-0.7515002752323197,2,True
2024-02-07,0.9467095239775435,0.9397066909223405,-0.7397023984485718,5,True
2024-02-08,0.9397066909223405,0.9755804724284104,3.8175509286689335,1,True
2024-02-09,0.9755804724284104,0.9952398951247351,2.0151513126732246,0,True
2024-02-10,0.9952398951247351,0.9889112602695443,-0.6358903904668756,2,True
2024-02-11,0.9889112602695443,0.986061121000902,-0.2882098104399655,0,True
2024-02-12,0.986061121000902,0.989263887306306,0.3248040346781833,3,True
2024-02-13,0.989263887306306,0.991171875317159,0.1928694694444344,0,True
2024-02-14,0.991171875317159,0.9938408114968388,0.26927077393370524,2,True
2024-02-15,0.9938408114968388,0.9914365914674642,-0.24191198445085993,6,True
2024-02-16,0.9914365914674642,0.9954873894644554,0.4085786253859469,5,True
2024-02-17,0.9954873894644554,0.9722719629167083,-2.3320663620094995,5,True
2024-02-18,0.9722719629167083,0.9658278469089882,-0.6627894512548194,4,True
2024-02-19,0.9658278469089882,0.9593084316060145,-0.6750080072590814,6,True
2024-02-20,0.9593084316060145,0.9501905345509131,-0.9504656432381076,9,True
2024-02-21,0.9501905345509131,0.930961151648282,-2.0237396820332987,7,True
2024-02-22,0.930961151648282,0.9561520002214388,2.7058968603100197,3,True
2024-02-23,0.9561520002214388,0.9414487432426143,-1.537753095263017,7,True
2024-02-24,0.9414487432426143,0.9460111423899734,0.4846147153635627,8,True
2024-02-25,0.9460111423899734,0.9547940444953774,0.9284142344470947,8,True
2024-02-26,0.9547940444953774,0.9644319259764962,1.0094199410525695,7,True
2024-02-27,0.9644319259764962,0.9664919948806817,0.21360438706958806,4,True
2024-02-28,0.9664919948806817,1.014371290007134,4.953925679680693,6,True
2024-02-29,1.014371290007134,1.0432526972825225,2.847222467740118,13,True
2024-03-01,1.0432526972825225,1.0577156383648811,1.386331530225804,8,True
2024-03-02,1.0577156383648811,1.0633733500691855,0.5348991259173097,9,True
2024-03-03,1.0633733500691855,1.0664040802195263,0.2850109183330174,10,True
2024-03-04,1.0664040802195263,1.1273334106187725,5.713531252309489,4,True
2024-03-05,1.1273334106187725,1.1083179968023598,-1.6867604239614864,9,True
2024-03-06,1.1083179968023598,1.071810329365316,-3.2939704617603427,21,True
2024-03-07,1.071810329365316,1.0745002589678148,0.25097067352313207,9,True
2024-03-08,1.0745002589678148,1.073441302826686,-0.09855336304395168,6,True
2024-03-09,1.073441302826686,1.0792337327459072,0.539613102641745,7,True
2024-03-10,1.0792337327459072,1.103803129850177,2.276559410514123,7,True
2024-03-11,1.103803129850177,1.1256124586580374,1.9758350214879927,8,True
2024-03-12,1.1256124586580374,1.131552635350534,0.5277284065937415,5,True
2024-03-13,1.131552635350534,1.112538165427324,-1.6803875780219135,6,True
2024-03-14,1.112538165427324,1.113932748336555,0.12535146681420528,5,True
2024-03-15,1.113932748336555,1.0845149414343855,-2.640896135435411,16,True
2024-03-16,1.0845149414343855,1.1021131399321824,1.6226792112722155,2,True
2024-03-17,1.1021131399321824,1.07269569819927,-2.669185282984887,9,True
2024-03-18,1.07269569819927,1.0830231402009582,0.9627559818711884,4,True
2024-03-19,1.0830231402009582,1.0537197393319975,-2.7057040409610655,17,True
2024-03-20,1.0537197393319975,1.0462453700801309,-0.70933180549555,5,True
2024-03-21,1.0462453700801309,1.0724717789994311,2.5067168438023035,6,True
2024-03-22,1.0724717789994311,1.0656478364328719,-0.6362817838363788,8,True
2024-03-23,1.0656478364328719,1.0923776213951013,2.5083131639157763,5,True
2024-03-24,1.0923776213951013,1.0785233308692963,-1.2682693470149387,6,True
2024-03-25,1.0785233308692963,1.1047014052843482,2.427214476107098,4,True
2024-03-26,1.1047014052843482,1.1548725325859128,4.541600749448738,8,True
2024-03-27,1.1548725325859128,1.1411605486327125,-1.1873157916828525,7,True
2024-03-28,1.1411605486327125,1.1081420986371837,-2.893409699020011,6,True
2024-03-29,1.1081420986371837,1.0800322906311486,-2.5366609607743618,7,True
2024-03-30,1.0800322906311486,1.0653067139668317,-1.363438555685359,2,True
2024-03-31,1.0653067139668317,1.059994663635141,-0.49864046307476206,1,True
2024-04-01,1.059994663635141,1.0524891036660058,-0.7080752598692897,6,True
2024-04-02,1.0524891036660058,1.0384683624835092,-1.3321507209585248,9,True
2024-04-03,1.0384683624835092,1.0486705192753847,0.9824234575116941,4,True
2024-04-04,1.0486705192753847,1.0443090896647107,-0.4159008506969042,3,True
2024-04-05,1.0443090896647107,1.0140662087523287,-2.8959702842471624,5,True
2024-04-06,1.0140662087523287,0.9993840325764839,-1.447851831480429,3,True
2024-04-07,0.9993840325764839,1.025816464217461,2.6448723192857404,4,True
2024-04-08,1.025816464217461,0.9983048544913418,-2.6819231983282954,2,True
2024-04-09,0.9983048544913418,0.9834529522164104,-1.487712116004758,3,True
2024-04-10,0.9834529522164104,0.9730078358652995,-1.062086023288733,7,True
2024-04-11,0.9730078358652995,0.9946729018738852,2.2266075575145816,1,True
2024-04-12,0.9946729018738852,0.9887846455594104,-0.591979162534928,9,True
2024-04-13,0.9887846455594104,0.9575294452718033,-3.1609714438804115,13,True
2024-04-14,0.9575294452718033,0.9139608353683271,-4.550106539137177,20,True
2024-04-15,0.9139608353683271,0.9309012584747745,1.8535173993117882,2,True
2024-04-16,0.9309012584747745,0.9220301051053846,-0.9529639463507267,1,True
2024-04-17,0.9220301051053846,0.9151131634373026,-0.7501860980224095,1,True
2024-04-18,0.9151131634373026,0.9462921813709055,3.4071215647789144,1,True
2024-04-19,0.9462921813709055,0.9961047797996376,5.263976540159931,10,True
2024-04-20,0.9961047797996376,1.0016620663254185,0.5579018029507665,0,True
2024-04-21,1.0016620663254185,1.0016620663254185,0.0,0,False
2024-04-22,1.0016620663254185,1.0016620663254185,0.0,0,False
2024-04-23,1.0016620663254185,1.009331734675954,0.7656942005073164,4,True
2024-04-24,1.009331734675954,0.9976174304651335,-1.1606000097263758,5,True
2024-04-25,0.9976174304651335,0.9817616064710734,-1.589369181998701,4,True
2024-04-26,0.9817616064710734,0.976978142032835,-0.4872327871358162,1,True
2024-04-27,0.976978142032835,0.9776351392804888,0.06724789628218542,6,True
2024-04-28,0.9776351392804888,0.9881326511388753,1.0737658085931967,3,True
2024-04-29,0.9881326511388753,0.9942749585723277,0.6216075773200158,3,True
2024-04-30,0.9942749585723277,0.984943894799985,-0.9384792095881722,2,True
2024-05-01,0.984943894799985,0.9719989431838663,-1.314283146934736,6,True
2024-05-02,0.9719989431838663,0.9795803825775571,0.7799843247624505,4,True
2024-05-03,0.9795803825775571,0.9897276804871178,1.035882107281516,3,True
2024-05-04,0.9897276804871178,0.9909001928704041,0.11846818133947057,0,True
2024-05-05,0.9909001928704041,0.9859680466143937,-0.49774400000095476,1,True
2024-05-06,0.9859680466143937,0.981051824279765,-0.49861882963753157,1,True
2024-05-07,0.981051824279765,0.9814882898981184,0.044489557794147316,4,True
2024-05-08,0.9814882898981184,0.9815452237832953,0.00580077070331253,3,True
2024-05-09,0.9815452237832953,0.9568075967626033,-2.5202737908848083,10,True
2024-05-10,0.9568075967626033,0.9478745217233996,-0.9336333730448176,4,True
2024-05-11,0.9478745217233996,0.9312215488755079,-1.756875247328482,4,True
2024-05-12,0.9312215488755079,0.9256134536303637,-0.6022299690032096,0,True
2024-05-13,0.9256134536303637,0.9258658249358408,0.027265302215218057,4,True
2024-05-14,0.9258658249358408,0.9054534810561121,-2.204676242493686,3,True
2024-05-15,0.9054534810561121,0.889828413955042,-1.725662049788046,3,True
2024-05-16,0.889828413955042,0.8685578879977057,-2.390407591368615,4,True
2024-05-17,0.8685578879977057,0.8673024626224809,-0.14454135902431942,1,True
2024-05-18,0.8673024626224809,0.8800114076603752,1.4653417447318295,2,True
2024-05-19,0.8800114076603752,0.8783638952418503,-0.1872148933733775,0,True
2024-05-20,0.8783638952418503,0.8892350480645829,1.2376593438803818,2,True
2024-05-21,0.8892350480645829,0.8830385588888248,-0.6968336649848417,4,True
2024-05-22,0.8830385588888248,0.8890744582590512,0.6835374638477498,1,True
2024-05-23,0.8890744582590512,0.8901261629379973,0.1182920810710808,7,True
2024-05-24,0.8901261629379973,0.9038534573566663,1.5421740187211208,5,True
2024-05-25,0.9038534573566663,0.8930746637226109,-1.1925377445120566,3,True
2024-05-26,0.8930746637226109,0.9034485767905115,1.161595271850957,3,True
2024-05-27,0.9034485767905115,0.9206358583849392,1.9024083977734918,4,True
2024-05-28,0.9206358583849392,0.9288434251199919,0.8915106510679616,2,True
2024-05-29,0.9288434251199919,0.9192610045662888,-1.0316507922166984,4,True
2024-05-30,0.9192610045662888,0.8909259251001549,-3.0823758786007183,6,True
2024-05-31,0.8909259251001549,0.8726938212189422,-2.0464219715194742,3,True
2024-06-01,0.8726938212189422,0.8637424563945704,-1.0257165350235908,3,True
2024-06-02,0.8637424563945704,0.8549915050136884,-1.0131435957669854,4,True
2024-06-03,0.8549915050136884,0.841240571554162,-1.6083122906941916,12,True
2024-06-04,0.841240571554162,0.81669738952805,-2.91749861526166,7,True
2024-06-05,0.81669738952805,0.8167225851127722,0.0030850575801100177,0,True
2024-06-06,0.8167225851127722,0.8105073365693667,-0.7609987352740211,3,True
2024-06-07,0.8105073365693667,0.8094095696807975,-0.13544194346416516,0,True
2024-06-08,0.8094095696807975,0.8374164253196438,3.4601586993703526,9,True
2024-06-09,0.8374164253196438,0.8386330142621891,0.14527884882133968,3,True
2024-06-10,0.8386330142621891,0.8303691688080166,-0.9853947213660286,0,True
2024-06-11,0.8303691688080166,0.8145460218876699,-1.9055556871241497,4,True
2024-06-12,0.8145460218876699,0.8076684943186293,-0.8443387339983843,4,True
2024-06-13,0.8076684943186293,0.8038982010865124,-0.466811972812875,4,True
2024-06-14,0.8038982010865124,0.7838266178941794,-2.496781702609263,6,True
2024-06-15,0.7838266178941794,0.7932883715952835,1.2071232955221722,5,True
2024-06-16,0.7932883715952835,0.7946520743403449,0.17190504662496497,0,True
2024-06-17,0.7946520743403449,0.7788417063622748,-1.9895962633954767,4,True
2024-06-18,0.7788417063622748,0.7822998340875823,0.44400905820252135,6,True
2024-06-19,0.7822998340875823,0.7734248449226805,-1.1344741208149323,3,True
2024-06-20,0.7734248449226805,0.7786618010740216,0.6771124803812922,1,True
2024-06-21,0.7786618010740216,0.7746897376231541,-0.5101140758913325,1,True
2024-06-22,0.7746897376231541,0.7675875232491216,-0.9167817810292633,3,True
2024-06-23,0.7675875232491216,0.773043116850396,0.7107454767088184,2,True
2024-06-24,0.773043116850396,0.7804619940596671,0.959697725464248,2,True
2024-06-25,0.7804619940596671,0.7898180248493729,1.1987810887547967,1,True
2024-06-26,0.7898180248493729,0.7919055303705534,0.2643020867469703,0,True
2024-06-27,0.7919055303705534,0.7884405597830326,-0.43754847701334976,2,True
2024-06-28,0.7884405597830326,0.7817118337605146,-0.8534221050689905,2,True
2024-06-29,0.7817118337605146,0.7592641879903761,-2.871601119577716,7,True
2024-06-30,0.7592641879903761,0.7695010982004375,1.3482672266100781,0,True
2024-07-01,0.7695010982004375,0.7618666394447936,-0.9921309759658548,2,True
2024-07-02,0.7618666394447936,0.7618666394447936,0.0,0,False
2024-07-03,0.7618666394447936,0.7580807085612447,-0.4969282926350349,1,True
2024-07-04,0.7580807085612447,0.7416408260219944,-2.168619034040764,5,True
2024-07-05,0.7416408260219944,0.6986046336435793,-5.802834858654194,19,True
2024-07-06,0.6986046336435793,0.7091320163793173,1.5069156757281155,1,True
2024-07-07,0.7091320163793173,0.7062772352903881,-0.4025739951081575,2,True
2024-07-08,0.7062772352903881,0.7113482819021597,0.7179966107341063,2,True
2024-07-09,0.7113482819021597,0.7284178442115969,2.3996068794589487,2,True
2024-07-10,0.7284178442115969,0.7301651991675303,0.23988360112521256,1,True
2024-07-11,0.7301651991675303,0.7208549423692582,-1.2750890906450874,3,True
2024-07-12,0.7208549423692582,0.7209084089681833,0.007417109293772484,0,True
2024-07-13,0.7209084089681833,0.7164152857338515,-0.6232585413676439,2,True
2024-07-14,0.7164152857338515,0.716324169641677,-0.012718334461714331,3,True
2024-07-15,0.716324169641677,0.716324169641677,0.0,0,False
2024-07-16,0.716324169641677,0.7056324637508241,-1.4925792460976361,3,True
2024-07-17,0.7056324637508241,0.7077888521258796,0.30559653726716096,2,True
2024-07-18,0.7077888521258796,0.709164337419828,0.1943355408632108,0,True
2024-07-19,0.709164337419828,0.7080549862448747,-0.15643076173139647,2,True
2024-07-20,0.7080549862448747,0.7074042008822079,-0.09191169828747237,3,True
2024-07-21,0.7074042008822079,0.7118419246297029,0.6273250486724002,1,True
2024-07-22,0.7118419246297029,0.7105614780799651,-0.17987793433266175,1,True
2024-07-23,0.7105614780799651,0.7070436856712361,-0.49507220940748775,3,True
2024-07-24,0.7070436856712361,0.7017664372489363,-0.7463822291673305,1,True
2024-07-25,0.7017664372489363,0.6965056234307051,-0.7496530952455616,3,True
2024-07-26,0.6965056234307051,0.6865657524952407,-1.4271056257241233,1,True
2024-07-27,0.6865657524952407,0.6906430086524517,0.5938624439673301,1,True
2024-07-28,0.6906430086524517,0.6764888640688324,-2.0494154586804814,3,True
2024-07-29,0.6764888640688324,0.6764888640688324,0.0,0,False
2024-07-30,0.6764888640688324,0.6729100965086604,-0.5290209122803535,2,True
2024-07-31,0.6729100965086604,0.6644392938064356,-1.258831268274152,8,True
2024-08-01,0.6644392938064356,0.655704217169815,-1.3146538318917322,1,True
2024-08-02,0.655704217169815,0.6427077798556676,-1.9820579117583281,4,True
2024-08-03,0.6427077798556676,0.6439999055831198,0.2010440464470964,9,True
2024-08-04,0.6439999055831198,0.6128846574497515,-4.831560977512028,6,True
2024-08-05,0.6128846574497515,0.598165660058388,-2.40159338506043,19,True
2024-08-06,0.598165660058388,0.6085753620125263,1.7402707392333738,0,True
2024-08-07,0.6085753620125263,0.6082781994884693,-0.04882920712963035,1,True
2024-08-08,0.6082781994884693,0.6055441638162662,-0.4494712574776294,0,True
2024-08-09,0.6055441638162662,0.6055441638162662,0.0,0,False
2024-08-10,0.6055441638162662,0.6055441638162662,0.0,0,False
2024-08-11,0.6055441638162662,0.6025197264824781,-0.4994577628702479,1,True
2024-08-12,0.6025197264824781,0.6101757046932756,1.2706601749777224,3,True
2024-08-13,0.6101757046932756,0.6034530731588471,-1.1017533937716983,0,True
2024-08-14,0.6034530731588471,0.6034530731588471,0.0,0,False
2024-08-15,0.6034530731588471,0.6034530731588471,0.0,0,False
2024-08-16,0.6034530731588471,0.6034530731588471,0.0,0,False
2024-08-17,0.6034530731588471,0.6293282727719756,4.287856133979329,1,True
2024-08-18,0.6293282727719756,0.6473770725726969,2.8679467587277685,4,True
2024-08-19,0.6473770725726969,0.630759833308816,-2.5668563141792333,6,True
2024-08-20,0.630759833308816,0.6287181038840989,-0.3236936337570384,4,True
2024-08-21,0.6287181038840989,0.6279498218595385,-0.12219817113807707,1,True
2024-08-22,0.6279498218595385,0.6309238650609451,0.4736116004618873,2,True
2024-08-23,0.6309238650609451,0.6313869916413959,0.07340451139949966,0,True
2024-08-24,0.6313869916413959,0.6305631237799844,-0.1304854031391689,3,True
2024-08-25,0.6305631237799844,0.6295295210053138,-0.1639174153531986,2,True
2024-08-26,0.6295295210053138,0.6236064301776976,-0.9408757858022976,2,True
2024-08-27,0.6236064301776976,0.6235215462494952,-0.013611778855171508,1,True
2024-08-28,0.6235215462494952,0.6204339919794873,-0.49518004447153263,4,True
2024-08-29,0.6204339919794873,0.618533685140113,-0.30628670639264444,3,True
2024-08-30,0.618533685140113,0.621145406162809,0.42224394328731485,0,True
2024-08-31,0.621145406162809,0.621145406162809,0.0,0,False
2024-09-01,0.621145406162809,0.6180551874311389,-0.4975032739532481,1,True
2024-09-02,0.6180551874311389,0.6194280069324695,0.2221192426256513,1,True
2024-09-03,0.6194280069324695,0.618610549164673,-0.13196977835160384,1,True
2024-09-04,0.618610549164673,0.6182306150634886,-0.061417333037294686,0,True
2024-09-05,0.6182306150634886,0.6138944168867598,-0.7013884578141671,2,True
2024-09-06,0.6138944168867598,0.6142084382681665,0.05115234359014398,1,True
2024-09-07,0.6142084382681665,0.6112833545226388,-0.4762363333488673,0,True
2024-09-08,0.6112833545226388,0.6112833545226388,0.0,0,False
2024-09-09,0.6112833545226388,0.6112833545226388,0.0,0,False
2024-09-10,0.6112833545226388,0.6112833545226388,0.0,0,False
2024-09-11,0.6112833545226388,0.605211237822895,-0.9933391208542974,2,True
2024-09-12,0.605211237822895,0.605211237822895,0.0,0,False
2024-09-13,0.605211237822895,0.6072381442717312,0.33490892471321754,2,True
2024-09-14,0.6072381442717312,0.6051429210135435,-0.3450414434522209,0,True
2024-09-15,0.6051429210135435,0.6092878268102484,0.6849465891070272,3,True
2024-09-16,0.6092878268102484,0.6013213599719611,-1.3075046780424704,1,True
2024-09-17,0.6013213599719611,0.5983262689046578,-0.4980849287381073,1,True
2024-09-18,0.5983262689046578,0.589363960483458,-1.4978965302003044,3,True
2024-09-19,0.589363960483458,0.5906497618658104,0.21816762960831237,2,True
2024-09-20,0.5906497618658104,0.5956271733336742,0.8427010030683135,3,True
2024-09-21,0.5956271733336742,0.5862525678559835,-1.5739049354014378,7,True
2024-09-22,0.5862525678559835,0.5863435343400921,0.015516603098442161,3,True
2024-09-23,0.5863435343400921,0.5880862509544267,0.29721767398627197,1,True
2024-09-24,0.5880862509544267,0.5862548251294476,-0.3114212961120577,0,True
2024-09-25,0.5862548251294476,0.5862548251294476,0.0,0,False
2024-09-26,0.5862548251294476,0.5862548251294476,0.0,0,False
2024-09-27,0.5862548251294476,0.5833314428732738,-0.4986538499752835,1,True
2024-09-28,0.5833314428732738,0.5833314428732738,0.0,0,False
2024-09-29,0.5833314428732738,0.5833314428732738,0.0,0,False
2024-09-30,0.5833314428732738,0.5790308613833539,-0.73724493038414,2,True
2024-10-01,0.5790308613833539,0.5813879604133214,0.4070765803978471,0,True
2024-10-02,0.5813879604133214,0.5630910987529476,-3.1471001992139924,13,True
2024-10-03,0.5630910987529476,0.5655796138907246,0.4419382837498764,3,True
2024-10-04,0.5655796138907246,0.5659613739000211,0.06749889846104917,3,True
2024-10-05,0.5659613739000211,0.5637515782441215,-0.3904499066203049,0,True
2024-10-06,0.5637515782441215,0.5637515782441215,0.0,0,False
2024-10-07,0.5637515782441215,0.5637515782441215,0.0,0,False
2024-10-08,0.5637515782441215,0.5581345693943791,-0.9963624168001894,2,True
2024-10-09,0.5581345693943791,0.5581345693943791,0.0,0,False
2024-10-10,0.5581345693943791,0.5581345693943791,0.0,0,False
2024-10-11,0.5581345693943791,0.557330067986537,-0.1441411179234242,1,True
2024-10-12,0.557330067986537,0.5561241298586715,-0.21637772607928651,1,True
2024-10-13,0.5561241298586715,0.5551314361240512,-0.17850218706974008,0,True
2024-10-14,0.5551314361240512,0.5551314361240512,0.0,0,False
2024-10-15,0.5551314361240512,0.5471101500530835,-1.444934577471002,4,True
2024-10-16,0.5471101500530835,0.539432800478642,-1.4032548242244536,5,True
2024-10-17,0.539432800478642,0.536738309670312,-0.4995044435449847,2,True
2024-10-18,0.536738309670312,0.5478647827329127,2.072979115173479,4,True
2024-10-19,0.5478647827329127,0.5448429142659486,-0.5515719502703242,3,True
2024-10-20,0.5448429142659486,0.5487869218917354,0.7238797683733367,3,True
2024-10-21,0.5487869218917354,0.5420051699256522,-1.2357714252201335,4,True
2024-10-22,0.5420051699256522,0.5490314325180833,1.2963460465506005,3,True
2024-10-23,0.5490314325180833,0.5346059150660848,-2.627448375011454,4,True
2024-10-24,0.5346059150660848,0.5268578788367235,-1.4492986349399994,3,True
2024-10-25,0.5268578788367235,0.522302874714638,-0.8645603121932521,3,True
2024-10-26,0.522302874714638,0.5107555820849361,-2.210842250487477,10,True
2024-10-27,0.5107555820849361,0.5187241064763204,1.560144356887161,1,True
2024-10-28,0.5187241064763204,0.5161389573899233,-0.4983668686535325,1,True
2024-10-29,0.5161389573899233,0.5304788842671636,2.778307405772318,2,True
2024-10-30,0.5304788842671636,0.5331199004507012,0.4978551007145393,0,True
2024-10-31,0.5331199004507012,0.5310663065129058,-0.3852030164432696,1,True
2024-11-01,0.5310663065129058,0.5293319004686516,-0.32658935861372695,3,True
2024-11-02,0.5293319004686516,0.5228344300388541,-1.2274851419392885,1,True
2024-11-03,0.5228344300388541,0.5158601144068096,-1.3339434496550395,3,True
2024-11-04,0.5158601144068096,0.5240578079480956,1.5891311059612834,4,True
2024-11-05,0.5240578079480956,0.5171673655267158,-1.3148248755912584,1,True
2024-11-06,0.5171673655267158,0.5216557886478468,0.8678859921023241,3,True
2024-11-07,0.5216557886478468,0.5193345569072658,-0.4449738296967265,4,True
2024-11-08,0.5193345569072658,0.5142152155446936,-0.9857501863651863,2,True
2024-11-09,0.5142152155446936,0.5161238679963298,0.3711777469700861,2,True
2024-11-10,0.5161238679963298,0.5266032430484907,2.0303992320377384,7,True
2024-11-11,0.5266032430484907,0.5163582452555826,-1.9454870299696836,8,True
2024-11-12,0.5163582452555826,0.5092018986221404,-1.3859266699421169,9,True
2024-11-13,0.5092018986221404,0.5216011684674888,2.435039986869625,6,True
2024-11-14,0.5216011684674888,0.5176419630667279,-0.7590484147866117,7,True
2024-11-15,0.5176419630667279,0.5241054958624326,1.2486493091502737,8,True
2024-11-16,0.5241054958624326,0.5338815681521303,1.8652871162151863,8,True
2024-11-17,0.5338815681521303,0.5273979229600598,-1.2144351067431725,8,True
2024-11-18,0.5273979229600598,0.5355262053588861,1.54120485594742,6,True
2024-11-19,0.5355262053588861,0.5312599447273343,-0.796648341175521,6,True
2024-11-20,0.5312599447273343,0.5255240766143087,-1.0796726103582954,3,True
2024-11-21,0.5255240766143087,0.5375601258466312,2.2902945398552976,6,True
2024-11-22,0.5375601258466312,0.534118072938634,-0.6403103099539065,4,True
2024-11-23,0.534118072938634,0.561688898231008,5.161934540182034,1,True
2024-11-24,0.561688898231008,0.5552695493377576,-1.1428655459396753,15,True
2024-11-25,0.5552695493377576,0.5742081223675204,3.4106990113810243,1,True
2024-11-26,0.5742081223675204,0.5538858846466269,-3.5391762897924117,12,True
2024-11-27,0.5538858846466269,0.5598904890987852,1.0840869245095863,3,True
2024-11-28,0.5598904890987852,0.5562334888266364,-0.653163492388531,3,True
2024-11-29,0.5562334888266364,0.5634769504653565,1.3022340050039105,5,True
2024-11-30,0.5634769504653565,0.5811141289474222,3.130062102362796,3,True
2024-12-01,0.5811141289474222,0.5766691784262137,-0.7649014711206048,4,True
2024-12-02,0.5766691784262137,0.5775361898529975,0.15034814746819336,9,True
2024-12-03,0.5775361898529975,0.5873289367397918,1.695607488993356,8,True
2024-12-04,0.5873289367397918,0.594966138078429,1.3003277824230164,6,True
2024-12-05,0.594966138078429,0.5946550619140976,-0.05228468385379825,9,True
2024-12-06,0.5946550619140976,0.5853140164589966,-1.5708342623089178,6,True
2024-12-07,0.5853140164589966,0.5837858161601877,-0.2610906719873518,4,True
2024-12-08,0.5837858161601877,0.5813913922752371,-0.4101545153494368,0,True
2024-12-09,0.5813913922752371,0.5778455727218867,-0.6098851136192462,3,True
2024-12-10,0.5778455727218867,0.5385005013830663,-6.808924943993122,22,True
2024-12-11,0.5385005013830663,0.5646098133585948,4.848521386418447,5,True
2024-12-12,0.5646098133585948,0.5587428726279478,-1.0391141974220086,2,True
2024-12-13,0.5587428726279478,0.5585287107696444,-0.03832923314012193,1,True
2024-12-14,0.5585287107696444,0.5603819576986346,0.3318087133670433,0,True
2024-12-15,0.5603819576986346,0.5483033861031312,-2.155417644976909,5,True
2024-12-16,0.5483033861031312,0.5465433670309889,-0.32099365365058086,0,True
2024-12-17,0.5465433670309889,0.5465433670309889,0.0,0,False
2024-12-18,0.5465433670309889,0.5385730050763378,-1.4583219622532284,4,True
2024-12-19,0.5385730050763378,0.5313461033931792,-1.3418611061158159,11,True
2024-12-20,0.5313461033931792,0.49624822637111704,-6.605464272331529,22,True
2024-12-21,0.49624822637111704,0.5185536893181878,4.494819681307982,3,True
2024-12-22,0.5185536893181878,0.5273894234967799,1.703918872934751,2,True
2024-12-23,0.5273894234967799,0.5407095100826632,2.5256643369080845,3,True
2024-12-24,0.5407095100826632,0.5389845510952933,-0.31901768975843847,0,True
2024-12-25,0.5389845510952933,0.5467008085872316,1.4316286944139112,4,True
2024-12-26,0.5467008085872316,0.544020494240175,-0.4902707852185162,3,True
2024-12-27,0.544020494240175,0.5440635230433095,0.007909408485540226,0,True
2024-12-28,0.5440635230433095,0.5355281441938151,-1.5688202733663004,4,True
2024-12-29,0.5355281441938151,0.565650311052511,5.624758882475134,5,True
2024-12-30,0.565650311052511,0.5606363918364478,-0.8863990911158082,4,True
2024-12-31,0.5606363918364478,0.556210705907022,-0.7894039691088817,3,True
