day,start_equity,end_equity,return_pct,entries,active
2024-01-02,1.00371343555889,0.9997427808655955,-0.39559644741463673,1,True
2024-01-03,0.9997427808655955,0.977504151098405,-2.2244351440013244,5,True
2024-01-04,0.977504151098405,0.998609934152311,2.159150222552997,15,True
2024-01-05,0.998609934152311,0.976814775368488,-2.1825497662732785,6,True
2024-01-06,0.976814775368488,0.9807787533372079,0.4058065120098542,8,True
2024-01-07,0.9807787533372079,0.985146873967327,0.44537268117361695,8,True
2024-01-08,0.985146873967327,0.9650045804673288,-2.044598022108346,7,True
2024-01-09,0.9650045804673288,0.9573093309582666,-0.7974313971997438,6,True
2024-01-10,0.9573093309582666,0.9456101172820066,-1.2220933503854114,7,True
2024-01-11,0.9456101172820066,0.9439747921846077,-0.1729386210565731,6,True
2024-01-12,0.9439747921846077,0.9486451727020774,0.4947569104744032,8,True
2024-01-13,0.9486451727020774,0.9657149208574447,1.7993817547973912,12,True
2024-01-14,0.9657149208574447,0.9633845636388683,-0.2413090207312285,1,True
2024-01-15,0.9633845636388683,0.9715466506902429,0.8472304165374034,5,True
2024-01-16,0.9715466506902429,0.9614170746580342,-1.0426237407140548,2,True
2024-01-17,0.9614170746580342,0.9614170746580342,0.0,0,False
2024-01-18,0.9614170746580342,0.9595692163352117,-0.19220152954737557,1,True
2024-01-19,0.9595692163352117,0.9560007132323987,-0.37188595070212216,1,True
2024-01-20,0.9560007132323987,0.9861097451570027,3.149477977145043,12,True
2024-01-21,0.9861097451570027,0.9754582611485582,-1.0801519872160492,3,True
2024-01-22,0.9754582611485582,0.9588441947351447,-1.7032062852029295,4,True
2024-01-23,0.9588441947351447,0.9379501666212194,-2.1790848011231545,11,True
2024-01-24,0.9379501666212194,0.9360250409423649,-0.2052481834711295,1,True
2024-01-25,0.9360250409423649,0.9326733993855557,-0.35807178336114687,3,True
2024-01-26,0.9326733993855557,0.9354499682908107,0.29770002093811865,1,True
2024-01-27,0.9354499682908107,0.9354499682908107,0.0,0,False
2024-01-28,0.9354499682908107,0.9345228826085561,-0.09910585426055052,1,True
2024-01-29,0.9345228826085561,0.9345228826085561,0.0,0,False
2024-01-30,0.9345228826085561,0.9345228826085561,0.0,0,False
2024-01-31,0.9345228826085561,0.9302464511746602,-0.4576058557238305,1,True
2024-02-01,0.9302464511746602,0.9302464511746602,0.0,0,False
2024-02-02,0.9302464511746602,0.9298142354240884,-0.046462499268451474,3,True
2024-02-03,0.9298142354240884,0.9364695541944285,0.7157686467668123,1,True
2024-02-04,0.9364695541944285,0.9366609736551008,0.020440542868160883,1,True
2024-02-05,0.9366609736551008,0.9366609736551008,0.0,0,False
2024-02-06,0.9366609736551008,0.9283925637329343,-0.8827537555985643,2,True
2024-02-07,0.9283925637329343,0.9289455715812207,0.059566165207392,5,True
2024-02-08,0.9289455715812207,0.9453951840115862,1.7707832335499996,1,True
2024-02-09,0.9453951840115862,0.9453951840115862,0.0,0,False
2024-02-10,0.9453951840115862,0.937790408356841,-0.8044017764587963,3,True
2024-02-11,0.937790408356841,0.937790408356841,0.0,0,False
2024-02-12,0.937790408356841,0.9411134389623597,0.3543468322885879,3,True
2024-02-13,0.9411134389623597,0.9411134389623597,0.0,0,False
2024-02-14,0.9411134389623597,0.9436475824030478,0.26927077393370524,2,True
2024-02-15,0.9436475824030478,0.9704063746340761,2.8356764463790096,7,True
2024-02-16,0.9704063746340761,0.9505895911671712,-2.0421118394216453,3,True
2024-02-17,0.9505895911671712,0.9369724191870028,-1.432497484371642,6,True
2024-02-18,0.9369724191870028,0.9372742820269293,0.032216833040665804,4,True
2024-02-19,0.9372742820269293,0.9304907112836022,-0.7237551347997195,6,True
2024-02-20,0.9304907112836022,0.9265579831773282,-0.42265097959428566,13,True
2024-02-21,0.9265579831773282,0.9210436730224275,-0.5951392416901014,10,True
2024-02-22,0.9210436730224275,0.9443675944987207,2.5323361051659,5,True
2024-02-23,0.9443675944987207,0.9250739524259902,-2.0430224612876136,7,True
2024-02-24,0.9250739524259902,0.9138114576834937,-1.2174696642317961,10,True
2024-02-25,0.9138114576834937,0.9007560620230446,-1.4286749800166088,9,True
2024-02-26,0.9007560620230446,0.9016220372978405,0.09613871183402622,10,True
2024-02-27,0.9016220372978405,0.8996824164885542,-0.21512571000364966,8,True
2024-02-28,0.8996824164885542,0.9246829875119799,2.7788217892489753,10,True
2024-02-29,0.9246829875119799,0.9165251017062891,-0.8822359571728389,19,True
2024-03-01,0.9165251017062891,0.9077259379208162,-0.9600570425285171,11,True
2024-03-02,0.9077259379208162,0.9013650069679807,-0.7007545655691505,16,True
2024-03-03,0.9013650069679807,0.91912612174304,1.9704686378722691,15,True
2024-03-04,0.91912612174304,0.929177172500663,1.093544239452382,4,True
2024-03-05,0.929177172500663,0.9398483401552833,1.1484534887895803,22,True
2024-03-06,0.9398483401552833,0.9129791064718292,-2.8588903693775425,11,True
2024-03-07,0.9129791064718292,0.9100560478963508,-0.32016708320681264,7,True
2024-03-08,0.9100560478963508,0.9098339419945339,-0.0244057387817187,9,True
2024-03-09,0.9098339419945339,0.9146366825572423,0.5278700146292392,12,True
2024-03-10,0.9146366825572423,0.9246808731966683,1.098161798118924,13,True
2024-03-11,0.9246808731966683,0.9314215085142162,0.7289688272933859,13,True
2024-03-12,0.9314215085142162,0.9322058101332693,0.08420480006996467,9,True
2024-03-13,0.9322058101332693,0.929869605665824,-0.25061037402366315,8,True
2024-03-14,0.929869605665824,0.9365772811774804,0.7213565720167292,6,True
2024-03-15,0.9365772811774804,0.9169178552672449,-2.0990714066349447,17,True
2024-03-16,0.9169178552672449,0.915645138493347,-0.1388037943188425,4,True
2024-03-17,0.915645138493347,0.9079317623681752,-0.8423979772189782,9,True
2024-03-18,0.9079317623681752,0.9092902837023928,0.1496281318184245,5,True
2024-03-19,0.9092902837023928,0.8905499931553305,-2.060979962389653,14,True
2024-03-20,0.8905499931553305,0.8811575456843154,-1.0546794164509987,8,True
2024-03-21,0.8811575456843154,0.880443641928116,-0.08101885522014962,5,True
2024-03-22,0.880443641928116,0.8801869026272308,-0.029160219764090556,13,True
2024-03-23,0.8801869026272308,0.8841252579529187,0.44744534529344016,8,True
2024-03-24,0.8841252579529187,0.8788947894784712,-0.5915981279121074,7,True
2024-03-25,0.8788947894784712,0.8855648128464192,0.7589103323625279,4,True
2024-03-26,0.8855648128464192,0.897790131914366,1.3805109338808963,9,True
2024-03-27,0.897790131914366,0.895676435250862,-0.23543326979957868,11,True
2024-03-28,0.895676435250862,0.8816149225376313,-1.5699321942406974,7,True
2024-03-29,0.8816149225376313,0.8789083872558743,-0.3069974444133261,9,True
2024-03-30,0.8789083872558743,0.8753251868954008,-0.40768758296423346,4,True
2024-03-31,0.8753251868954008,0.8733462593253155,-0.22607913032917093,1,True
2024-04-01,0.8733462593253155,0.8731766651358371,-0.01941889458705326,7,True
2024-04-02,0.8731766651358371,0.8690748243793319,-0.4697606933720677,9,True
2024-04-03,0.8690748243793319,0.8793881735923887,1.1867044037804586,5,True
2024-04-04,0.8793881735923887,0.8786607817906111,-0.08271566796335117,3,True
2024-04-05,0.8786607817906111,0.8692090508968456,-1.0756973669069358,5,True
2024-04-06,0.8692090508968456,0.8629082706225976,-0.7248866389215514,3,True
2024-04-07,0.8629082706225976,0.8693261055786349,0.7437447495325156,4,True
2024-04-08,0.8693261055786349,0.8647328015990055,-0.5283752495356175,2,True
2024-04-09,0.8647328015990055,0.8594707509219354,-0.6085175290378553,3,True
2024-04-10,0.8594707509219354,0.8542992185192438,-0.6017112737279451,6,True
2024-04-11,0.8542992185192438,0.8542992185192438,0.0,0,False
2024-04-12,0.8542992185192438,0.8542992185192438,0.0,0,False
2024-04-13,0.8542992185192438,0.8542992185192438,0.0,0,False
2024-04-14,0.8542992185192438,0.8542992185192438,0.0,0,False
2024-04-15,0.8542992185192438,0.8542992185192438,0.0,0,False
2024-04-16,0.8542992185192438,0.8542992185192438,0.0,0,False
2024-04-17,0.8542992185192438,0.8542992185192438,0.0,0,False
2024-04-18,0.8542992185192438,0.8542992185192438,0.0,0,False
2024-04-19,0.8542992185192438,0.8542992185192438,0.0,0,False
2024-04-20,0.8542992185192438,0.8542992185192438,0.0,0,False
2024-04-21,0.8542992185192438,0.8542992185192438,0.0,0,False
2024-04-22,0.8542992185192438,0.8542992185192438,0.0,0,False
2024-04-23,0.8542992185192438,0.8542992185192438,0.0,0,False
2024-04-24,0.8542992185192438,0.8542992185192438,0.0,0,False
2024-04-25,0.8542992185192438,0.8542992185192438,0.0,0,False
2024-04-26,0.8542992185192438,0.8542992185192438,0.0,0,False
2024-04-27,0.8542992185192438,0.8542992185192438,0.0,0,False
2024-04-28,0.8542992185192438,0.8542992185192438,0.0,0,False
2024-04-29,0.8542992185192438,0.8542992185192438,0.0,0,False
2024-04-30,0.8542992185192438,0.8542992185192438,0.0,0,False
2024-05-01,0.8542992185192438,0.8542992185192438,0.0,0,False
2024-05-02,0.8542992185192438,0.8542992185192438,0.0,0,False
2024-05-03,0.8542992185192438,0.8542992185192438,0.0,0,False
2024-05-04,0.8542992185192438,0.8542992185192438,0.0,0,False
2024-05-05,0.8542992185192438,0.8542992185192438,0.0,0,False
2024-05-06,0.8542992185192438,0.8542992185192438,0.0,0,False
2024-05-07,0.8542992185192438,0.8542992185192438,0.0,0,False
2024-05-08,0.8542992185192438,0.8542992185192438,0.0,0,False
2024-05-09,0.8542992185192438,0.8542992185192438,0.0,0,False
2024-05-10,0.8542992185192438,0.8542992185192438,0.0,0,False
2024-05-11,0.8542992185192438,0.8542992185192438,0.0,0,False
2024-05-12,0.8542992185192438,0.8542992185192438,0.0,0,False
2024-05-13,0.8542992185192438,0.8542992185192438,0.0,0,False
2024-05-14,0.8542992185192438,0.8542992185192438,0.0,0,False
2024-05-15,0.8542992185192438,0.8542992185192438,0.0,0,False
2024-05-16,0.8542992185192438,0.8542992185192438,0.0,0,False
2024-05-17,0.8542992185192438,0.8542992185192438,0.0,0,False
2024-05-18,0.8542992185192438,0.8542992185192438,0.0,0,False
2024-05-19,0.8542992185192438,0.8542992185192438,0.0,0,False
2024-05-20,0.8542992185192438,0.8542992185192438,0.0,0,False
2024-05-21,0.8542992185192438,0.8542992185192438,0.0,0,False
2024-05-22,0.8542992185192438,0.8542992185192438,0.0,0,False
2024-05-23,0.8542992185192438,0.8542992185192438,0.0,0,False
2024-05-24,0.8542992185192438,0.8542992185192438,0.0,0,False
2024-05-25,0.8542992185192438,0.8542992185192438,0.0,0,False
2024-05-26,0.8542992185192438,0.8542992185192438,0.0,0,False
2024-05-27,0.8542992185192438,0.8542992185192438,0.0,0,False
2024-05-28,0.8542992185192438,0.8542992185192438,0.0,0,False
2024-05-29,0.8542992185192438,0.8542992185192438,0.0,0,False
2024-05-30,0.8542992185192438,0.8542992185192438,0.0,0,False
2024-05-31,0.8542992185192438,0.8542992185192438,0.0,0,False
2024-06-01,0.8542992185192438,0.8542992185192438,0.0,0,False
2024-06-02,0.8542992185192438,0.8542992185192438,0.0,0,False
2024-06-03,0.8542992185192438,0.8542992185192438,0.0,0,False
2024-06-04,0.8542992185192438,0.8542992185192438,0.0,0,False
2024-06-05,0.8542992185192438,0.8542992185192438,0.0,0,False
2024-06-06,0.8542992185192438,0.8542992185192438,0.0,0,False
2024-06-07,0.8542992185192438,0.8542992185192438,0.0,0,False
2024-06-08,0.8542992185192438,0.8542992185192438,0.0,0,False
2024-06-09,0.8542992185192438,0.8542992185192438,0.0,0,False
2024-06-10,0.8542992185192438,0.8542992185192438,0.0,0,False
2024-06-11,0.8542992185192438,0.8542992185192438,0.0,0,False
2024-06-12,0.8542992185192438,0.8542992185192438,0.0,0,False
2024-06-13,0.8542992185192438,0.8542992185192438,0.0,0,False
2024-06-14,0.8542992185192438,0.8542992185192438,0.0,0,False
2024-06-15,0.8542992185192438,0.8542992185192438,0.0,0,False
2024-06-16,0.8542992185192438,0.8542992185192438,0.0,0,False
2024-06-17,0.8542992185192438,0.8542992185192438,0.0,0,False
2024-06-18,0.8542992185192438,0.8542992185192438,0.0,0,False
2024-06-19,0.8542992185192438,0.8542992185192438,0.0,0,False
2024-06-20,0.8542992185192438,0.8542992185192438,0.0,0,False
2024-06-21,0.8542992185192438,0.8542992185192438,0.0,0,False
2024-06-22,0.8542992185192438,0.8542992185192438,0.0,0,False
2024-06-23,0.8542992185192438,0.8542992185192438,0.0,0,False
2024-06-24,0.8542992185192438,0.8542992185192438,0.0,0,False
2024-06-25,0.8542992185192438,0.8542992185192438,0.0,0,False
2024-06-26,0.8542992185192438,0.8542992185192438,0.0,0,False
2024-06-27,0.8542992185192438,0.8542992185192438,0.0,0,False
2024-06-28,0.8542992185192438,0.8542992185192438,0.0,0,False
2024-06-29,0.8542992185192438,0.8542992185192438,0.0,0,False
2024-06-30,0.8542992185192438,0.8542992185192438,0.0,0,False
2024-07-01,0.8542992185192438,0.8542992185192438,0.0,0,False
2024-07-02,0.8542992185192438,0.8542992185192438,0.0,0,False
2024-07-03,0.8542992185192438,0.8542992185192438,0.0,0,False
2024-07-04,0.8542992185192438,0.8542992185192438,0.0,0,False
2024-07-05,0.8542992185192438,0.8542992185192438,0.0,0,False
2024-07-06,0.8542992185192438,0.8542992185192438,0.0,0,False
2024-07-07,0.8542992185192438,0.8542992185192438,0.0,0,False
2024-07-08,0.8542992185192438,0.8542992185192438,0.0,0,False
2024-07-09,0.8542992185192438,0.8542992185192438,0.0,0,False
2024-07-10,0.8542992185192438,0.8542992185192438,0.0,0,False
2024-07-11,0.8542992185192438,0.8542992185192438,0.0,0,False
2024-07-12,0.8542992185192438,0.8542992185192438,0.0,0,False
2024-07-13,0.8542992185192438,0.8542992185192438,0.0,0,False
2024-07-14,0.8542992185192438,0.8542992185192438,0.0,0,False
2024-07-15,0.8542992185192438,0.8542992185192438,0.0,0,False
2024-07-16,0.8542992185192438,0.8542992185192438,0.0,0,False
2024-07-17,0.8542992185192438,0.8542992185192438,0.0,0,False
2024-07-18,0.8542992185192438,0.8542992185192438,0.0,0,False
2024-07-19,0.8542992185192438,0.8542992185192438,0.0,0,False
2024-07-20,0.8542992185192438,0.8542992185192438,0.0,0,False
2024-07-21,0.8542992185192438,0.8542992185192438,0.0,0,False
2024-07-22,0.8542992185192438,0.8542992185192438,0.0,0,False
2024-07-23,0.8542992185192438,0.8542992185192438,0.0,0,False
2024-07-24,0.8542992185192438,0.8542992185192438,0.0,0,False
2024-07-25,0.8542992185192438,0.8542992185192438,0.0,0,False
2024-07-26,0.8542992185192438,0.8542992185192438,0.0,0,False
2024-07-27,0.8542992185192438,0.8542992185192438,0.0,0,False
2024-07-28,0.8542992185192438,0.8542992185192438,0.0,0,False
2024-07-29,0.8542992185192438,0.8542992185192438,0.0,0,False
2024-07-30,0.8542992185192438,0.8542992185192438,0.0,0,False
2024-07-31,0.8542992185192438,0.8542992185192438,0.0,0,False
2024-08-01,0.8542992185192438,0.8542992185192438,0.0,0,False
2024-08-02,0.8542992185192438,0.8542992185192438,0.0,0,False
2024-08-03,0.8542992185192438,0.8542992185192438,0.0,0,False
2024-08-04,0.8542992185192438,0.8542992185192438,0.0,0,False
2024-08-05,0.8542992185192438,0.8542992185192438,0.0,0,False
2024-08-06,0.8542992185192438,0.8542992185192438,0.0,0,False
2024-08-07,0.8542992185192438,0.8542992185192438,0.0,0,False
2024-08-08,0.8542992185192438,0.8542992185192438,0.0,0,False
2024-08-09,0.8542992185192438,0.8542992185192438,0.0,0,False
2024-08-10,0.8542992185192438,0.8542992185192438,0.0,0,False
2024-08-11,0.8542992185192438,0.8542992185192438,0.0,0,False
2024-08-12,0.8542992185192438,0.8542992185192438,0.0,0,False
2024-08-13,0.8542992185192438,0.8542992185192438,0.0,0,False
2024-08-14,0.8542992185192438,0.8542992185192438,0.0,0,False
2024-08-15,0.8542992185192438,0.8542992185192438,0.0,0,False
2024-08-16,0.8542992185192438,0.8542992185192438,0.0,0,False
2024-08-17,0.8542992185192438,0.8542992185192438,0.0,0,False
2024-08-18,0.8542992185192438,0.8542992185192438,0.0,0,False
2024-08-19,0.8542992185192438,0.8542992185192438,0.0,0,False
2024-08-20,0.8542992185192438,0.8542992185192438,0.0,0,False
2024-08-21,0.8542992185192438,0.8542992185192438,0.0,0,False
2024-08-22,0.8542992185192438,0.8542992185192438,0.0,0,False
2024-08-23,0.8542992185192438,0.8542992185192438,0.0,0,False
2024-08-24,0.8542992185192438,0.8542992185192438,0.0,0,False
2024-08-25,0.8542992185192438,0.8542992185192438,0.0,0,False
2024-08-26,0.8542992185192438,0.8542992185192438,0.0,0,False
2024-08-27,0.8542992185192438,0.8542992185192438,0.0,0,False
2024-08-28,0.8542992185192438,0.8542992185192438,0.0,0,False
2024-08-29,0.8542992185192438,0.8542992185192438,0.0,0,False
2024-08-30,0.8542992185192438,0.8542992185192438,0.0,0,False
2024-08-31,0.8542992185192438,0.8542992185192438,0.0,0,False
2024-09-01,0.8542992185192438,0.8542992185192438,0.0,0,False
2024-09-02,0.8542992185192438,0.8542992185192438,0.0,0,False
2024-09-03,0.8542992185192438,0.8542992185192438,0.0,0,False
2024-09-04,0.8542992185192438,0.8542992185192438,0.0,0,False
2024-09-05,0.8542992185192438,0.8542992185192438,0.0,0,False
2024-09-06,0.8542992185192438,0.8542992185192438,0.0,0,False
2024-09-07,0.8542992185192438,0.8542992185192438,0.0,0,False
2024-09-08,0.8542992185192438,0.8542992185192438,0.0,0,False
2024-09-09,0.8542992185192438,0.8542992185192438,0.0,0,False
2024-09-10,0.8542992185192438,0.8542992185192438,0.0,0,False
2024-09-11,0.8542992185192438,0.8542992185192438,0.0,0,False
2024-09-12,0.8542992185192438,0.8542992185192438,0.0,0,False
2024-09-13,0.8542992185192438,0.8542992185192438,0.0,0,False
2024-09-14,0.8542992185192438,0.8542992185192438,0.0,0,False
2024-09-15,0.8542992185192438,0.8542992185192438,0.0,0,False
2024-09-16,0.8542992185192438,0.8542992185192438,0.0,0,False
2024-09-17,0.8542992185192438,0.8542992185192438,0.0,0,False
2024-09-18,0.8542992185192438,0.8542992185192438,0.0,0,False
2024-09-19,0.8542992185192438,0.8542992185192438,0.0,0,False
2024-09-20,0.8542992185192438,0.8542992185192438,0.0,0,False
2024-09-21,0.8542992185192438,0.8542992185192438,0.0,0,False
2024-09-22,0.8542992185192438,0.8542992185192438,0.0,0,False
2024-09-23,0.8542992185192438,0.8542992185192438,0.0,0,False
2024-09-24,0.8542992185192438,0.8542992185192438,0.0,0,False
2024-09-25,0.8542992185192438,0.8542992185192438,0.0,0,False
2024-09-26,0.8542992185192438,0.8542992185192438,0.0,0,False
2024-09-27,0.8542992185192438,0.8542992185192438,0.0,0,False
2024-09-28,0.8542992185192438,0.8542992185192438,0.0,0,False
2024-09-29,0.8542992185192438,0.8542992185192438,0.0,0,False
2024-09-30,0.8542992185192438,0.8542992185192438,0.0,0,False
2024-10-01,0.8542992185192438,0.8542992185192438,0.0,0,False
2024-10-02,0.8542992185192438,0.8542992185192438,0.0,0,False
2024-10-03,0.8542992185192438,0.8542992185192438,0.0,0,False
2024-10-04,0.8542992185192438,0.8542992185192438,0.0,0,False
2024-10-05,0.8542992185192438,0.8542992185192438,0.0,0,False
2024-10-06,0.8542992185192438,0.8542992185192438,0.0,0,False
2024-10-07,0.8542992185192438,0.8542992185192438,0.0,0,False
2024-10-08,0.8542992185192438,0.8542992185192438,0.0,0,False
2024-10-09,0.8542992185192438,0.8542992185192438,0.0,0,False
2024-10-10,0.8542992185192438,0.8542992185192438,0.0,0,False
2024-10-11,0.8542992185192438,0.8542992185192438,0.0,0,False
2024-10-12,0.8542992185192438,0.8542992185192438,0.0,0,False
2024-10-13,0.8542992185192438,0.8542992185192438,0.0,0,False
2024-10-14,0.8542992185192438,0.8542992185192438,0.0,0,False
2024-10-15,0.8542992185192438,0.8542992185192438,0.0,0,False
2024-10-16,0.8542992185192438,0.8542992185192438,0.0,0,False
2024-10-17,0.8542992185192438,0.8542992185192438,0.0,0,False
2024-10-18,0.8542992185192438,0.8542992185192438,0.0,0,False
2024-10-19,0.8542992185192438,0.8542992185192438,0.0,0,False
2024-10-20,0.8542992185192438,0.8542992185192438,0.0,0,False
2024-10-21,0.8542992185192438,0.8542992185192438,0.0,0,False
2024-10-22,0.8542992185192438,0.8542992185192438,0.0,0,False
2024-10-23,0.8542992185192438,0.8542992185192438,0.0,0,False
2024-10-24,0.8542992185192438,0.8542992185192438,0.0,0,False
2024-10-25,0.8542992185192438,0.8542992185192438,0.0,0,False
2024-10-26,0.8542992185192438,0.8542992185192438,0.0,0,False
2024-10-27,0.8542992185192438,0.8542992185192438,0.0,0,False
2024-10-28,0.8542992185192438,0.8542992185192438,0.0,0,False
2024-10-29,0.8542992185192438,0.8542992185192438,0.0,0,False
2024-10-30,0.8542992185192438,0.8542992185192438,0.0,0,False
2024-10-31,0.8542992185192438,0.8542992185192438,0.0,0,False
2024-11-01,0.8542992185192438,0.8542992185192438,0.0,0,False
2024-11-02,0.8542992185192438,0.8542992185192438,0.0,0,False
2024-11-03,0.8542992185192438,0.8542992185192438,0.0,0,False
2024-11-04,0.8542992185192438,0.8542992185192438,0.0,0,False
2024-11-05,0.8542992185192438,0.8542992185192438,0.0,0,False
2024-11-06,0.8542992185192438,0.8542992185192438,0.0,0,False
2024-11-07,0.8542992185192438,0.8542992185192438,0.0,0,False
2024-11-08,0.8542992185192438,0.8542992185192438,0.0,0,False
2024-11-09,0.8542992185192438,0.8542992185192438,0.0,0,False
2024-11-10,0.8542992185192438,0.8542992185192438,0.0,0,False
2024-11-11,0.8542992185192438,0.8542992185192438,0.0,0,False
2024-11-12,0.8542992185192438,0.8542992185192438,0.0,0,False
2024-11-13,0.8542992185192438,0.8542992185192438,0.0,0,False
2024-11-14,0.8542992185192438,0.8542992185192438,0.0,0,False
2024-11-15,0.8542992185192438,0.8542992185192438,0.0,0,False
2024-11-16,0.8542992185192438,0.8542992185192438,0.0,0,False
2024-11-17,0.8542992185192438,0.8542992185192438,0.0,0,False
2024-11-18,0.8542992185192438,0.8542992185192438,0.0,0,False
2024-11-19,0.8542992185192438,0.8542992185192438,0.0,0,False
2024-11-20,0.8542992185192438,0.8542992185192438,0.0,0,False
2024-11-21,0.8542992185192438,0.8542992185192438,0.0,0,False
2024-11-22,0.8542992185192438,0.8542992185192438,0.0,0,False
2024-11-23,0.8542992185192438,0.8542992185192438,0.0,0,False
2024-11-24,0.8542992185192438,0.8542992185192438,0.0,0,False
2024-11-25,0.8542992185192438,0.8542992185192438,0.0,0,False
2024-11-26,0.8542992185192438,0.8542992185192438,0.0,0,False
2024-11-27,0.8542992185192438,0.8542992185192438,0.0,0,False
2024-11-28,0.8542992185192438,0.8542992185192438,0.0,0,False
2024-11-29,0.8542992185192438,0.8542992185192438,0.0,0,False
2024-11-30,0.8542992185192438,0.8542992185192438,0.0,0,False
2024-12-01,0.8542992185192438,0.8542992185192438,0.0,0,False
2024-12-02,0.8542992185192438,0.8542992185192438,0.0,0,False
2024-12-03,0.8542992185192438,0.8542992185192438,0.0,0,False
2024-12-04,0.8542992185192438,0.8542992185192438,0.0,0,False
2024-12-05,0.8542992185192438,0.8542992185192438,0.0,0,False
2024-12-06,0.8542992185192438,0.8542992185192438,0.0,0,False
2024-12-07,0.8542992185192438,0.8542992185192438,0.0,0,False
2024-12-08,0.8542992185192438,0.8542992185192438,0.0,0,False
2024-12-09,0.8542992185192438,0.8542992185192438,0.0,0,False
2024-12-10,0.8542992185192438,0.8542992185192438,0.0,0,False
2024-12-11,0.8542992185192438,0.8542992185192438,0.0,0,False
2024-12-12,0.8542992185192438,0.8542992185192438,0.0,0,False
2024-12-13,0.8542992185192438,0.8542992185192438,0.0,0,False
2024-12-14,0.8542992185192438,0.8542992185192438,0.0,0,False
2024-12-15,0.8542992185192438,0.8542992185192438,0.0,0,False
2024-12-16,0.8542992185192438,0.8542992185192438,0.0,0,False
2024-12-17,0.8542992185192438,0.8542992185192438,0.0,0,False
2024-12-18,0.8542992185192438,0.8542992185192438,0.0,0,False
2024-12-19,0.8542992185192438,0.8542992185192438,0.0,0,False
2024-12-20,0.8542992185192438,0.8542992185192438,0.0,0,False
2024-12-21,0.8542992185192438,0.8542992185192438,0.0,0,False
2024-12-22,0.8542992185192438,0.8542992185192438,0.0,0,False
2024-12-23,0.8542992185192438,0.8542992185192438,0.0,0,False
2024-12-24,0.8542992185192438,0.8542992185192438,0.0,0,False
2024-12-25,0.8542992185192438,0.8542992185192438,0.0,0,False
2024-12-26,0.8542992185192438,0.8542992185192438,0.0,0,False
2024-12-27,0.8542992185192438,0.8542992185192438,0.0,0,False
2024-12-28,0.8542992185192438,0.8542992185192438,0.0,0,False
2024-12-29,0.8542992185192438,0.8542992185192438,0.0,0,False
2024-12-30,0.8542992185192438,0.8542992185192438,0.0,0,False
2024-12-31,0.8542992185192438,0.8542992185192438,0.0,0,False
