day,start_equity,end_equity,return_pct,entries,active
2021-09-02,1.0,1.0,0.0,0,False
2021-09-03,1.0,1.0,0.0,0,False
2021-09-04,1.0,1.0,0.0,0,False
2021-09-05,1.0,1.0,0.0,0,False
2021-09-06,1.0,1.0,0.0,0,False
2021-09-07,1.0,1.0,0.0,0,False
2021-09-08,1.0,1.0,0.0,0,False
2021-09-09,1.0,1.0,0.0,0,False
2021-09-10,1.0,1.0,0.0,0,False
2021-09-11,1.0,1.0,0.0,0,False
2021-09-12,1.0,1.0,0.0,0,False
2021-09-13,1.0,1.0,0.0,0,False
2021-09-14,1.0,1.0,0.0,0,False
2021-09-15,1.0,1.0,0.0,0,False
2021-09-16,1.0,1.0,0.0,0,False
2021-09-17,1.0,1.0,0.0,0,False
2021-09-18,1.0,1.0,0.0,0,False
2021-09-19,1.0,1.0,0.0,0,False
2021-09-20,1.0,1.0,0.0,0,False
2021-09-21,1.0,1.0,0.0,0,False
2021-09-22,1.0,1.0,0.0,0,False
2021-09-23,1.0,1.0,0.0,0,False
2021-09-24,1.0,1.0,0.0,0,False
2021-09-25,1.0,1.0,0.0,0,False
2021-09-26,1.0,1.0,0.0,0,False
2021-09-27,1.0,1.0,0.0,0,False
2021-09-28,1.0,1.0,0.0,0,False
2021-09-29,1.0,1.0,0.0,0,False
2021-09-30,1.0,1.0,0.0,0,False
2021-10-01,1.0,1.0,0.0,0,False
2021-10-02,1.0,1.0,0.0,0,False
2021-10-03,1.0,1.0,0.0,0,False
2021-10-04,1.0,1.0,0.0,0,False
2021-10-05,1.0,1.0,0.0,0,False
2021-10-06,1.0,0.9978390650138445,-0.21609349861555494,1,True
2021-10-07,0.9978390650138445,0.9978390650138445,0.0,0,False
2021-10-08,0.9978390650138445,0.9978390650138445,0.0,0,False
2021-10-09,0.9978390650138445,0.9954982204974228,-0.2345913883807671,3,True
2021-10-10,0.9954982204974228,0.989627633931084,-0.5897134164042361,1,True
2021-10-11,0.989627633931084,0.989627633931084,0.0,0,False
2021-10-12,0.989627633931084,0.989627633931084,0.0,0,False
2021-10-13,0.989627633931084,1.0022116125007965,1.2715872251591653,4,True
2021-10-14,1.0022116125007965,1.0168353097226095,1.4591426640250926,0,True
2021-10-15,1.0168353097226095,1.0197760626359103,0.2892064118134252,1,True
2021-10-16,1.0197760626359103,1.035347137966096,1.5269112406833374,0,True
2021-10-17,1.035347137966096,1.035347137966096,0.0,0,False
2021-10-18,1.035347137966096,1.0362487808074736,0.08708604180323043,1,True
2021-10-19,1.0362487808074736,1.0362487808074736,0.0,0,False
2021-10-20,1.0362487808074736,1.0362487808074736,0.0,0,False
2021-10-21,1.0362487808074736,1.0362487808074736,0.0,0,False
2021-10-22,1.0362487808074736,1.0362487808074736,0.0,0,False
2021-10-23,1.0362487808074736,1.0362487808074736,0.0,0,False
2021-10-24,1.0362487808074736,1.0362487808074736,0.0,0,False
2021-10-25,1.0362487808074736,1.0386854449299312,0.2351427733945144,1,True
2021-10-26,1.0386854449299312,1.0386854449299312,0.0,0,False
2021-10-27,1.0386854449299312,1.0357582381442267,-0.28181840806500436,6,True
2021-10-28,1.0357582381442267,1.0329167077140082,-0.2743430199801944,0,True
2021-10-29,1.0329167077140082,1.0329167077140082,0.0,0,False
2021-10-30,1.0329167077140082,1.0329167077140082,0.0,0,False
2021-10-31,1.0329167077140082,1.0329167077140082,0.0,0,False
2021-11-01,1.0329167077140082,1.0341079672255684,0.11532967785916615,1,True
2021-11-02,1.0341079672255684,1.0330063689467757,-0.10652642796556977,0,True
2021-11-03,1.0330063689467757,1.032995514451584,-0.001050767499388705,1,True
2021-11-04,1.032995514451584,1.0517379812585135,1.8143802702647482,1,True
2021-11-05,1.0517379812585135,1.043564415770609,-0.7771484565123332,0,True
2021-11-06,1.043564415770609,1.0422889458259026,-0.12222244505765145,1,True
2021-11-07,1.0422889458259026,1.0422889458259026,0.0,0,False
2021-11-08,1.0422889458259026,1.0422889458259026,0.0,0,False
2021-11-09,1.0422889458259026,1.0422889458259026,0.0,0,False
2021-11-10,1.0422889458259026,1.0422889458259026,0.0,0,False
2021-11-11,1.0422889458259026,1.0273536883661378,-1.432928701736369,10,True
2021-11-12,1.0273536883661378,1.0279979848970195,0.06271418871395262,0,True
2021-11-13,1.0279979848970195,1.026740331485916,-0.12234006579590062,1,True
2021-11-14,1.026740331485916,1.026740331485916,0.0,0,False
2021-11-15,1.026740331485916,1.026740331485916,0.0,0,False
2021-11-16,1.026740331485916,1.0480826359100677,2.0786467395572883,5,True
2021-11-17,1.0480826359100677,1.036761328805541,-1.080192221169296,0,True
2021-11-18,1.036761328805541,1.0338752095696926,-0.27837836497756063,2,True
2021-11-19,1.0338752095696926,1.0400323183764282,0.595536941958219,2,True
2021-11-20,1.0400323183764282,1.0405536010710903,0.0501217784727892,0,True
2021-11-21,1.0405536010710903,1.0405536010710903,0.0,0,False
2021-11-22,1.0405536010710903,1.036583789856436,-0.3815095359400944,1,True
2021-11-23,1.036583789856436,1.036583789856436,0.0,0,False
2021-11-24,1.036583789856436,1.036583789856436,0.0,0,False
2021-11-25,1.036583789856436,1.0388507078184006,0.21869124176430166,2,True
2021-11-26,1.0388507078184006,1.0200614269311943,-1.8086603537734502,9,True
2021-11-27,1.0200614269311943,1.0311093246114686,1.0830619988750456,0,True
2021-11-28,1.0311093246114686,1.0297319456577596,-0.1335822420409305,1,True
2021-11-29,1.0297319456577596,1.0297319456577596,0.0,0,False
2021-11-30,1.0297319456577596,1.0297319456577596,0.0,0,False
2021-12-01,1.0297319456577596,1.0297319456577596,0.0,0,False
2021-12-02,1.0297319456577596,1.0268102044919682,-0.28373803280669074,2,True
2021-12-03,1.0268102044919682,1.0243663543852872,-0.23800407280624158,1,True
2021-12-04,1.0243663543852872,0.9541561494571489,-6.854013178739249,16,True
2021-12-05,0.9541561494571489,0.9544233082281255,0.027999481125662307,1,True
2021-12-06,0.9544233082281255,0.9478061387795771,-0.6933159942240974,7,True
2021-12-07,0.9478061387795771,0.973551768828584,2.716339238122867,0,True
2021-12-08,0.973551768828584,0.9768383960416689,0.33759141715077323,1,True
2021-12-09,0.9768383960416689,0.975396568772134,-0.14760141241145774,0,True
2021-12-10,0.975396568772134,0.971728609587619,-0.37604798929448124,1,True
2021-12-11,0.971728609587619,0.9689413222485712,-0.28683804423856873,1,True
2021-12-12,0.9689413222485712,0.9689413222485712,0.0,0,False
2021-12-13,0.9689413222485712,0.965794367583784,-0.3247827905083267,1,True
2021-12-14,0.965794367583784,0.965794367583784,0.0,0,False
2021-12-15,0.965794367583784,0.965794367583784,0.0,0,False
2021-12-16,0.965794367583784,0.965794367583784,0.0,0,False
2021-12-17,0.965794367583784,0.9660387648554905,0.025305311348811088,2,True
2021-12-18,0.9660387648554905,0.9688235312708052,0.28826652890387994,0,True
2021-12-19,0.9688235312708052,0.9644396653423188,-0.45249375009874804,1,True
2021-12-20,0.9644396653423188,0.9644396653423188,0.0,0,False
2021-12-21,0.9644396653423188,0.9618439542020222,-0.26914188969772157,1,True
2021-12-22,0.9618439542020222,0.9610671547931343,-0.08076147960324187,0,True
2021-12-23,0.9610671547931343,0.9610671547931343,0.0,0,False
2021-12-24,0.9610671547931343,0.9610671547931343,0.0,0,False
2021-12-25,0.9610671547931343,0.9628921488012303,0.18989245434037905,1,True
2021-12-26,0.9628921488012303,0.9628921488012303,0.0,0,False
2021-12-27,0.9628921488012303,0.9628921488012303,0.0,0,False
2021-12-28,0.9628921488012303,0.9628921488012303,0.0,0,False
2021-12-29,0.9628921488012303,0.9628921488012303,0.0,0,False
2021-12-30,0.9628921488012303,0.9628921488012303,0.0,0,False
2021-12-31,0.9628921488012303,0.9628921488012303,0.0,0,False
2022-01-01,0.9628921488012303,0.9628921488012303,0.0,0,False
2022-01-02,0.9628921488012303,0.9628921488012303,0.0,0,False
2022-01-03,0.9628921488012303,0.9628921488012303,0.0,0,False
2022-01-04,0.9628921488012303,0.9628921488012303,0.0,0,False
2022-01-05,0.9628921488012303,0.9637977043896261,0.09404538083763736,1,True
2022-01-06,0.9637977043896261,0.9479333461747418,-1.6460257316063265,9,True
2022-01-07,0.9479333461747418,0.9540560523026737,0.6459004900122078,4,True
2022-01-08,0.9540560523026737,0.9595020578248366,0.5708265786919631,0,True
2022-01-09,0.9595020578248366,0.960000101548805,0.05190647793893444,1,True
2022-01-10,0.960000101548805,0.9614201372610796,0.14792037104824907,0,True
2022-01-11,0.9614201372610796,0.9614201372610796,0.0,0,False
2022-01-12,0.9614201372610796,0.9614201372610796,0.0,0,False
2022-01-13,0.9614201372610796,0.9614201372610796,0.0,0,False
2022-01-14,0.9614201372610796,0.9614201372610796,0.0,0,False
2022-01-15,0.9614201372610796,0.9617568074685036,0.03501801079215383,1,True
2022-01-16,0.9617568074685036,0.9607755592253809,-0.10202664909702008,0,True
2022-01-17,0.9607755592253809,0.9627533863455161,0.2058573515056672,1,True
2022-01-18,0.9627533863455161,0.9678470170252136,0.5290691003468906,0,True
2022-01-19,0.9678470170252136,0.9678470170252136,0.0,0,False
2022-01-20,0.9678470170252136,0.9678470170252136,0.0,0,False
2022-01-21,0.9678470170252136,0.9412667656950555,-2.746327762816836,7,True
2022-01-22,0.9412667656950555,0.9240775549297032,-1.8261784429050132,8,True
2022-01-23,0.9240775549297032,0.9329948086887117,0.9649897577792332,0,True
2022-01-24,0.9329948086887117,0.927338711228499,-0.6062303249213197,2,True
2022-01-25,0.927338711228499,0.9423119177168203,1.6146426658373292,0,True
2022-01-26,0.9423119177168203,0.9423119177168203,0.0,0,False
2022-01-27,0.9423119177168203,0.9516862301567953,0.9948205327476423,4,True
2022-01-28,0.9516862301567953,0.9453152832956594,-0.6694377473640989,0,True
2022-01-29,0.9453152832956594,0.9453152832956594,0.0,0,False
2022-01-30,0.9453152832956594,0.9518063247707095,0.6866536053897532,1,True
2022-01-31,0.9518063247707095,0.9494547153754356,-0.24706805723742065,0,True
2022-02-01,0.9494547153754356,0.9494547153754356,0.0,0,False
2022-02-02,0.9494547153754356,0.9494547153754356,0.0,0,False
2022-02-03,0.9494547153754356,0.9489972160115161,-0.04818548546978718,3,True
2022-02-04,0.9489972160115161,0.9555338591447328,0.6887947638760439,0,True
2022-02-05,0.9555338591447328,0.9555338591447328,0.0,0,False
2022-02-06,0.9555338591447328,0.9555338591447328,0.0,0,False
2022-02-07,0.9555338591447328,0.9555338591447328,0.0,0,False
2022-02-08,0.9555338591447328,0.9555338591447328,0.0,0,False
2022-02-09,0.9555338591447328,0.9577938259925681,0.23651352866325137,2,True
2022-02-10,0.9577938259925681,0.9633073390112843,0.5756471663410867,5,True
2022-02-11,0.9633073390112843,0.9544663478674201,-0.9177747107105394,0,True
2022-02-12,0.9544663478674201,0.9354462166710161,-1.9927503194744345,4,True
2022-02-13,0.9354462166710161,0.9354462166710161,0.0,0,False
2022-02-14,0.9354462166710161,0.9354462166710161,0.0,0,False
2022-02-15,0.9354462166710161,0.9354462166710161,0.0,0,False
2022-02-16,0.9354462166710161,0.9354462166710161,0.0,0,False
2022-02-17,0.9354462166710161,0.9354462166710161,0.0,0,False
2022-02-18,0.9354462166710161,0.9354462166710161,0.0,0,False
2022-02-19,0.9354462166710161,0.9354462166710161,0.0,0,False
2022-02-20,0.9354462166710161,0.9354462166710161,0.0,0,False
2022-02-21,0.9354462166710161,0.9354462166710161,0.0,0,False
2022-02-22,0.9354462166710161,0.9349797019838445,-0.049870818744857104,2,True
2022-02-23,0.9349797019838445,0.9342089935274416,-0.08243050140742669,0,True
2022-02-24,0.9342089935274416,0.9156031127784631,-1.991618671826878,4,True
2022-02-25,0.9156031127784631,0.9156031127784631,0.0,0,False
2022-02-26,0.9156031127784631,0.9156031127784631,0.0,0,False
2022-02-27,0.9156031127784631,0.9156031127784631,0.0,0,False
2022-02-28,0.9156031127784631,0.9177170472769267,0.2308789112838161,1,True
2022-03-01,0.9177170472769267,0.9204161736864764,0.2941131384187168,0,True
2022-03-02,0.9204161736864764,0.9204161736864764,0.0,0,False
2022-03-03,0.9204161736864764,0.9204161736864764,0.0,0,False
2022-03-04,0.9204161736864764,0.9178735419661923,-0.276248048760408,1,True
2022-03-05,0.9178735419661923,0.9178735419661923,0.0,0,False
2022-03-06,0.9178735419661923,0.9117446238766705,-0.6677301185077145,3,True
2022-03-07,0.9117446238766705,0.9098644628096427,-0.2062157557928379,0,True
2022-03-08,0.9098644628096427,0.9107982447554736,0.10262868635921851,1,True
2022-03-09,0.9107982447554736,0.9189113555951568,0.8907692660147237,1,True
2022-03-10,0.9189113555951568,0.9169146856920957,-0.21728645433573002,3,True
2022-03-11,0.9169146856920957,0.9138436180785643,-0.3349349357637643,0,True
2022-03-12,0.9138436180785643,0.9138436180785643,0.0,0,False
2022-03-13,0.9138436180785643,0.9138436180785643,0.0,0,False
2022-03-14,0.9138436180785643,0.9102085530001064,-0.39777758541454933,1,True
2022-03-15,0.9102085530001064,0.9109627953776475,0.08286478687273835,1,True
2022-03-16,0.9109627953776475,0.9132916123757376,0.2556434807114982,1,True
2022-03-17,0.9132916123757376,0.9093909495709527,-0.4270993789856625,1,True
2022-03-18,0.9093909495709527,0.9087053657940316,-0.07538933362428724,0,True
2022-03-19,0.9087053657940316,0.9087053657940316,0.0,0,False
2022-03-20,0.9087053657940316,0.9050650380262184,-0.4006059504922388,1,True
2022-03-21,0.9050650380262184,0.9027866757066366,-0.2517346515285235,3,True
2022-03-22,0.9027866757066366,0.9027866757066366,0.0,0,False
2022-03-23,0.9027866757066366,0.9027866757066366,0.0,0,False
2022-03-24,0.9027866757066366,0.9027866757066366,0.0,0,False
2022-03-25,0.9027866757066366,0.9027866757066366,0.0,0,False
2022-03-26,0.9027866757066366,0.9027866757066366,0.0,0,False
2022-03-27,0.9027866757066366,0.9027866757066366,0.0,0,False
2022-03-28,0.9027866757066366,0.9027866757066366,0.0,0,False
2022-03-29,0.9027866757066366,0.9027866757066366,0.0,0,False
2022-03-30,0.9027866757066366,0.9002789197213997,-0.2777794636007469,4,True
2022-03-31,0.9002789197213997,0.9024318828873057,0.23914401623135184,5,True
2022-04-01,0.9024318828873057,0.8863893523967459,-1.7776998790459575,0,True
2022-04-02,0.8863893523967459,0.8863893523967459,0.0,0,False
2022-04-03,0.8863893523967459,0.8829508174020524,-0.3879260265701401,1,True
2022-04-04,0.8829508174020524,0.8829508174020524,0.0,0,False
2022-04-05,0.8829508174020524,0.8833962887655539,0.05045256822029387,3,True
2022-04-06,0.8833962887655539,0.8672405618055737,-1.8288198813418033,9,True
2022-04-07,0.8672405618055737,0.8701709281878162,0.33789544807976135,1,True
2022-04-08,0.8701709281878162,0.8739804152811759,0.4377860682260648,0,True
2022-04-09,0.8739804152811759,0.8739804152811759,0.0,0,False
2022-04-10,0.8739804152811759,0.8739804152811759,0.0,0,False
2022-04-11,0.8739804152811759,0.8660272688073025,-0.9099913836529971,6,True
2022-04-12,0.8660272688073025,0.8590783430056989,-0.8023911084432456,0,True
2022-04-13,0.8590783430056989,0.8590783430056989,0.0,0,False
2022-04-14,0.8590783430056989,0.8590783430056989,0.0,0,False
2022-04-15,0.8590783430056989,0.8590783430056989,0.0,0,False
2022-04-16,0.8590783430056989,0.8590783430056989,0.0,0,False
2022-04-17,0.8590783430056989,0.8595364797465412,0.053328866287039034,1,True
2022-04-18,0.8595364797465412,0.8610855444680106,0.18022093977048126,6,True
2022-04-19,0.8610855444680106,0.8710102115473963,1.1525762037402965,0,True
2022-04-20,0.8710102115473963,0.8710102115473963,0.0,0,False
2022-04-21,0.8710102115473963,0.8731357185304591,0.24402779150967113,2,True
2022-04-22,0.8731357185304591,0.8688881278863698,-0.48647541887740786,0,True
2022-04-23,0.8688881278863698,0.8688881278863698,0.0,0,False
2022-04-24,0.8688881278863698,0.8688881278863698,0.0,0,False
2022-04-25,0.8688881278863698,0.8646583553982766,-0.48680288662504845,3,True
2022-04-26,0.8646583553982766,0.8606336017684318,-0.46547328256498766,2,True
2022-04-27,0.8606336017684318,0.8603526344764086,-0.032646563118832184,0,True
2022-04-28,0.8603526344764086,0.8603526344764086,0.0,0,False
2022-04-29,0.8603526344764086,0.8603526344764086,0.0,0,False
2022-04-30,0.8603526344764086,0.8582360211053519,-0.24601695702888282,1,True
2022-05-01,0.8582360211053519,0.8647050492342324,0.7537586362954984,6,True
2022-05-02,0.8647050492342324,0.8664053062910998,0.1966285565665471,0,True
2022-05-03,0.8664053062910998,0.8671735596204133,0.08867135551169358,3,True
2022-05-04,0.8671735596204133,0.8599533308809159,-0.8326163383784446,1,True
2022-05-05,0.8599533308809159,0.8599533308809159,0.0,0,False
2022-05-06,0.8599533308809159,0.8475888868817815,-1.4378040708870277,6,True
2022-05-07,0.8475888868817815,0.8390057973831503,-1.012647715357351,2,True
2022-05-08,0.8390057973831503,0.8316481079248809,-0.8769533513615757,3,True
2022-05-09,0.8316481079248809,0.8246068198400882,-0.8466667593775901,3,True
2022-05-10,0.8246068198400882,0.8053123678068409,-2.339836582601751,7,True
2022-05-11,0.8053123678068409,0.79795060417637,-0.9141500770092126,9,True
2022-05-12,0.79795060417637,0.7930644107392245,-0.6123428457315283,0,True
2022-05-13,0.7930644107392245,0.7930644107392245,0.0,0,False
2022-05-14,0.7930644107392245,0.7832472230124953,-1.2378802520691234,5,True
2022-05-15,0.7832472230124953,0.8076309739442505,3.1131614917154105,1,True
2022-05-16,0.8076309739442505,0.8108198416715174,0.3948421779433886,8,True
2022-05-17,0.8108198416715174,0.8237553481335371,1.5953613610827366,4,True
2022-05-18,0.8237553481335371,0.8184776321575853,-0.6406897373000486,0,True
2022-05-19,0.8184776321575853,0.8299988037878527,1.4076342685012122,6,True
2022-05-20,0.8299988037878527,0.8373959512328989,0.8912238681896723,0,True
2022-05-21,0.8373959512328989,0.8373959512328989,0.0,0,False
2022-05-22,0.8373959512328989,0.8373959512328989,0.0,0,False
2022-05-23,0.8373959512328989,0.8374733864896358,0.009247149645630337,1,True
2022-05-24,0.8374733864896358,0.817891236773051,-2.338241433398325,10,True
2022-05-25,0.817891236773051,0.8138145925686233,-0.49843353506413557,1,True
2022-05-26,0.8138145925686233,0.7881784779939633,-3.1501173373833624,9,True
2022-05-27,0.7881784779939633,0.789124803043905,0.12006481734316843,2,True
2022-05-28,0.789124803043905,0.7896795120138305,0.07029420033255462,0,True
2022-05-29,0.7896795120138305,0.7857412955463242,-0.49871073107405905,1,True
2022-05-30,0.7857412955463242,0.7857412955463242,0.0,0,False
2022-05-31,0.7857412955463242,0.7843428163952665,-0.17798213724854461,1,True
2022-06-01,0.7843428163952665,0.7837855735204268,-0.07104583138795029,1,True
2022-06-02,0.7837855735204268,0.7846963632354146,0.11620393966897957,1,True
2022-06-03,0.7846963632354146,0.7859626144864954,0.16136830886535058,0,True
2022-06-04,0.7859626144864954,0.7859626144864954,0.0,0,False
2022-06-05,0.7859626144864954,0.7859626144864954,0.0,0,False
2022-06-06,0.7859626144864954,0.787508807303462,0.19672600050788525,1,True
2022-06-07,0.787508807303462,0.7832276944074734,-0.5436273037564665,4,True
2022-06-08,0.7832276944074734,0.7845334566107676,0.16671553018590135,3,True
2022-06-09,0.7845334566107676,0.7851995417853523,0.0849020738340922,3,True
2022-06-10,0.7851995417853523,0.7839894032524551,-0.15411859896728997,4,True
2022-06-11,0.7839894032524551,0.7659971239416736,-2.294964604896288,5,True
2022-06-12,0.7659971239416736,0.7608227587916507,-0.6755071250655109,8,True
2022-06-13,0.7608227587916507,0.7386911943672573,-2.9088988425560625,4,True
2022-06-14,0.7386911943672573,0.7461400936633539,1.0083915109448505,4,True
2022-06-15,0.7461400936633539,0.7468064772954414,0.08931079267107123,4,True
2022-06-16,0.7468064772954414,0.7555827998506517,1.1751802939623301,1,True
2022-06-17,0.7555827998506517,0.7555827998506517,0.0,0,False
2022-06-18,0.7555827998506517,0.7504992605202714,-0.6727971218223994,4,True
2022-06-19,0.7504992605202714,0.7557468702641513,0.6992158446954555,2,True
2022-06-20,0.7557468702641513,0.7569747036107826,0.16246621652591386,0,True
2022-06-21,0.7569747036107826,0.7569747036107826,0.0,0,False
2022-06-22,0.7569747036107826,0.7569747036107826,0.0,0,False
2022-06-23,0.7569747036107826,0.7569747036107826,0.0,0,False
2022-06-24,0.7569747036107826,0.7531973927113712,-0.49900094169508247,1,True
2022-06-25,0.7531973927113712,0.7534481349384253,0.03329037374273369,3,True
2022-06-26,0.7534481349384253,0.7525730656667656,-0.1161419387853746,0,True
2022-06-27,0.7525730656667656,0.7503969276292697,-0.289159702462638,4,True
2022-06-28,0.7503969276292697,0.7464511539287575,-0.5258248741740079,1,True
2022-06-29,0.7464511539287575,0.7459775605532961,-0.0634459968303025,2,True
2022-06-30,0.7459775605532961,0.7470543364535973,0.14434427484688594,1,True
2022-07-01,0.7470543364535973,0.7464530891840302,-0.0804824013767691,1,True
2022-07-02,0.7464530891840302,0.7479788228464737,0.20439779599696895,1,True
2022-07-03,0.7479788228464737,0.7488473401562179,0.11611522722516643,1,True
2022-07-04,0.7488473401562179,0.7486684329504573,-0.023891011714527455,0,True
2022-07-05,0.7486684329504573,0.7486684329504573,0.0,0,False
2022-07-06,0.7486684329504573,0.7486684329504573,0.0,0,False
2022-07-07,0.7486684329504573,0.7486684329504573,0.0,0,False
2022-07-08,0.7486684329504573,0.7486684329504573,0.0,0,False
2022-07-09,0.7486684329504573,0.7486684329504573,0.0,0,False
2022-07-10,0.7486684329504573,0.7486684329504573,0.0,0,False
2022-07-11,0.7486684329504573,0.7449298568335178,-0.4993633967183553,1,True
2022-07-12,0.7449298568335178,0.7479696655461826,0.40806643535356013,2,True
2022-07-13,0.7479696655461826,0.7498125169083741,0.24638049470173673,4,True
2022-07-14,0.7498125169083741,0.7544233387712997,0.6149299670185515,0,True
2022-07-15,0.7544233387712997,0.7544233387712997,0.0,0,False
2022-07-16,0.7544233387712997,0.7544233387712997,0.0,0,False
2022-07-17,0.7544233387712997,0.7544233387712997,0.0,0,False
2022-07-18,0.7544233387712997,0.7544233387712997,0.0,0,False
2022-07-19,0.7544233387712997,0.7544233387712997,0.0,0,False
2022-07-20,0.7544233387712997,0.7539166627522753,-0.06716070314707334,1,True
2022-07-21,0.7539166627522753,0.7463296993539031,-1.006339794994704,7,True
2022-07-22,0.7463296993539031,0.7463296993539031,0.0,0,False
2022-07-23,0.7463296993539031,0.7450155991976138,-0.17607501851084617,1,True
2022-07-24,0.7450155991976138,0.7474793462480205,0.3306973777542632,1,True
2022-07-25,0.7474793462480205,0.7482217150755542,0.09931629967572242,1,True
2022-07-26,0.7482217150755542,0.7463984585836657,-0.24367863898528963,1,True
2022-07-27,0.7463984585836657,0.7451894813022825,-0.1619747827021678,0,True
2022-07-28,0.7451894813022825,0.7451894813022825,0.0,0,False
2022-07-29,0.7451894813022825,0.7451894813022825,0.0,0,False
2022-07-30,0.7451894813022825,0.7451894813022825,0.0,0,False
2022-07-31,0.7451894813022825,0.7443909810578666,-0.10715398760331452,1,True
2022-08-01,0.7443909810578666,0.7441030813144345,-0.03867587742976131,1,True
2022-08-02,0.7441030813144345,0.744143150844929,0.005384943497843686,1,True
2022-08-03,0.744143150844929,0.7451728757120896,0.1383772552352891,1,True
2022-08-04,0.7451728757120896,0.7434286119257294,-0.23407505066436185,0,True
2022-08-05,0.7434286119257294,0.7436574075149548,0.030775730924959,1,True
2022-08-06,0.7436574075149548,0.7436574075149548,0.0,0,False
2022-08-07,0.7436574075149548,0.7442453543443006,0.07906151722611998,2,True
2022-08-08,0.7442453543443006,0.7430737054597123,-0.15742777267593322,0,True
2022-08-09,0.7430737054597123,0.7416316145096193,-0.19407105102726696,5,True
2022-08-10,0.7416316145096193,0.7463794428536339,0.64018688674079,1,True
2022-08-11,0.7463794428536339,0.7481004912779881,0.23058625754401874,1,True
2022-08-12,0.7481004912779881,0.7481561046354643,0.007433942114021264,2,True
2022-08-13,0.7481561046354643,0.7481561046354643,0.0,0,False
2022-08-14,0.7481561046354643,0.7481561046354643,0.0,0,False
2022-08-15,0.7481561046354643,0.7481561046354643,0.0,0,False
2022-08-16,0.7481561046354643,0.7472370582983098,-0.12284152083505973,1,True
2022-08-17,0.7472370582983098,0.7449046098434118,-0.3121430380085388,1,True
2022-08-18,0.7449046098434118,0.7413734032945869,-0.47404815357058316,1,True
2022-08-19,0.7413734032945869,0.7261759367990125,-2.049907162576703,10,True
2022-08-20,0.7261759367990125,0.7233176099617927,-0.39361354354693345,1,True
2022-08-21,0.7233176099617927,0.7222940017462486,-0.14151573270809736,0,True
2022-08-22,0.7222940017462486,0.7222940017462486,0.0,0,False
2022-08-23,0.7222940017462486,0.7222940017462486,0.0,0,False
2022-08-24,0.7222940017462486,0.7222940017462486,0.0,0,False
2022-08-25,0.7222940017462486,0.7209433403641574,-0.1869960679205085,1,True
2022-08-26,0.7209433403641574,0.7196113912426917,-0.18475087387490596,0,True
2022-08-27,0.7196113912426917,0.7149892863904945,-0.6423056817118078,3,True
2022-08-28,0.7149892863904945,0.7149892863904945,0.0,0,False
2022-08-29,0.7149892863904945,0.7126729801148795,-0.323963773962066,1,True
2022-08-30,0.7126729801148795,0.7091206264864824,-0.4984549334007826,1,True
2022-08-31,0.7091206264864824,0.7091206264864824,0.0,0,False
2022-09-01,0.7091206264864824,0.7091206264864824,0.0,0,False
2022-09-02,0.7091206264864824,0.7091206264864824,0.0,0,False
2022-09-03,0.7091206264864824,0.7091206264864824,0.0,0,False
2022-09-04,0.7091206264864824,0.7091206264864824,0.0,0,False
2022-09-05,0.7091206264864824,0.7091206264864824,0.0,0,False
2022-09-06,0.7091206264864824,0.7067832589939982,-0.3296149350591193,1,True
2022-09-07,0.7067832589939982,0.6982713924867864,-1.2043107132060804,5,True
2022-09-08,0.6982713924867864,0.698676198273859,0.05797255786621491,0,True
2022-09-09,0.698676198273859,0.698676198273859,0.0,0,False
2022-09-10,0.698676198273859,0.698676198273859,0.0,0,False
2022-09-11,0.698676198273859,0.698676198273859,0.0,0,False
2022-09-12,0.698676198273859,0.698676198273859,0.0,0,False
2022-09-13,0.698676198273859,0.6939916315698884,-0.6704918123079273,4,True
2022-09-14,0.6939916315698884,0.6889104504849992,-0.73216748642847,0,True
2022-09-15,0.6889104504849992,0.6899416571726613,0.1496866083155135,1,True
2022-09-16,0.6899416571726613,0.6875770008794828,-0.3427327903157362,1,True
2022-09-17,0.6875770008794828,0.6869806204712967,-0.08673652658877096,1,True
2022-09-18,0.6869806204712967,0.6863987843453915,-0.08469469277111452,0,True
2022-09-19,0.6863987843453915,0.6890717487506411,0.38941858089081016,9,True
2022-09-20,0.6890717487506411,0.6891985048621739,0.018395197853138257,0,True
2022-09-21,0.6891985048621739,0.6891985048621739,0.0,0,False
2022-09-22,0.6891985048621739,0.6874016663813186,-0.2607142163221443,1,True
2022-09-23,0.6874016663813186,0.6874016663813186,0.0,0,False
2022-09-24,0.6874016663813186,0.6874016663813186,0.0,0,False
2022-09-25,0.6874016663813186,0.6874016663813186,0.0,0,False
2022-09-26,0.6874016663813186,0.6874016663813186,0.0,0,False
2022-09-27,0.6874016663813186,0.6874016663813186,0.0,0,False
2022-09-28,0.6874016663813186,0.6874016663813186,0.0,0,False
2022-09-29,0.6874016663813186,0.6874016663813186,0.0,0,False
2022-09-30,0.6874016663813186,0.6874016663813186,0.0,0,False
2022-10-01,0.6874016663813186,0.6874016663813186,0.0,0,False
2022-10-02,0.6874016663813186,0.6874016663813186,0.0,0,False
2022-10-03,0.6874016663813186,0.6874016663813186,0.0,0,False
2022-10-04,0.6874016663813186,0.6874016663813186,0.0,0,False
2022-10-05,0.6874016663813186,0.6874016663813186,0.0,0,False
2022-10-06,0.6874016663813186,0.6874016663813186,0.0,0,False
2022-10-07,0.6874016663813186,0.6874016663813186,0.0,0,False
2022-10-08,0.6874016663813186,0.685595367201318,-0.26277201065129097,1,True
2022-10-09,0.685595367201318,0.685595367201318,0.0,0,False
2022-10-10,0.685595367201318,0.685595367201318,0.0,0,False
2022-10-11,0.685595367201318,0.6962049615869702,1.5475008865596385,6,True
2022-10-12,0.6962049615869702,0.6944079792254203,-0.2581111110518064,2,True
2022-10-13,0.6944079792254203,0.6954485025003622,0.149843219846435,1,True
2022-10-14,0.6954485025003622,0.7015150605385062,0.8723231146997579,0,True
2022-10-15,0.7015150605385062,0.7015150605385062,0.0,0,False
2022-10-16,0.7015150605385062,0.7015150605385062,0.0,0,False
2022-10-17,0.7015150605385062,0.7015150605385062,0.0,0,False
2022-10-18,0.7015150605385062,0.7015150605385062,0.0,0,False
2022-10-19,0.7015150605385062,0.7015150605385062,0.0,0,False
2022-10-20,0.7015150605385062,0.7044257344965773,0.41491254027201663,2,True
2022-10-21,0.7044257344965773,0.702438833247023,-0.28205971932218077,0,True
2022-10-22,0.702438833247023,0.702438833247023,0.0,0,False
2022-10-23,0.702438833247023,0.702438833247023,0.0,0,False
2022-10-24,0.702438833247023,0.702438833247023,0.0,0,False
2022-10-25,0.702438833247023,0.7019377436597899,-0.07133568981613214,1,True
2022-10-26,0.7019377436597899,0.7005545590271968,-0.197052323384328,0,True
2022-10-27,0.7005545590271968,0.7005545590271968,0.0,0,False
2022-10-28,0.7005545590271968,0.7005545590271968,0.0,0,False
2022-10-29,0.7005545590271968,0.7005545590271968,0.0,0,False
2022-10-30,0.7005545590271968,0.7005545590271968,0.0,0,False
2022-10-31,0.7005545590271968,0.7005545590271968,0.0,0,False
2022-11-01,0.7005545590271968,0.7005545590271968,0.0,0,False
2022-11-02,0.7005545590271968,0.7038277990797716,0.4672355650814808,2,True
2022-11-03,0.7038277990797716,0.7034173233416774,-0.05832047819521735,0,True
2022-11-04,0.7034173233416774,0.7035141120739489,0.013759787975042848,2,True
2022-11-05,0.7035141120739489,0.7022437479959217,-0.18057407182382468,0,True
2022-11-06,0.7022437479959217,0.7024195467526972,0.025033865702228653,1,True
2022-11-07,0.7024195467526972,0.7040956534614067,0.23861902995980788,3,True
2022-11-08,0.7040956534614067,0.6871743692045568,-2.403264978794162,7,True
2022-11-09,0.6871743692045568,0.6703582731730996,-2.447136678121853,5,True
2022-11-10,0.6703582731730996,0.6703582731730996,0.0,0,False
2022-11-11,0.6703582731730996,0.6659131356247223,-0.6630987825862911,10,True
2022-11-12,0.6659131356247223,0.6597734543854096,-0.9219943128998098,6,True
2022-11-13,0.6597734543854096,0.6561387045003688,-0.5509087795032008,1,True
2022-11-14,0.6561387045003688,0.6538612608470455,-0.347097898310611,2,True
2022-11-15,0.6538612608470455,0.6529578076592273,-0.13817200099114357,0,True
2022-11-16,0.6529578076592273,0.6525724554635647,-0.05901640062228042,1,True
2022-11-17,0.6525724554635647,0.653166962828059,0.09110212352925195,1,True
2022-11-18,0.653166962828059,0.6546122840736318,0.22127898804233936,0,True
2022-11-19,0.6546122840736318,0.6542995995864488,-0.0477663641197168,3,True
2022-11-20,0.6542995995864488,0.6495116983146964,-0.7317597740818749,2,True
2022-11-21,0.6495116983146964,0.6389545397280976,-1.625399298271557,4,True
2022-11-22,0.6389545397280976,0.6372241038652692,-0.2708230015181945,0,True
2022-11-23,0.6372241038652692,0.643114615084154,0.9244018208279137,1,True
2022-11-24,0.643114615084154,0.6406167076591073,-0.38840781510148803,1,True
2022-11-25,0.6406167076591073,0.6405467894530668,-0.01091420270570298,1,True
2022-11-26,0.6405467894530668,0.6396934457046187,-0.13322114207716673,0,True
2022-11-27,0.6396934457046187,0.6396934457046187,0.0,0,False
2022-11-28,0.6396934457046187,0.6400004431862334,0.047991343928255326,4,True
2022-11-29,0.6400004431862334,0.6387361218984633,-0.19755006441490863,0,True
2022-11-30,0.6387361218984633,0.6387361218984633,0.0,0,False
2022-12-01,0.6387361218984633,0.6387361218984633,0.0,0,False
2022-12-02,0.6387361218984633,0.6387361218984633,0.0,0,False
2022-12-03,0.6387361218984633,0.6387361218984633,0.0,0,False
2022-12-04,0.6387361218984633,0.6387361218984633,0.0,0,False
2022-12-05,0.6387361218984633,0.6387361218984633,0.0,0,False
2022-12-06,0.6387361218984633,0.6393278080936413,0.09263390230997981,2,True
2022-12-07,0.6393278080936413,0.6378686794237592,-0.22822856309550055,1,True
2022-12-08,0.6378686794237592,0.6360499882410333,-0.28512000061970966,1,True
2022-12-09,0.6360499882410333,0.6360499882410333,0.0,0,False
2022-12-10,0.6360499882410333,0.6360499882410333,0.0,0,False
2022-12-11,0.6360499882410333,0.6360499882410333,0.0,0,False
2022-12-12,0.6360499882410333,0.6348203874250228,-0.1933182672341438,1,True
2022-12-13,0.6348203874250228,0.6348203874250228,0.0,0,False
2022-12-14,0.6348203874250228,0.6348203874250228,0.0,0,False
2022-12-15,0.6348203874250228,0.6348203874250228,0.0,0,False
2022-12-16,0.6348203874250228,0.6353075664017855,0.07674280574681003,5,True
2022-12-17,0.6353075664017855,0.6307601681389932,-0.7157790184284529,5,True
2022-12-18,0.6307601681389932,0.6303573681042325,-0.06385945960238892,0,True
2022-12-19,0.6303573681042325,0.6303573681042325,0.0,0,False
2022-12-20,0.6303573681042325,0.6303573681042325,0.0,0,False
2022-12-21,0.6303573681042325,0.6303573681042325,0.0,0,False
2022-12-22,0.6303573681042325,0.6303573681042325,0.0,0,False
2022-12-23,0.6303573681042325,0.6303573681042325,0.0,0,False
2022-12-24,0.6303573681042325,0.6303573681042325,0.0,0,False
2022-12-25,0.6303573681042325,0.6303573681042325,0.0,0,False
2022-12-26,0.6303573681042325,0.6303573681042325,0.0,0,False
2022-12-27,0.6303573681042325,0.6303573681042325,0.0,0,False
2022-12-28,0.6303573681042325,0.6311425086376165,0.12455482764408554,4,True
2022-12-29,0.6311425086376165,0.6262488364511064,-0.7753672299895542,0,True
2022-12-30,0.6262488364511064,0.6262488364511064,0.0,0,False
2022-12-31,0.6262488364511064,0.6262488364511064,0.0,0,False
2023-01-01,0.6262488364511064,0.6262488364511064,0.0,0,False
2023-01-02,0.6262488364511064,0.6262488364511064,0.0,0,False
2023-01-03,0.6262488364511064,0.6262488364511064,0.0,0,False
2023-01-04,0.6262488364511064,0.6262488364511064,0.0,0,False
2023-01-05,0.6262488364511064,0.6262488364511064,0.0,0,False
2023-01-06,0.6262488364511064,0.6256591706641801,-0.09415838443196378,1,True
2023-01-07,0.6256591706641801,0.6267610369929951,0.17611287110925744,0,True
2023-01-08,0.6267610369929951,0.6267610369929951,0.0,0,False
2023-01-09,0.6267610369929951,0.6267610369929951,0.0,0,False
2023-01-10,0.6267610369929951,0.6266474315899948,-0.018125792175172073,1,True
2023-01-11,0.6266474315899948,0.6240244979082709,-0.41856609466487393,1,True
2023-01-12,0.6240244979082709,0.6233917312685194,-0.10140092927000133,0,True
2023-01-13,0.6233917312685194,0.6233917312685194,0.0,0,False
2023-01-14,0.6233917312685194,0.6247844958185197,0.22341723191710017,4,True
2023-01-15,0.6247844958185197,0.6235168501976214,-0.20289325829662141,1,True
2023-01-16,0.6235168501976214,0.6235168501976214,0.0,0,False
2023-01-17,0.6235168501976214,0.6235168501976214,0.0,0,False
2023-01-18,0.6235168501976214,0.6235168501976214,0.0,0,False
2023-01-19,0.6235168501976214,0.6148074282164213,-1.3968222315787648,5,True
2023-01-20,0.6148074282164213,0.6148074282164213,0.0,0,False
2023-01-21,0.6148074282164213,0.6153274592722826,0.08458438073364327,1,True
2023-01-22,0.6153274592722826,0.6146327242689917,-0.11290492449540501,0,True
2023-01-23,0.6146327242689917,0.6146327242689917,0.0,0,False
2023-01-24,0.6146327242689917,0.6146327242689917,0.0,0,False
2023-01-25,0.6146327242689917,0.6145025666900217,-0.02117648049488885,6,True
2023-01-26,0.6145025666900217,0.6144974486785538,-0.0008328706412763509,0,True
2023-01-27,0.6144974486785538,0.6144974486785538,0.0,0,False
2023-01-28,0.6144974486785538,0.6144974486785538,0.0,0,False
2023-01-29,0.6144974486785538,0.6144974486785538,0.0,0,False
2023-01-30,0.6144974486785538,0.6165065810471465,0.32695536375508816,4,True
2023-01-31,0.6165065810471465,0.6184737363744683,0.3190809940715633,2,True
2023-02-01,0.6184737363744683,0.62633287193367,1.2707306870090251,0,True
2023-02-02,0.62633287193367,0.62633287193367,0.0,0,False
2023-02-03,0.62633287193367,0.626598782518739,0.042455153957998704,1,True
2023-02-04,0.626598782518739,0.6278299558458914,0.19648511320169426,0,True
2023-02-05,0.6278299558458914,0.6292064623604874,0.21924830151522912,5,True
2023-02-06,0.6292064623604874,0.6220200695929211,-1.1421358802651715,0,True
2023-02-07,0.6220200695929211,0.6220200695929211,0.0,0,False
2023-02-08,0.6220200695929211,0.6204987967855063,-0.24456973042853436,1,True
2023-02-09,0.6204987967855063,0.625731472900318,0.8433015731730054,4,True
2023-02-10,0.625731472900318,0.6084708466034687,-2.7584718116934193,4,True
2023-02-11,0.6084708466034687,0.6084708466034687,0.0,0,False
2023-02-12,0.6084708466034687,0.6084708466034687,0.0,0,False
2023-02-13,0.6084708466034687,0.6089645060065798,0.08113115128962622,3,True
2023-02-14,0.6089645060065798,0.6088926550508916,-0.011798874151036642,0,True
2023-02-15,0.6088926550508916,0.6088926550508916,0.0,0,False
2023-02-16,0.6088926550508916,0.6088926550508916,0.0,0,False
2023-02-17,0.6088926550508916,0.611415179722076,0.4142806864657622,1,True
2023-02-18,0.611415179722076,0.611415179722076,0.0,0,False
2023-02-19,0.611415179722076,0.611415179722076,0.0,0,False
2023-02-20,0.611415179722076,0.6125277195498237,0.18196143384161534,1,True
2023-02-21,0.6125277195498237,0.6106548618572906,-0.30575884694811206,1,True
2023-02-22,0.6106548618572906,0.6106548618572906,0.0,0,False
2023-02-23,0.6106548618572906,0.6143912450281395,0.6118649673048981,1,True
2023-02-24,0.6143912450281395,0.6143912450281395,0.0,0,False
2023-02-25,0.6143912450281395,0.6137590253996077,-0.10290179647706177,1,True
2023-02-26,0.6137590253996077,0.6137590253996077,0.0,0,False
2023-02-27,0.6137590253996077,0.6137590253996077,0.0,0,False
2023-02-28,0.6137590253996077,0.6137590253996077,0.0,0,False
2023-03-01,0.6137590253996077,0.6137590253996077,0.0,0,False
2023-03-02,0.6137590253996077,0.6123563510677628,-0.22853828193103443,1,True
2023-03-03,0.6123563510677628,0.606076953159655,-1.0254483189662933,9,True
2023-03-04,0.606076953159655,0.6062011771531202,0.020496406078063245,0,True
2023-03-05,0.6062011771531202,0.6104694591469502,0.7041032176603457,3,True
2023-03-06,0.6104694591469502,0.6097849106733054,-0.11213476176208381,0,True
2023-03-07,0.6097849106733054,0.6097849106733054,0.0,0,False
2023-03-08,0.6097849106733054,0.6097849106733054,0.0,0,False
2023-03-09,0.6097849106733054,0.6097849106733054,0.0,0,False
2023-03-10,0.6097849106733054,0.5988803943934281,-1.7882561685294673,8,True
2023-03-11,0.5988803943934281,0.5977329744472833,-0.19159417421017455,5,True
2023-03-12,0.5977329744472833,0.6001413516691491,0.40291858151086934,0,True
2023-03-13,0.6001413516691491,0.6001413516691491,0.0,0,False
2023-03-14,0.6001413516691491,0.6001413516691491,0.0,0,False
2023-03-15,0.6001413516691491,0.599002511390638,-0.189762007790939,1,True
2023-03-16,0.599002511390638,0.5981636509275207,-0.14004289584192975,1,True
2023-03-17,0.5981636509275207,0.5980422624726562,-0.020293519119085612,1,True
2023-03-18,0.5980422624726562,0.6069828573604044,1.4949771025851044,1,True
2023-03-19,0.6069828573604044,0.6038184738924025,-0.5213299567903507,1,True
2023-03-20,0.6038184738924025,0.6038184738924025,0.0,0,False
2023-03-21,0.6038184738924025,0.6038184738924025,0.0,0,False
2023-03-22,0.6038184738924025,0.6038184738924025,0.0,0,False
2023-03-23,0.6038184738924025,0.6138406346289249,1.6597969704233106,6,True
2023-03-24,0.6138406346289249,0.6081653921179971,-0.9245465664485586,1,True
2023-03-25,0.6081653921179971,0.6056835399259402,-0.40808836284051964,1,True
2023-03-26,0.6056835399259402,0.6051278753705202,-0.09174172959826032,0,True
2023-03-27,0.6051278753705202,0.6021083732149739,-0.4989857976212764,1,True
2023-03-28,0.6021083732149739,0.6081687736716175,1.006529841842907,4,True
2023-03-29,0.6081687736716175,0.6084155380614791,0.040574985192320945,0,True
2023-03-30,0.6084155380614791,0.6084155380614791,0.0,0,False
2023-03-31,0.6084155380614791,0.6084155380614791,0.0,0,False
2023-04-01,0.6084155380614791,0.6084155380614791,0.0,0,False
2023-04-02,0.6084155380614791,0.6084155380614791,0.0,0,False
2023-04-03,0.6084155380614791,0.6084155380614791,0.0,0,False
2023-04-04,0.6084155380614791,0.6084155380614791,0.0,0,False
2023-04-05,0.6084155380614791,0.6084155380614791,0.0,0,False
2023-04-06,0.6084155380614791,0.6084155380614791,0.0,0,False
2023-04-07,0.6084155380614791,0.6068829123238889,-0.2519044372984558,1,True
2023-04-08,0.6068829123238889,0.6068829123238889,0.0,0,False
2023-04-09,0.6068829123238889,0.6068829123238889,0.0,0,False
2023-04-10,0.6068829123238889,0.6068829123238889,0.0,0,False
2023-04-11,0.6068829123238889,0.6068829123238889,0.0,0,False
2023-04-12,0.6068829123238889,0.6091040938789017,0.3659983680389667,1,True
2023-04-13,0.6091040938789017,0.6093187582007569,0.035242633239929155,0,True
2023-04-14,0.6093187582007569,0.6125678368045844,0.5332313440376657,1,True
2023-04-15,0.6125678368045844,0.6119593038541048,-0.09934131600084495,0,True
2023-04-16,0.6119593038541048,0.6119593038541048,0.0,0,False
2023-04-17,0.6119593038541048,0.6119593038541048,0.0,0,False
2023-04-18,0.6119593038541048,0.6119593038541048,0.0,0,False
2023-04-19,0.6119593038541048,0.607177111458555,-0.7814559506541752,7,True
2023-04-20,0.607177111458555,0.6015820344426405,-0.9214901073056114,0,True
2023-04-21,0.6015820344426405,0.6015820344426405,0.0,0,False
2023-04-22,0.6015820344426405,0.6015820344426405,0.0,0,False
2023-04-23,0.6015820344426405,0.6015820344426405,0.0,0,False
2023-04-24,0.6015820344426405,0.6015820344426405,0.0,0,False
2023-04-25,0.6015820344426405,0.6015820344426405,0.0,0,False
2023-04-26,0.6015820344426405,0.6015820344426405,0.0,0,False
2023-04-27,0.6015820344426405,0.5975936565603981,-0.6629815476350776,8,True
2023-04-28,0.5975936565603981,0.6016905060048449,0.6855577196095419,0,True
2023-04-29,0.6016905060048449,0.6016905060048449,0.0,0,False
2023-04-30,0.6016905060048449,0.6016905060048449,0.0,0,False
2023-05-01,0.6016905060048449,0.6016905060048449,0.0,0,False
2023-05-02,0.6016905060048449,0.6016905060048449,0.0,0,False
2023-05-03,0.6016905060048449,0.6016905060048449,0.0,0,False
2023-05-04,0.6016905060048449,0.6016905060048449,0.0,0,False
2023-05-05,0.6016905060048449,0.6016905060048449,0.0,0,False
2023-05-06,0.6016905060048449,0.598689912882215,-0.49869377905819023,1,True
2023-05-07,0.598689912882215,0.598689912882215,0.0,0,False
2023-05-08,0.598689912882215,0.6088817906378821,1.7023633664715154,5,True
2023-05-09,0.6088817906378821,0.6049867870790413,-0.6396978229157191,6,True
2023-05-10,0.6049867870790413,0.6012529374456681,-0.6171787075550439,1,True
2023-05-11,0.6012529374456681,0.6034539044300634,0.36606340648344116,5,True
2023-05-12,0.6034539044300634,0.6007582116941221,-0.44671062961921804,0,True
2023-05-13,0.6007582116941221,0.6007582116941221,0.0,0,False
2023-05-14,0.6007582116941221,0.6007582116941221,0.0,0,False
2023-05-15,0.6007582116941221,0.6007582116941221,0.0,0,False
2023-05-16,0.6007582116941221,0.6007582116941221,0.0,0,False
2023-05-17,0.6007582116941221,0.6007582116941221,0.0,0,False
2023-05-18,0.6007582116941221,0.5992594260809914,-0.24948233481557613,1,True
2023-05-19,0.5992594260809914,0.5992594260809914,0.0,0,False
2023-05-20,0.5992594260809914,0.5992594260809914,0.0,0,False
2023-05-21,0.5992594260809914,0.5992594260809914,0.0,0,False
2023-05-22,0.5992594260809914,0.5992594260809914,0.0,0,False
2023-05-23,0.5992594260809914,0.5992594260809914,0.0,0,False
2023-05-24,0.5992594260809914,0.5992594260809914,0.0,0,False
2023-05-25,0.5992594260809914,0.5992594260809914,0.0,0,False
2023-05-26,0.5992594260809914,0.6003464384636524,0.18139262151783964,1,True
2023-05-27,0.6003464384636524,0.6043438106237035,0.6658442365845785,0,True
2023-05-28,0.6043438106237035,0.6043438106237035,0.0,0,False
2023-05-29,0.6043438106237035,0.6043438106237035,0.0,0,False
2023-05-30,0.6043438106237035,0.6056210548814908,0.2113439792606142,2,True
2023-05-31,0.6056210548814908,0.602753645686127,-0.47346590285320955,1,True
2023-06-01,0.602753645686127,0.602753645686127,0.0,0,False
2023-06-02,0.602753645686127,0.602753645686127,0.0,0,False
2023-06-03,0.602753645686127,0.602753645686127,0.0,0,False
2023-06-04,0.602753645686127,0.5999263829716537,-0.4690577543093877,1,True
2023-06-05,0.5999263829716537,0.5999263829716537,0.0,0,False
2023-06-06,0.5999263829716537,0.5950197468600581,-0.8178730342365048,8,True
2023-06-07,0.5950197468600581,0.5947849380152722,-0.03946236171572526,0,True
2023-06-08,0.5947849380152722,0.5947849380152722,0.0,0,False
2023-06-09,0.5947849380152722,0.5947849380152722,0.0,0,False
2023-06-10,0.5947849380152722,0.601183777422706,1.0758240497457772,6,True
2023-06-11,0.601183777422706,0.6020112235680628,0.13763613996773394,1,True
2023-06-12,0.6020112235680628,0.6020053687861687,-0.0009725370001212319,0,True
2023-06-13,0.6020053687861687,0.6020053687861687,0.0,0,False
2023-06-14,0.6020053687861687,0.6020053687861687,0.0,0,False
2023-06-15,0.6020053687861687,0.6042273401876124,0.3690949477616501,4,True
2023-06-16,0.6042273401876124,0.6067459931407866,0.41683862772448066,0,True
2023-06-17,0.6067459931407866,0.6067459931407866,0.0,0,False
2023-06-18,0.6067459931407866,0.6067459931407866,0.0,0,False
2023-06-19,0.6067459931407866,0.6067459931407866,0.0,0,False
2023-06-20,0.6067459931407866,0.6047489097480329,-0.3291465317168285,1,True
2023-06-21,0.6047489097480329,0.6047489097480329,0.0,0,False
2023-06-22,0.6047489097480329,0.6047489097480329,0.0,0,False
2023-06-23,0.6047489097480329,0.6047489097480329,0.0,0,False
2023-06-24,0.6047489097480329,0.6047489097480329,0.0,0,False
2023-06-25,0.6047489097480329,0.6041041019930442,-0.10662404588002161,3,True
2023-06-26,0.6041041019930442,0.6028937597273272,-0.20035326059265612,0,True
2023-06-27,0.6028937597273272,0.6028937597273272,0.0,0,False
2023-06-28,0.6028937597273272,0.6028937597273272,0.0,0,False
2023-06-29,0.6028937597273272,0.602026973548268,-0.1437709654601882,2,True
2023-06-30,0.602026973548268,0.5978864600635365,-0.6877621214092411,6,True
2023-07-01,0.5978864600635365,0.6038040964278752,0.9897592201218108,0,True
2023-07-02,0.6038040964278752,0.6038040964278752,0.0,0,False
2023-07-03,0.6038040964278752,0.6038040964278752,0.0,0,False
2023-07-04,0.6038040964278752,0.6038040964278752,0.0,0,False
2023-07-05,0.6038040964278752,0.6032212487428835,-0.09652926974823561,1,True
2023-07-06,0.6032212487428835,0.6038953734096132,0.1117541313629955,1,True
2023-07-07,0.6038953734096132,0.6022538279801175,-0.2718261311106751,0,True
2023-07-08,0.6022538279801175,0.6022538279801175,0.0,0,False
2023-07-09,0.6022538279801175,0.6022538279801175,0.0,0,False
2023-07-10,0.6022538279801175,0.6022538279801175,0.0,0,False
2023-07-11,0.6022538279801175,0.6022538279801175,0.0,0,False
2023-07-12,0.6022538279801175,0.6011674035762715,-0.18039310891384552,1,True
2023-07-13,0.6011674035762715,0.6011674035762715,0.0,0,False
2023-07-14,0.6011674035762715,0.6011674035762715,0.0,0,False
2023-07-15,0.6011674035762715,0.6064742921286654,0.8827638559282924,5,True
2023-07-16,0.6064742921286654,0.6062387741725723,-0.03883395539594492,1,True
2023-07-17,0.6062387741725723,0.6055173338091109,-0.11900267587571234,0,True
2023-07-18,0.6055173338091109,0.6055173338091109,0.0,0,False
2023-07-19,0.6055173338091109,0.6055173338091109,0.0,0,False
2023-07-20,0.6055173338091109,0.6055173338091109,0.0,0,False
2023-07-21,0.6055173338091109,0.6055173338091109,0.0,0,False
2023-07-22,0.6055173338091109,0.6055173338091109,0.0,0,False
2023-07-23,0.6055173338091109,0.6055173338091109,0.0,0,False
2023-07-24,0.6055173338091109,0.6052105491083787,-0.05066489158985776,2,True
2023-07-25,0.6052105491083787,0.6048721383430021,-0.055916204017780746,0,True
2023-07-26,0.6048721383430021,0.6048721383430021,0.0,0,False
2023-07-27,0.6048721383430021,0.6048721383430021,0.0,0,False
2023-07-28,0.6048721383430021,0.6048721383430021,0.0,0,False
2023-07-29,0.6048721383430021,0.6048721383430021,0.0,0,False
2023-07-30,0.6048721383430021,0.6048721383430021,0.0,0,False
2023-07-31,0.6048721383430021,0.6018548720951898,-0.498827116765177,1,True
2023-08-01,0.6018548720951898,0.5992505044408062,-0.4327235310594535,2,True
2023-08-02,0.5992505044408062,0.5992505044408062,0.0,0,False
2023-08-03,0.5992505044408062,0.5992505044408062,0.0,0,False
2023-08-04,0.5992505044408062,0.5992505044408062,0.0,0,False
2023-08-05,0.5992505044408062,0.5992505044408062,0.0,0,False
2023-08-06,0.5992505044408062,0.5992505044408062,0.0,0,False
2023-08-07,0.5992505044408062,0.5994839548594082,0.03895706668113341,1,True
2023-08-08,0.5994839548594082,0.5988597065794802,-0.10413094043099091,1,True
2023-08-09,0.5988597065794802,0.5989379561812461,0.013066432906772008,0,True
2023-08-10,0.5989379561812461,0.5963432303297957,-0.43322114163444336,1,True
2023-08-11,0.5963432303297957,0.5960833644934513,-0.043576555099100744,0,True
2023-08-12,0.5960833644934513,0.5960833644934513,0.0,0,False
2023-08-13,0.5960833644934513,0.5976510069391674,0.26299047064468617,1,True
2023-08-14,0.5976510069391674,0.5971679056335613,-0.08083334588195878,0,True
2023-08-15,0.5971679056335613,0.5971679056335613,0.0,0,False
2023-08-16,0.5971679056335613,0.5970675809503128,-0.01680007955920937,6,True
2023-08-17,0.5970675809503128,0.5997732070763608,0.45315240893530895,4,True
2023-08-18,0.5997732070763608,0.6135108204831218,2.2904680043521752,5,True
2023-08-19,0.6135108204831218,0.6131685892295616,-0.055782431561790524,0,True
2023-08-20,0.6131685892295616,0.6131685892295616,0.0,0,False
2023-08-21,0.6131685892295616,0.6131685892295616,0.0,0,False
2023-08-22,0.6131685892295616,0.6140262548466024,0.13987435627100808,1,True
2023-08-23,0.6140262548466024,0.6140262548466024,0.0,0,False
2023-08-24,0.6140262548466024,0.6140262548466024,0.0,0,False
2023-08-25,0.6140262548466024,0.6025326259447095,-1.871846490467144,4,True
2023-08-26,0.6025326259447095,0.6041219680493015,0.2637769369086218,0,True
2023-08-27,0.6041219680493015,0.6041219680493015,0.0,0,False
2023-08-28,0.6041219680493015,0.6025149011772973,-0.26601695634299594,1,True
2023-08-29,0.6025149011772973,0.6059735484695674,0.5740351459377901,1,True
2023-08-30,0.6059735484695674,0.6033601063407988,-0.4312799024592806,1,True
2023-08-31,0.6033601063407988,0.6050339121565687,0.27741406801338186,1,True
2023-09-01,0.6050339121565687,0.6027933609072913,-0.37031829196005894,0,True
2023-09-02,0.6027933609072913,0.6010720166223685,-0.2855612547443931,1,True
2023-09-03,0.6010720166223685,0.6005244551120162,-0.09109748835576248,0,True
2023-09-04,0.6005244551120162,0.5990854161393978,-0.23963036981566876,2,True
2023-09-05,0.5990854161393978,0.6011460484857185,0.3439630294457485,0,True
2023-09-06,0.6011460484857185,0.6013124573702897,0.027681939354073926,2,True
2023-09-07,0.6013124573702897,0.6006715035829601,-0.1065924677717045,1,True
2023-09-08,0.6006715035829601,0.6000197714765272,-0.10850058685077935,1,True
2023-09-09,0.6000197714765272,0.5995171656136205,-0.08376488355874567,2,True
2023-09-10,0.5995171656136205,0.5962631909250873,-0.5427658914824662,3,True
2023-09-11,0.5962631909250873,0.5956911308464454,-0.09594086761490761,0,True
2023-09-12,0.5956911308464454,0.5956911308464454,0.0,0,False
2023-09-13,0.5956911308464454,0.5956911308464454,0.0,0,False
2023-09-14,0.5956911308464454,0.5962575321565393,0.09508305240151227,2,True
2023-09-15,0.5962575321565393,0.603684855618242,1.2456569621585478,0,True
2023-09-16,0.603684855618242,0.6016518128374867,-0.33677220189221035,2,True
2023-09-17,0.6016518128374867,0.6020188413970486,0.06100348270057232,1,True
2023-09-18,0.6020188413970486,0.6020188413970486,0.0,0,False
2023-09-19,0.6020188413970486,0.6020188413970486,0.0,0,False
2023-09-20,0.6020188413970486,0.6030602924006648,0.1729930912460098,1,True
2023-09-21,0.6030602924006648,0.6022730198444287,-0.13054624324578823,0,True
2023-09-22,0.6022730198444287,0.6085142316069169,1.0362761665963838,1,True
2023-09-23,0.6085142316069169,0.607899010354036,-0.10110219628819417,0,True
2023-09-24,0.607899010354036,0.6060348541844763,-0.30665556906797065,1,True
2023-09-25,0.6060348541844763,0.6056873890083463,-0.05733419022534436,1,True
2023-09-26,0.6056873890083463,0.6056873890083463,0.0,0,False
2023-09-27,0.6056873890083463,0.6056873890083463,0.0,0,False
2023-09-28,0.6056873890083463,0.6056873890083463,0.0,0,False
2023-09-29,0.6056873890083463,0.6026674511552048,-0.4985967857256912,1,True
2023-09-30,0.6026674511552048,0.6026674511552048,0.0,0,False
2023-10-01,0.6026674511552048,0.6022842547991928,-0.06358338338623426,1,True
2023-10-02,0.6022842547991928,0.6038612354011924,0.26183327713347193,0,True
2023-10-03,0.6038612354011924,0.6036517889928439,-0.03468452619075357,2,True
2023-10-04,0.6036517889928439,0.6013242441917522,-0.3855773880791502,3,True
2023-10-05,0.6013242441917522,0.5975881294972395,-0.6213144955654504,0,True
2023-10-06,0.5975881294972395,0.5975881294972395,0.0,0,False
2023-10-07,0.5975881294972395,0.5959975901052565,-0.2661598036294843,1,True
2023-10-08,0.5959975901052565,0.594119850505879,-0.3150582536828539,1,True
2023-10-09,0.594119850505879,0.5930096730441095,-0.18686085994673585,1,True
2023-10-10,0.5930096730441095,0.5903777932300959,-0.44381734964006325,1,True
2023-10-11,0.5903777932300959,0.5903777932300959,0.0,0,False
2023-10-12,0.5903777932300959,0.5903777932300959,0.0,0,False
2023-10-13,0.5903777932300959,0.5903777932300959,0.0,0,False
2023-10-14,0.5903777932300959,0.5903777932300959,0.0,0,False
2023-10-15,0.5903777932300959,0.5903777932300959,0.0,0,False
2023-10-16,0.5903777932300959,0.5903777932300959,0.0,0,False
2023-10-17,0.5903777932300959,0.5903777932300959,0.0,0,False
2023-10-18,0.5903777932300959,0.5872079402376942,-0.5369194147799239,3,True
2023-10-19,0.5872079402376942,0.5814197925665505,-0.9857066423183403,3,True
2023-10-20,0.5814197925665505,0.5804231192343758,-0.17142060606073484,0,True
2023-10-21,0.5804231192343758,0.5808964370664259,0.08154703290841336,2,True
2023-10-22,0.5808964370664259,0.5808595040574582,-0.006357933464729015,0,True
2023-10-23,0.5808595040574582,0.5808595040574582,0.0,0,False
2023-10-24,0.5808595040574582,0.5797450901729612,-0.19185601280733433,1,True
2023-10-25,0.5797450901729612,0.5806381187405752,0.15403814240972924,3,True
2023-10-26,0.5806381187405752,0.5800081443718157,-0.10849690167190618,1,True
2023-10-27,0.5800081443718157,0.575196155420109,-0.8296416176911348,5,True
2023-10-28,0.575196155420109,0.5750953292248225,-0.017529010640360276,1,True
2023-10-29,0.5750953292248225,0.5750953292248225,0.0,0,False
2023-10-30,0.5750953292248225,0.5750953292248225,0.0,0,False
2023-10-31,0.5750953292248225,0.5737552329598327,-0.2330215873594721,1,True
2023-11-01,0.5737552329598327,0.572543964818404,-0.21111234753887764,1,True
2023-11-02,0.572543964818404,0.5717098037864221,-0.1456937952784898,2,True
2023-11-03,0.5717098037864221,0.5702613202358146,-0.25335992858864786,0,True
2023-11-04,0.5702613202358146,0.5699443498288098,-0.05558336077812198,1,True
2023-11-05,0.5699443498288098,0.5696095633716866,-0.058740201078200105,1,True
2023-11-06,0.5696095633716866,0.5666915351147171,-0.5122856856013325,3,True
2023-11-07,0.5666915351147171,0.5612421331244591,-0.9616169737130198,2,True
2023-11-08,0.5612421331244591,0.5612421331244591,0.0,0,False
2023-11-09,0.5612421331244591,0.5612421331244591,0.0,0,False
2023-11-10,0.5612421331244591,0.5625517754784036,0.23334712001281677,6,True
2023-11-11,0.5625517754784036,0.5625517754784036,0.0,0,False
2023-11-12,0.5625517754784036,0.5631776878938726,0.11126307706283978,1,True
2023-11-13,0.5631776878938726,0.5610832366885022,-0.3718988252540689,1,True
2023-11-14,0.5610832366885022,0.5619012177454968,0.14578604447752497,2,True
2023-11-15,0.5619012177454968,0.5612314856430979,-0.11919036322542986,1,True
2023-11-16,0.5612314856430979,0.5613243369440305,0.016544207391744337,0,True
2023-11-17,0.5613243369440305,0.5606709704478708,-0.11639732203965192,2,True
2023-11-18,0.5606709704478708,0.5562507453357299,-0.7883813047445565,3,True
2023-11-19,0.5562507453357299,0.5543548140079456,-0.34084113031435104,2,True
2023-11-20,0.5543548140079456,0.5553482736498099,0.17921006849053178,0,True
2023-11-21,0.5553482736498099,0.5593364626336907,0.7181419612003248,2,True
2023-11-22,0.5593364626336907,0.5534317351263747,-1.0556664730050125,4,True
2023-11-23,0.5534317351263747,0.5516714990045188,-0.318058400003729,2,True
2023-11-24,0.5516714990045188,0.5584652308292543,1.2314813864763074,1,True
2023-11-25,0.5584652308292543,0.5559514720357972,-0.4501191219593803,2,True
2023-11-26,0.5559514720357972,0.5549838942122994,-0.17403997869718246,0,True
2023-11-27,0.5549838942122994,0.5549838942122994,0.0,0,False
2023-11-28,0.5549838942122994,0.5550096799850963,0.004646220019322023,1,True
2023-11-29,0.5550096799850963,0.5553896662290612,0.0684647957806872,1,True
2023-11-30,0.5553896662290612,0.5552142880375169,-0.03157750354538802,0,True
2023-12-01,0.5552142880375169,0.5552142880375169,0.0,0,False
2023-12-02,0.5552142880375169,0.5552142880375169,0.0,0,False
2023-12-03,0.5552142880375169,0.5556212726511633,0.07330225868014129,1,True
2023-12-04,0.5556212726511633,0.5607264670923775,0.9188263107448247,5,True
2023-12-05,0.5607264670923775,0.5602769758280803,-0.08016230562969406,0,True
2023-12-06,0.5602769758280803,0.5589928277930538,-0.22919878746195943,1,True
2023-12-07,0.5589928277930538,0.5589345656254889,-0.010422703953982815,2,True
2023-12-08,0.5589345656254889,0.5574410776994152,-0.2672026419411777,0,True
2023-12-09,0.5574410776994152,0.5574410776994152,0.0,0,False
2023-12-10,0.5574410776994152,0.5553828444628235,-0.3692288421022205,1,True
2023-12-11,0.5553828444628235,0.5565875521253084,0.21691481371739485,5,True
2023-12-12,0.5565875521253084,0.5555774283819972,-0.18148514810546468,0,True
2023-12-13,0.5555774283819972,0.5547472659148747,-0.1494233611218143,3,True
2023-12-14,0.5547472659148747,0.5571777221276211,0.43811954777968065,0,True
2023-12-15,0.5571777221276211,0.5571777221276211,0.0,0,False
2023-12-16,0.5571777221276211,0.5626492986056891,0.9820163766014245,3,True
2023-12-17,0.5626492986056891,0.5586632702595379,-0.7084392277799112,2,True
2023-12-18,0.5586632702595379,0.5576167221138586,-0.18733075922336972,2,True
2023-12-19,0.5576167221138586,0.5773847527362911,3.5450928636957313,1,True
2023-12-20,0.5773847527362911,0.5789004486358907,0.26251055165842363,0,True
2023-12-21,0.5789004486358907,0.5781376226962148,-0.13177152332035647,1,True
2023-12-22,0.5781376226962148,0.5771271960333783,-0.174772687880842,0,True
2023-12-23,0.5771271960333783,0.5769186218196363,-0.03614007712260392,1,True
2023-12-24,0.5769186218196363,0.5762585978013337,-0.11440504662872941,1,True
2023-12-25,0.5762585978013337,0.5795648760717872,0.5737490569456716,1,True
2023-12-26,0.5795648760717872,0.5795648760717872,0.0,0,False
2023-12-27,0.5795648760717872,0.5708229162363837,-1.5083660512098862,7,True
2023-12-28,0.5708229162363837,0.5695661593711673,-0.22016580439737643,1,True
2023-12-29,0.5695661593711673,0.5695661593711673,0.0,0,False
2023-12-30,0.5695661593711673,0.5690158202257647,-0.09662427030605603,1,True
2023-12-31,0.5690158202257647,0.5693853875405746,0.06494851314735595,0,True
