day,start_equity,end_equity,return_pct,entries,active
2021-09-02,1.0,1.0,0.0,0,False
2021-09-03,1.0,1.0,0.0,0,False
2021-09-04,1.0,1.0,0.0,0,False
2021-09-05,1.0,1.0,0.0,0,False
2021-09-06,1.0,1.0,0.0,0,False
2021-09-07,1.0,1.0,0.0,0,False
2021-09-08,1.0,1.0,0.0,0,False
2021-09-09,1.0,1.0,0.0,0,False
2021-09-10,1.0,1.0,0.0,0,False
2021-09-11,1.0,1.0,0.0,0,False
2021-09-12,1.0,1.0,0.0,0,False
2021-09-13,1.0,1.0,0.0,0,False
2021-09-14,1.0,1.0,0.0,0,False
2021-09-15,1.0,1.0,0.0,0,False
2021-09-16,1.0,1.0,0.0,0,False
2021-09-17,1.0,1.0,0.0,0,False
2021-09-18,1.0,1.0,0.0,0,False
2021-09-19,1.0,1.0,0.0,0,False
2021-09-20,1.0,1.0,0.0,0,False
2021-09-21,1.0,1.0,0.0,0,False
2021-09-22,1.0,1.0,0.0,0,False
2021-09-23,1.0,1.0,0.0,0,False
2021-09-24,1.0,1.0,0.0,0,False
2021-09-25,1.0,1.0,0.0,0,False
2021-09-26,1.0,1.0,0.0,0,False
2021-09-27,1.0,1.0,0.0,0,False
2021-09-28,1.0,1.0,0.0,0,False
2021-09-29,1.0,1.0,0.0,0,False
2021-09-30,1.0,1.0,0.0,0,False
2021-10-01,1.0,1.0,0.0,0,False
2021-10-02,1.0,1.0,0.0,0,False
2021-10-03,1.0,1.0,0.0,0,False
2021-10-04,1.0,1.0,0.0,0,False
2021-10-05,1.0,1.0,0.0,0,False
2021-10-06,1.0,1.0,0.0,0,False
2021-10-07,1.0,1.0,0.0,0,False
2021-10-08,1.0,1.0,0.0,0,False
2021-10-09,1.0,1.0,0.0,0,False
2021-10-10,1.0,1.0,0.0,0,False
2021-10-11,1.0,1.0,0.0,0,False
2021-10-12,1.0,1.0,0.0,0,False
2021-10-13,1.0,1.0044085104710179,0.4408510471017868,1,True
2021-10-14,1.0044085104710179,1.0076726271163816,0.3249789912505907,0,True
2021-10-15,1.0076726271163816,1.0076726271163816,0.0,0,False
2021-10-16,1.0076726271163816,1.0076726271163816,0.0,0,False
2021-10-17,1.0076726271163816,1.0076726271163816,0.0,0,False
2021-10-18,1.0076726271163816,1.0076726271163816,0.0,0,False
2021-10-19,1.0076726271163816,1.0076726271163816,0.0,0,False
2021-10-20,1.0076726271163816,1.0076726271163816,0.0,0,False
2021-10-21,1.0076726271163816,1.0076726271163816,0.0,0,False
2021-10-22,1.0076726271163816,1.0076726271163816,0.0,0,False
2021-10-23,1.0076726271163816,1.0076726271163816,0.0,0,False
2021-10-24,1.0076726271163816,1.0076726271163816,0.0,0,False
2021-10-25,1.0076726271163816,1.0112256039508694,0.3525923736417358,1,True
2021-10-26,1.0112256039508694,1.0112256039508694,0.0,0,False
2021-10-27,1.0112256039508694,1.0198229960771616,0.8501952573888749,4,True
2021-10-28,1.0198229960771616,1.015339962583986,-0.4395893709418175,0,True
2021-10-29,1.015339962583986,1.015339962583986,0.0,0,False
2021-10-30,1.015339962583986,1.015339962583986,0.0,0,False
2021-10-31,1.015339962583986,1.015339962583986,0.0,0,False
2021-11-01,1.015339962583986,1.015339962583986,0.0,0,False
2021-11-02,1.015339962583986,1.015339962583986,0.0,0,False
2021-11-03,1.015339962583986,1.015339962583986,0.0,0,False
2021-11-04,1.015339962583986,1.015339962583986,0.0,0,False
2021-11-05,1.015339962583986,1.015339962583986,0.0,0,False
2021-11-06,1.015339962583986,1.015339962583986,0.0,0,False
2021-11-07,1.015339962583986,1.015339962583986,0.0,0,False
2021-11-08,1.015339962583986,1.015339962583986,0.0,0,False
2021-11-09,1.015339962583986,1.015339962583986,0.0,0,False
2021-11-10,1.015339962583986,1.015339962583986,0.0,0,False
2021-11-11,1.015339962583986,1.0115476392436622,-0.3735028148279085,3,True
2021-11-12,1.0115476392436622,1.0115476392436622,0.0,0,False
2021-11-13,1.0115476392436622,1.0115476392436622,0.0,0,False
2021-11-14,1.0115476392436622,1.0115476392436622,0.0,0,False
2021-11-15,1.0115476392436622,1.0115476392436622,0.0,0,False
2021-11-16,1.0115476392436622,1.0380015132930795,2.6151881555669387,4,True
2021-11-17,1.0380015132930795,1.0413185480078526,0.3195597185836174,0,True
2021-11-18,1.0413185480078526,1.038089619407808,-0.31008077271089673,1,True
2021-11-19,1.038089619407808,1.0361124961209804,-0.19045786123508268,0,True
2021-11-20,1.0361124961209804,1.0361124961209804,0.0,0,False
2021-11-21,1.0361124961209804,1.0361124961209804,0.0,0,False
2021-11-22,1.0361124961209804,1.0361124961209804,0.0,0,False
2021-11-23,1.0361124961209804,1.0361124961209804,0.0,0,False
2021-11-24,1.0361124961209804,1.0361124961209804,0.0,0,False
2021-11-25,1.0361124961209804,1.0361124961209804,0.0,0,False
2021-11-26,1.0361124961209804,1.039404615845213,0.3177376719765146,5,True
2021-11-27,1.039404615845213,1.0380013286393006,-0.135008752560839,0,True
2021-11-28,1.0380013286393006,1.0380013286393006,0.0,0,False
2021-11-29,1.0380013286393006,1.0380013286393006,0.0,0,False
2021-11-30,1.0380013286393006,1.0380013286393006,0.0,0,False
2021-12-01,1.0380013286393006,1.0359284090150258,-0.19970298371314588,1,True
2021-12-02,1.0359284090150258,1.036715179899903,0.0759483838873809,1,True
2021-12-03,1.036715179899903,1.0343323844079528,-0.22984089923138162,1,True
2021-12-04,1.0343323844079528,1.0138007111827798,-1.9850169572835363,4,True
2021-12-05,1.0138007111827798,1.0138007111827798,0.0,0,False
2021-12-06,1.0138007111827798,1.0138007111827798,0.0,0,False
2021-12-07,1.0138007111827798,1.0138007111827798,0.0,0,False
2021-12-08,1.0138007111827798,1.0138007111827798,0.0,0,False
2021-12-09,1.0138007111827798,1.0138007111827798,0.0,0,False
2021-12-10,1.0138007111827798,1.0138007111827798,0.0,0,False
2021-12-11,1.0138007111827798,1.0138007111827798,0.0,0,False
2021-12-12,1.0138007111827798,1.0138007111827798,0.0,0,False
2021-12-13,1.0138007111827798,1.0138007111827798,0.0,0,False
2021-12-14,1.0138007111827798,1.0138007111827798,0.0,0,False
2021-12-15,1.0138007111827798,1.0138007111827798,0.0,0,False
2021-12-16,1.0138007111827798,1.0138007111827798,0.0,0,False
2021-12-17,1.0138007111827798,1.0138007111827798,0.0,0,False
2021-12-18,1.0138007111827798,1.0138007111827798,0.0,0,False
2021-12-19,1.0138007111827798,1.0138007111827798,0.0,0,False
2021-12-20,1.0138007111827798,1.0138007111827798,0.0,0,False
2021-12-21,1.0138007111827798,1.0138007111827798,0.0,0,False
2021-12-22,1.0138007111827798,1.0138007111827798,0.0,0,False
2021-12-23,1.0138007111827798,1.0138007111827798,0.0,0,False
2021-12-24,1.0138007111827798,1.0138007111827798,0.0,0,False
2021-12-25,1.0138007111827798,1.0138007111827798,0.0,0,False
2021-12-26,1.0138007111827798,1.0138007111827798,0.0,0,False
2021-12-27,1.0138007111827798,1.0138007111827798,0.0,0,False
2021-12-28,1.0138007111827798,1.0138007111827798,0.0,0,False
2021-12-29,1.0138007111827798,1.0138007111827798,0.0,0,False
2021-12-30,1.0138007111827798,1.0138007111827798,0.0,0,False
2021-12-31,1.0138007111827798,1.0138007111827798,0.0,0,False
2022-01-01,1.0138007111827798,1.0138007111827798,0.0,0,False
2022-01-02,1.0138007111827798,1.0138007111827798,0.0,0,False
2022-01-03,1.0138007111827798,1.0138007111827798,0.0,0,False
2022-01-04,1.0138007111827798,1.0138007111827798,0.0,0,False
2022-01-05,1.0138007111827798,1.0138007111827798,0.0,0,False
2022-01-06,1.0138007111827798,1.0148377645760522,0.10229361469500375,1,True
2022-01-07,1.0148377645760522,1.0148377645760522,0.0,0,False
2022-01-08,1.0148377645760522,1.0148377645760522,0.0,0,False
2022-01-09,1.0148377645760522,1.0148377645760522,0.0,0,False
2022-01-10,1.0148377645760522,1.0148377645760522,0.0,0,False
2022-01-11,1.0148377645760522,1.0148377645760522,0.0,0,False
2022-01-12,1.0148377645760522,1.0148377645760522,0.0,0,False
2022-01-13,1.0148377645760522,1.0148377645760522,0.0,0,False
2022-01-14,1.0148377645760522,1.0148377645760522,0.0,0,False
2022-01-15,1.0148377645760522,1.0148377645760522,0.0,0,False
2022-01-16,1.0148377645760522,1.0148377645760522,0.0,0,False
2022-01-17,1.0148377645760522,1.0148377645760522,0.0,0,False
2022-01-18,1.0148377645760522,1.0148377645760522,0.0,0,False
2022-01-19,1.0148377645760522,1.0148377645760522,0.0,0,False
2022-01-20,1.0148377645760522,1.0148377645760522,0.0,0,False
2022-01-21,1.0148377645760522,1.0148377645760522,0.0,0,False
2022-01-22,1.0148377645760522,1.0148377645760522,0.0,0,False
2022-01-23,1.0148377645760522,1.0148377645760522,0.0,0,False
2022-01-24,1.0148377645760522,1.0148377645760522,0.0,0,False
2022-01-25,1.0148377645760522,1.0148377645760522,0.0,0,False
2022-01-26,1.0148377645760522,1.0148377645760522,0.0,0,False
2022-01-27,1.0148377645760522,1.0148377645760522,0.0,0,False
2022-01-28,1.0148377645760522,1.0148377645760522,0.0,0,False
2022-01-29,1.0148377645760522,1.0148377645760522,0.0,0,False
2022-01-30,1.0148377645760522,1.0148377645760522,0.0,0,False
2022-01-31,1.0148377645760522,1.0148377645760522,0.0,0,False
2022-02-01,1.0148377645760522,1.0148377645760522,0.0,0,False
2022-02-02,1.0148377645760522,1.0148377645760522,0.0,0,False
2022-02-03,1.0148377645760522,1.0148377645760522,0.0,0,False
2022-02-04,1.0148377645760522,1.0148377645760522,0.0,0,False
2022-02-05,1.0148377645760522,1.0148377645760522,0.0,0,False
2022-02-06,1.0148377645760522,1.0148377645760522,0.0,0,False
2022-02-07,1.0148377645760522,1.0148377645760522,0.0,0,False
2022-02-08,1.0148377645760522,1.0148377645760522,0.0,0,False
2022-02-09,1.0148377645760522,1.0148377645760522,0.0,0,False
2022-02-10,1.0148377645760522,1.0147034762380247,-0.01323249318413433,1,True
2022-02-11,1.0147034762380247,1.0120710999662965,-0.25942320425348386,0,True
2022-02-12,1.0120710999662965,1.0120710999662965,0.0,0,False
2022-02-13,1.0120710999662965,1.0120710999662965,0.0,0,False
2022-02-14,1.0120710999662965,1.0120710999662965,0.0,0,False
2022-02-15,1.0120710999662965,1.0120710999662965,0.0,0,False
2022-02-16,1.0120710999662965,1.0120710999662965,0.0,0,False
2022-02-17,1.0120710999662965,1.0120710999662965,0.0,0,False
2022-02-18,1.0120710999662965,1.0120710999662965,0.0,0,False
2022-02-19,1.0120710999662965,1.0120710999662965,0.0,0,False
2022-02-20,1.0120710999662965,1.0120710999662965,0.0,0,False
2022-02-21,1.0120710999662965,1.0120710999662965,0.0,0,False
2022-02-22,1.0120710999662965,1.0120710999662965,0.0,0,False
2022-02-23,1.0120710999662965,1.0120710999662965,0.0,0,False
2022-02-24,1.0120710999662965,1.0120710999662965,0.0,0,False
2022-02-25,1.0120710999662965,1.0120710999662965,0.0,0,False
2022-02-26,1.0120710999662965,1.0120710999662965,0.0,0,False
2022-02-27,1.0120710999662965,1.0120710999662965,0.0,0,False
2022-02-28,1.0120710999662965,1.0120710999662965,0.0,0,False
2022-03-01,1.0120710999662965,1.0120710999662965,0.0,0,False
2022-03-02,1.0120710999662965,1.0120710999662965,0.0,0,False
2022-03-03,1.0120710999662965,1.0120710999662965,0.0,0,False
2022-03-04,1.0120710999662965,1.0120710999662965,0.0,0,False
2022-03-05,1.0120710999662965,1.0120710999662965,0.0,0,False
2022-03-06,1.0120710999662965,1.0120710999662965,0.0,0,False
2022-03-07,1.0120710999662965,1.0120710999662965,0.0,0,False
2022-03-08,1.0120710999662965,1.0120710999662965,0.0,0,False
2022-03-09,1.0120710999662965,1.0120710999662965,0.0,0,False
2022-03-10,1.0120710999662965,1.0120710999662965,0.0,0,False
2022-03-11,1.0120710999662965,1.0120710999662965,0.0,0,False
2022-03-12,1.0120710999662965,1.0120710999662965,0.0,0,False
2022-03-13,1.0120710999662965,1.0120710999662965,0.0,0,False
2022-03-14,1.0120710999662965,1.0120710999662965,0.0,0,False
2022-03-15,1.0120710999662965,1.0120710999662965,0.0,0,False
2022-03-16,1.0120710999662965,1.0120710999662965,0.0,0,False
2022-03-17,1.0120710999662965,1.0120710999662965,0.0,0,False
2022-03-18,1.0120710999662965,1.0120710999662965,0.0,0,False
2022-03-19,1.0120710999662965,1.0120710999662965,0.0,0,False
2022-03-20,1.0120710999662965,1.0120710999662965,0.0,0,False
2022-03-21,1.0120710999662965,1.0120710999662965,0.0,0,False
2022-03-22,1.0120710999662965,1.0120710999662965,0.0,0,False
2022-03-23,1.0120710999662965,1.0120710999662965,0.0,0,False
2022-03-24,1.0120710999662965,1.0120710999662965,0.0,0,False
2022-03-25,1.0120710999662965,1.0120710999662965,0.0,0,False
2022-03-26,1.0120710999662965,1.0120710999662965,0.0,0,False
2022-03-27,1.0120710999662965,1.0120710999662965,0.0,0,False
2022-03-28,1.0120710999662965,1.0120710999662965,0.0,0,False
2022-03-29,1.0120710999662965,1.0120710999662965,0.0,0,False
2022-03-30,1.0120710999662965,1.01093886079067,-0.11187348158289145,1,True
2022-03-31,1.01093886079067,1.01093886079067,0.0,0,False
2022-04-01,1.01093886079067,1.01093886079067,0.0,0,False
2022-04-02,1.01093886079067,1.01093886079067,0.0,0,False
2022-04-03,1.01093886079067,1.01093886079067,0.0,0,False
2022-04-04,1.01093886079067,1.01093886079067,0.0,0,False
2022-04-05,1.01093886079067,1.01093886079067,0.0,0,False
2022-04-06,1.01093886079067,1.0120425125144383,0.10917096637330648,1,True
2022-04-07,1.0120425125144383,1.0120425125144383,0.0,0,False
2022-04-08,1.0120425125144383,1.0120425125144383,0.0,0,False
2022-04-09,1.0120425125144383,1.0120425125144383,0.0,0,False
2022-04-10,1.0120425125144383,1.0120425125144383,0.0,0,False
2022-04-11,1.0120425125144383,1.0120425125144383,0.0,0,False
2022-04-12,1.0120425125144383,1.0120425125144383,0.0,0,False
2022-04-13,1.0120425125144383,1.0120425125144383,0.0,0,False
2022-04-14,1.0120425125144383,1.0120425125144383,0.0,0,False
2022-04-15,1.0120425125144383,1.0120425125144383,0.0,0,False
2022-04-16,1.0120425125144383,1.0120425125144383,0.0,0,False
2022-04-17,1.0120425125144383,1.0120425125144383,0.0,0,False
2022-04-18,1.0120425125144383,1.0143421141526154,0.22722381814412884,1,True
2022-04-19,1.0143421141526154,1.0132139063496772,-0.11122557046551185,0,True
2022-04-20,1.0132139063496772,1.0132139063496772,0.0,0,False
2022-04-21,1.0132139063496772,1.0132139063496772,0.0,0,False
2022-04-22,1.0132139063496772,1.0132139063496772,0.0,0,False
2022-04-23,1.0132139063496772,1.0132139063496772,0.0,0,False
2022-04-24,1.0132139063496772,1.0132139063496772,0.0,0,False
2022-04-25,1.0132139063496772,1.0132139063496772,0.0,0,False
2022-04-26,1.0132139063496772,1.0132139063496772,0.0,0,False
2022-04-27,1.0132139063496772,1.0132139063496772,0.0,0,False
2022-04-28,1.0132139063496772,1.0132139063496772,0.0,0,False
2022-04-29,1.0132139063496772,1.0132139063496772,0.0,0,False
2022-04-30,1.0132139063496772,1.0132139063496772,0.0,0,False
2022-05-01,1.0132139063496772,1.0267890823562318,1.3398134314462906,4,True
2022-05-02,1.0267890823562318,1.0267890823562318,0.0,0,False
2022-05-03,1.0267890823562318,1.0267890823562318,0.0,0,False
2022-05-04,1.0267890823562318,1.0267890823562318,0.0,0,False
2022-05-05,1.0267890823562318,1.0267890823562318,0.0,0,False
2022-05-06,1.0267890823562318,1.0275331049329668,0.07246109152501123,1,True
2022-05-07,1.0275331049329668,1.0267565771156508,-0.07557204858782418,0,True
2022-05-08,1.0267565771156508,1.0267565771156508,0.0,0,False
2022-05-09,1.0267565771156508,1.0267565771156508,0.0,0,False
2022-05-10,1.0267565771156508,1.0267565771156508,0.0,0,False
2022-05-11,1.0267565771156508,1.0267565771156508,0.0,0,False
2022-05-12,1.0267565771156508,1.0267565771156508,0.0,0,False
2022-05-13,1.0267565771156508,1.0267565771156508,0.0,0,False
2022-05-14,1.0267565771156508,1.0267565771156508,0.0,0,False
2022-05-15,1.0267565771156508,1.0267565771156508,0.0,0,False
2022-05-16,1.0267565771156508,1.0267565771156508,0.0,0,False
2022-05-17,1.0267565771156508,1.0267565771156508,0.0,0,False
2022-05-18,1.0267565771156508,1.0267565771156508,0.0,0,False
2022-05-19,1.0267565771156508,1.0267565771156508,0.0,0,False
2022-05-20,1.0267565771156508,1.0299678517914492,0.31275910448214095,1,True
2022-05-21,1.0299678517914492,1.0299678517914492,0.0,0,False
2022-05-22,1.0299678517914492,1.0299678517914492,0.0,0,False
2022-05-23,1.0299678517914492,1.0299678517914492,0.0,0,False
2022-05-24,1.0299678517914492,1.0299678517914492,0.0,0,False
2022-05-25,1.0299678517914492,1.0248263178563302,-0.4991936327115698,1,True
2022-05-26,1.0248263178563302,1.0248263178563302,0.0,0,False
2022-05-27,1.0248263178563302,1.0248263178563302,0.0,0,False
2022-05-28,1.0248263178563302,1.0248263178563302,0.0,0,False
2022-05-29,1.0248263178563302,1.0248263178563302,0.0,0,False
2022-05-30,1.0248263178563302,1.0248263178563302,0.0,0,False
2022-05-31,1.0248263178563302,1.0248263178563302,0.0,0,False
2022-06-01,1.0248263178563302,1.0248263178563302,0.0,0,False
2022-06-02,1.0248263178563302,1.0248263178563302,0.0,0,False
2022-06-03,1.0248263178563302,1.0248263178563302,0.0,0,False
2022-06-04,1.0248263178563302,1.0248263178563302,0.0,0,False
2022-06-05,1.0248263178563302,1.0248263178563302,0.0,0,False
2022-06-06,1.0248263178563302,1.0248263178563302,0.0,0,False
2022-06-07,1.0248263178563302,1.0248263178563302,0.0,0,False
2022-06-08,1.0248263178563302,1.0248263178563302,0.0,0,False
2022-06-09,1.0248263178563302,1.0248263178563302,0.0,0,False
2022-06-10,1.0248263178563302,1.0248263178563302,0.0,0,False
2022-06-11,1.0248263178563302,1.0248263178563302,0.0,0,False
2022-06-12,1.0248263178563302,1.0248263178563302,0.0,0,False
2022-06-13,1.0248263178563302,1.0248263178563302,0.0,0,False
2022-06-14,1.0248263178563302,1.0248263178563302,0.0,0,False
2022-06-15,1.0248263178563302,1.0248263178563302,0.0,0,False
2022-06-16,1.0248263178563302,1.0248263178563302,0.0,0,False
2022-06-17,1.0248263178563302,1.0248263178563302,0.0,0,False
2022-06-18,1.0248263178563302,1.0176490618657643,-0.7003387662388283,4,True
2022-06-19,1.0176490618657643,1.0174948675636355,-0.015152011425834111,0,True
2022-06-20,1.0174948675636355,1.0174948675636355,0.0,0,False
2022-06-21,1.0174948675636355,1.0174948675636355,0.0,0,False
2022-06-22,1.0174948675636355,1.0174948675636355,0.0,0,False
2022-06-23,1.0174948675636355,1.0174948675636355,0.0,0,False
2022-06-24,1.0174948675636355,1.0174948675636355,0.0,0,False
2022-06-25,1.0174948675636355,1.0174948675636355,0.0,0,False
2022-06-26,1.0174948675636355,1.0174948675636355,0.0,0,False
2022-06-27,1.0174948675636355,1.0174948675636355,0.0,0,False
2022-06-28,1.0174948675636355,1.0188184861895233,0.1300860248127922,1,True
2022-06-29,1.0188184861895233,1.0232205421619658,0.4320746072155268,0,True
2022-06-30,1.0232205421619658,1.0232205421619658,0.0,0,False
2022-07-01,1.0232205421619658,1.0232205421619658,0.0,0,False
2022-07-02,1.0232205421619658,1.0232205421619658,0.0,0,False
2022-07-03,1.0232205421619658,1.0232205421619658,0.0,0,False
2022-07-04,1.0232205421619658,1.0232205421619658,0.0,0,False
2022-07-05,1.0232205421619658,1.0232205421619658,0.0,0,False
2022-07-06,1.0232205421619658,1.0232205421619658,0.0,0,False
2022-07-07,1.0232205421619658,1.0232205421619658,0.0,0,False
2022-07-08,1.0232205421619658,1.0232205421619658,0.0,0,False
2022-07-09,1.0232205421619658,1.0232205421619658,0.0,0,False
2022-07-10,1.0232205421619658,1.0232205421619658,0.0,0,False
2022-07-11,1.0232205421619658,1.0232205421619658,0.0,0,False
2022-07-12,1.0232205421619658,1.0232205421619658,0.0,0,False
2022-07-13,1.0232205421619658,1.032472029444288,0.9041537870980054,4,True
2022-07-14,1.032472029444288,1.0508146062715473,1.7765688855641004,0,True
2022-07-15,1.0508146062715473,1.0508146062715473,0.0,0,False
2022-07-16,1.0508146062715473,1.0508146062715473,0.0,0,False
2022-07-17,1.0508146062715473,1.0508146062715473,0.0,0,False
2022-07-18,1.0508146062715473,1.0508146062715473,0.0,0,False
2022-07-19,1.0508146062715473,1.0508146062715473,0.0,0,False
2022-07-20,1.0508146062715473,1.0508146062715473,0.0,0,False
2022-07-21,1.0508146062715473,1.0487223363013967,-0.1991093345737105,3,True
2022-07-22,1.0487223363013967,1.0487223363013967,0.0,0,False
2022-07-23,1.0487223363013967,1.0487223363013967,0.0,0,False
2022-07-24,1.0487223363013967,1.0487223363013967,0.0,0,False
2022-07-25,1.0487223363013967,1.0496093555670145,0.08458094530017224,1,True
2022-07-26,1.0496093555670145,1.0496093555670145,0.0,0,False
2022-07-27,1.0496093555670145,1.0496093555670145,0.0,0,False
2022-07-28,1.0496093555670145,1.0496093555670145,0.0,0,False
2022-07-29,1.0496093555670145,1.0496093555670145,0.0,0,False
2022-07-30,1.0496093555670145,1.0496093555670145,0.0,0,False
2022-07-31,1.0496093555670145,1.0496093555670145,0.0,0,False
2022-08-01,1.0496093555670145,1.0496093555670145,0.0,0,False
2022-08-02,1.0496093555670145,1.0496093555670145,0.0,0,False
2022-08-03,1.0496093555670145,1.0496093555670145,0.0,0,False
2022-08-04,1.0496093555670145,1.0496093555670145,0.0,0,False
2022-08-05,1.0496093555670145,1.0496093555670145,0.0,0,False
2022-08-06,1.0496093555670145,1.0496093555670145,0.0,0,False
2022-08-07,1.0496093555670145,1.0496093555670145,0.0,0,False
2022-08-08,1.0496093555670145,1.0496093555670145,0.0,0,False
2022-08-09,1.0496093555670145,1.0512599436392382,0.15725737041778487,1,True
2022-08-10,1.0512599436392382,1.0512599436392382,0.0,0,False
2022-08-11,1.0512599436392382,1.0512599436392382,0.0,0,False
2022-08-12,1.0512599436392382,1.0515558489030867,0.028147677997147902,1,True
2022-08-13,1.0515558489030867,1.0515558489030867,0.0,0,False
2022-08-14,1.0515558489030867,1.0515558489030867,0.0,0,False
2022-08-15,1.0515558489030867,1.0515558489030867,0.0,0,False
2022-08-16,1.0515558489030867,1.0515558489030867,0.0,0,False
2022-08-17,1.0515558489030867,1.0515558489030867,0.0,0,False
2022-08-18,1.0515558489030867,1.0515558489030867,0.0,0,False
2022-08-19,1.0515558489030867,1.0293014585707467,-2.116329851196619,7,True
2022-08-20,1.0293014585707467,1.0307833937355915,0.14397484357036028,0,True
2022-08-21,1.0307833937355915,1.0307833937355915,0.0,0,False
2022-08-22,1.0307833937355915,1.0307833937355915,0.0,0,False
2022-08-23,1.0307833937355915,1.0307833937355915,0.0,0,False
2022-08-24,1.0307833937355915,1.0307833937355915,0.0,0,False
2022-08-25,1.0307833937355915,1.0307833937355915,0.0,0,False
2022-08-26,1.0307833937355915,1.0307833937355915,0.0,0,False
2022-08-27,1.0307833937355915,1.0307833937355915,0.0,0,False
2022-08-28,1.0307833937355915,1.0307833937355915,0.0,0,False
2022-08-29,1.0307833937355915,1.0307833937355915,0.0,0,False
2022-08-30,1.0307833937355915,1.0307833937355915,0.0,0,False
2022-08-31,1.0307833937355915,1.0307833937355915,0.0,0,False
2022-09-01,1.0307833937355915,1.0307833937355915,0.0,0,False
2022-09-02,1.0307833937355915,1.0307833937355915,0.0,0,False
2022-09-03,1.0307833937355915,1.0307833937355915,0.0,0,False
2022-09-04,1.0307833937355915,1.0307833937355915,0.0,0,False
2022-09-05,1.0307833937355915,1.0307833937355915,0.0,0,False
2022-09-06,1.0307833937355915,1.0307833937355915,0.0,0,False
2022-09-07,1.0307833937355915,1.0174482243161866,-1.2936926904766777,4,True
2022-09-08,1.0174482243161866,1.0174482243161866,0.0,0,False
2022-09-09,1.0174482243161866,1.0174482243161866,0.0,0,False
2022-09-10,1.0174482243161866,1.0174482243161866,0.0,0,False
2022-09-11,1.0174482243161866,1.0174482243161866,0.0,0,False
2022-09-12,1.0174482243161866,1.0174482243161866,0.0,0,False
2022-09-13,1.0174482243161866,1.011204360441896,-0.6136787823760703,4,True
2022-09-14,1.011204360441896,1.0062887385858557,-0.48611557152427043,0,True
2022-09-15,1.0062887385858557,1.0101981549915637,0.3884984752191567,1,True
2022-09-16,1.0101981549915637,1.0101981549915637,0.0,0,False
2022-09-17,1.0101981549915637,1.0101981549915637,0.0,0,False
2022-09-18,1.0101981549915637,1.0101981549915637,0.0,0,False
2022-09-19,1.0101981549915637,1.007268081052681,-0.2900494248979424,5,True
2022-09-20,1.007268081052681,1.007268081052681,0.0,0,False
2022-09-21,1.007268081052681,1.007268081052681,0.0,0,False
2022-09-22,1.007268081052681,1.007268081052681,0.0,0,False
2022-09-23,1.007268081052681,1.007268081052681,0.0,0,False
2022-09-24,1.007268081052681,1.007268081052681,0.0,0,False
2022-09-25,1.007268081052681,1.007268081052681,0.0,0,False
2022-09-26,1.007268081052681,1.007268081052681,0.0,0,False
2022-09-27,1.007268081052681,1.007268081052681,0.0,0,False
2022-09-28,1.007268081052681,1.007268081052681,0.0,0,False
2022-09-29,1.007268081052681,1.007268081052681,0.0,0,False
2022-09-30,1.007268081052681,1.007268081052681,0.0,0,False
2022-10-01,1.007268081052681,1.007268081052681,0.0,0,False
2022-10-02,1.007268081052681,1.007268081052681,0.0,0,False
2022-10-03,1.007268081052681,1.007268081052681,0.0,0,False
2022-10-04,1.007268081052681,1.007268081052681,0.0,0,False
2022-10-05,1.007268081052681,1.007268081052681,0.0,0,False
2022-10-06,1.007268081052681,1.007268081052681,0.0,0,False
2022-10-07,1.007268081052681,1.007268081052681,0.0,0,False
2022-10-08,1.007268081052681,1.007268081052681,0.0,0,False
2022-10-09,1.007268081052681,1.007268081052681,0.0,0,False
2022-10-10,1.007268081052681,1.007268081052681,0.0,0,False
2022-10-11,1.007268081052681,1.0268705970256264,1.946107132915298,4,True
2022-10-12,1.0268705970256264,1.0268705970256264,0.0,0,False
2022-10-13,1.0268705970256264,1.0268705970256264,0.0,0,False
2022-10-14,1.0268705970256264,1.0268705970256264,0.0,0,False
2022-10-15,1.0268705970256264,1.0268705970256264,0.0,0,False
2022-10-16,1.0268705970256264,1.0268705970256264,0.0,0,False
2022-10-17,1.0268705970256264,1.0268705970256264,0.0,0,False
2022-10-18,1.0268705970256264,1.0268705970256264,0.0,0,False
2022-10-19,1.0268705970256264,1.0268705970256264,0.0,0,False
2022-10-20,1.0268705970256264,1.0301536058383394,0.3197100805322872,1,True
2022-10-21,1.0301536058383394,1.0301536058383394,0.0,0,False
2022-10-22,1.0301536058383394,1.0301536058383394,0.0,0,False
2022-10-23,1.0301536058383394,1.0301536058383394,0.0,0,False
2022-10-24,1.0301536058383394,1.0301536058383394,0.0,0,False
2022-10-25,1.0301536058383394,1.0301536058383394,0.0,0,False
2022-10-26,1.0301536058383394,1.0301536058383394,0.0,0,False
2022-10-27,1.0301536058383394,1.0301536058383394,0.0,0,False
2022-10-28,1.0301536058383394,1.0301536058383394,0.0,0,False
2022-10-29,1.0301536058383394,1.0301536058383394,0.0,0,False
2022-10-30,1.0301536058383394,1.0301536058383394,0.0,0,False
2022-10-31,1.0301536058383394,1.0301536058383394,0.0,0,False
2022-11-01,1.0301536058383394,1.0301536058383394,0.0,0,False
2022-11-02,1.0301536058383394,1.0337760172229848,0.3516379852592566,1,True
2022-11-03,1.0337760172229848,1.0337760172229848,0.0,0,False
2022-11-04,1.0337760172229848,1.02861537666337,-0.49920296791926555,1,True
2022-11-05,1.02861537666337,1.02861537666337,0.0,0,False
2022-11-06,1.02861537666337,1.02861537666337,0.0,0,False
2022-11-07,1.02861537666337,1.02861537666337,0.0,0,False
2022-11-08,1.02861537666337,1.0254711069500906,-0.3056798279138073,2,True
2022-11-09,1.0254711069500906,1.0279483550677821,0.2415717128354089,0,True
2022-11-10,1.0279483550677821,1.0279483550677821,0.0,0,False
2022-11-11,1.0279483550677821,1.0247906294109417,-0.30718718905214937,2,True
2022-11-12,1.0247906294109417,1.0265614148397535,0.17279484979577653,0,True
2022-11-13,1.0265614148397535,1.0214326420293252,-0.4996070119417939,1,True
2022-11-14,1.0214326420293252,1.0214326420293252,0.0,0,False
2022-11-15,1.0214326420293252,1.0214326420293252,0.0,0,False
2022-11-16,1.0214326420293252,1.0214326420293252,0.0,0,False
2022-11-17,1.0214326420293252,1.0214326420293252,0.0,0,False
2022-11-18,1.0214326420293252,1.0214326420293252,0.0,0,False
2022-11-19,1.0214326420293252,1.0216888809312197,0.025086226085879737,2,True
2022-11-20,1.0216888809312197,1.0164022987548358,-0.5174356181272599,0,True
2022-11-21,1.0164022987548358,1.0164022987548358,0.0,0,False
2022-11-22,1.0164022987548358,1.0164022987548358,0.0,0,False
2022-11-23,1.0164022987548358,1.0164022987548358,0.0,0,False
2022-11-24,1.0164022987548358,1.0164022987548358,0.0,0,False
2022-11-25,1.0164022987548358,1.0164022987548358,0.0,0,False
2022-11-26,1.0164022987548358,1.0164022987548358,0.0,0,False
2022-11-27,1.0164022987548358,1.0164022987548358,0.0,0,False
2022-11-28,1.0164022987548358,1.0137755886414288,-0.2584321303311543,2,True
2022-11-29,1.0137755886414288,1.0137755886414288,0.0,0,False
2022-11-30,1.0137755886414288,1.0137755886414288,0.0,0,False
2022-12-01,1.0137755886414288,1.0137254837182659,-0.004942407740360366,1,True
2022-12-02,1.0137254837182659,1.0137254837182659,0.0,0,False
2022-12-03,1.0137254837182659,1.0137254837182659,0.0,0,False
2022-12-04,1.0137254837182659,1.0137254837182659,0.0,0,False
2022-12-05,1.0137254837182659,1.0137254837182659,0.0,0,False
2022-12-06,1.0137254837182659,1.0137254837182659,0.0,0,False
2022-12-07,1.0137254837182659,1.0137254837182659,0.0,0,False
2022-12-08,1.0137254837182659,1.0086641172242392,-0.4992837385780158,1,True
2022-12-09,1.0086641172242392,1.0086641172242392,0.0,0,False
2022-12-10,1.0086641172242392,1.0086641172242392,0.0,0,False
2022-12-11,1.0086641172242392,1.0086641172242392,0.0,0,False
2022-12-12,1.0086641172242392,1.0086641172242392,0.0,0,False
2022-12-13,1.0086641172242392,1.0086641172242392,0.0,0,False
2022-12-14,1.0086641172242392,1.0086641172242392,0.0,0,False
2022-12-15,1.0086641172242392,1.0086641172242392,0.0,0,False
2022-12-16,1.0086641172242392,1.0086641172242392,0.0,0,False
2022-12-17,1.0086641172242392,1.0115603428813738,0.28713479618018845,4,True
2022-12-18,1.0115603428813738,1.0115603428813738,0.0,0,False
2022-12-19,1.0115603428813738,1.0115603428813738,0.0,0,False
2022-12-20,1.0115603428813738,1.0115603428813738,0.0,0,False
2022-12-21,1.0115603428813738,1.0115603428813738,0.0,0,False
2022-12-22,1.0115603428813738,1.0115603428813738,0.0,0,False
2022-12-23,1.0115603428813738,1.0115603428813738,0.0,0,False
2022-12-24,1.0115603428813738,1.0115603428813738,0.0,0,False
2022-12-25,1.0115603428813738,1.0115603428813738,0.0,0,False
2022-12-26,1.0115603428813738,1.0115603428813738,0.0,0,False
2022-12-27,1.0115603428813738,1.0115603428813738,0.0,0,False
2022-12-28,1.0115603428813738,1.0136483992960064,0.2064193628513511,1,True
2022-12-29,1.0136483992960064,1.0128651450318673,-0.07727080363201244,0,True
2022-12-30,1.0128651450318673,1.0128651450318673,0.0,0,False
2022-12-31,1.0128651450318673,1.0128651450318673,0.0,0,False
2023-01-01,1.0128651450318673,1.0128651450318673,0.0,0,False
2023-01-02,1.0128651450318673,1.0128651450318673,0.0,0,False
2023-01-03,1.0128651450318673,1.0128651450318673,0.0,0,False
2023-01-04,1.0128651450318673,1.0128651450318673,0.0,0,False
2023-01-05,1.0128651450318673,1.0128651450318673,0.0,0,False
2023-01-06,1.0128651450318673,1.0128651450318673,0.0,0,False
2023-01-07,1.0128651450318673,1.0128651450318673,0.0,0,False
2023-01-08,1.0128651450318673,1.0128651450318673,0.0,0,False
2023-01-09,1.0128651450318673,1.0128651450318673,0.0,0,False
2023-01-10,1.0128651450318673,1.0113084269873802,-0.15369450238492677,2,True
2023-01-11,1.0113084269873802,1.0118463043643464,0.05318628448183205,0,True
2023-01-12,1.0118463043643464,1.0118463043643464,0.0,0,False
2023-01-13,1.0118463043643464,1.0118463043643464,0.0,0,False
2023-01-14,1.0118463043643464,1.0118463043643464,0.0,0,False
2023-01-15,1.0118463043643464,1.0118463043643464,0.0,0,False
2023-01-16,1.0118463043643464,1.0118463043643464,0.0,0,False
2023-01-17,1.0118463043643464,1.0118463043643464,0.0,0,False
2023-01-18,1.0118463043643464,1.0118463043643464,0.0,0,False
2023-01-19,1.0118463043643464,1.0118463043643464,0.0,0,False
2023-01-20,1.0118463043643464,1.0118463043643464,0.0,0,False
2023-01-21,1.0118463043643464,1.0118463043643464,0.0,0,False
2023-01-22,1.0118463043643464,1.0118463043643464,0.0,0,False
2023-01-23,1.0118463043643464,1.0118463043643464,0.0,0,False
2023-01-24,1.0118463043643464,1.0118463043643464,0.0,0,False
2023-01-25,1.0118463043643464,1.0208761665543562,0.8924144063245265,4,True
2023-01-26,1.0208761665543562,1.0208761665543562,0.0,0,False
2023-01-27,1.0208761665543562,1.0208761665543562,0.0,0,False
2023-01-28,1.0208761665543562,1.0208761665543562,0.0,0,False
2023-01-29,1.0208761665543562,1.0208761665543562,0.0,0,False
2023-01-30,1.0208761665543562,1.0219667551000824,0.10682868123046418,1,True
2023-01-31,1.0219667551000824,1.0194222302609546,-0.24898313241888959,1,True
2023-02-01,1.0194222302609546,1.0194222302609546,0.0,0,False
2023-02-02,1.0194222302609546,1.0194222302609546,0.0,0,False
2023-02-03,1.0194222302609546,1.0194222302609546,0.0,0,False
2023-02-04,1.0194222302609546,1.0194222302609546,0.0,0,False
2023-02-05,1.0194222302609546,1.0218266062253203,0.23585673266612872,4,True
2023-02-06,1.0218266062253203,1.0330847924948623,1.1017707114840514,0,True
2023-02-07,1.0330847924948623,1.0330847924948623,0.0,0,False
2023-02-08,1.0330847924948623,1.0330847924948623,0.0,0,False
2023-02-09,1.0330847924948623,1.0330847924948623,0.0,0,False
2023-02-10,1.0330847924948623,1.0330847924948623,0.0,0,False
2023-02-11,1.0330847924948623,1.0330847924948623,0.0,0,False
2023-02-12,1.0330847924948623,1.0330847924948623,0.0,0,False
2023-02-13,1.0330847924948623,1.0330847924948623,0.0,0,False
2023-02-14,1.0330847924948623,1.0330847924948623,0.0,0,False
2023-02-15,1.0330847924948623,1.0330847924948623,0.0,0,False
2023-02-16,1.0330847924948623,1.0330847924948623,0.0,0,False
2023-02-17,1.0330847924948623,1.0330847924948623,0.0,0,False
2023-02-18,1.0330847924948623,1.0330847924948623,0.0,0,False
2023-02-19,1.0330847924948623,1.0330847924948623,0.0,0,False
2023-02-20,1.0330847924948623,1.0330847924948623,0.0,0,False
2023-02-21,1.0330847924948623,1.0330847924948623,0.0,0,False
2023-02-22,1.0330847924948623,1.0330847924948623,0.0,0,False
2023-02-23,1.0330847924948623,1.0428378585144722,0.9440721701126309,1,True
2023-02-24,1.0428378585144722,1.0428378585144722,0.0,0,False
2023-02-25,1.0428378585144722,1.0428378585144722,0.0,0,False
2023-02-26,1.0428378585144722,1.0428378585144722,0.0,0,False
2023-02-27,1.0428378585144722,1.0428378585144722,0.0,0,False
2023-02-28,1.0428378585144722,1.0428378585144722,0.0,0,False
2023-03-01,1.0428378585144722,1.0428378585144722,0.0,0,False
2023-03-02,1.0428378585144722,1.0428378585144722,0.0,0,False
2023-03-03,1.0428378585144722,1.0436638791764346,0.0792089254545214,1,True
2023-03-04,1.0436638791764346,1.0436638791764346,0.0,0,False
2023-03-05,1.0436638791764346,1.0436638791764346,0.0,0,False
2023-03-06,1.0436638791764346,1.0436638791764346,0.0,0,False
2023-03-07,1.0436638791764346,1.0436638791764346,0.0,0,False
2023-03-08,1.0436638791764346,1.0436638791764346,0.0,0,False
2023-03-09,1.0436638791764346,1.0436638791764346,0.0,0,False
2023-03-10,1.0436638791764346,1.0436638791764346,0.0,0,False
2023-03-11,1.0436638791764346,1.0436638791764346,0.0,0,False
2023-03-12,1.0436638791764346,1.0436638791764346,0.0,0,False
2023-03-13,1.0436638791764346,1.0436638791764346,0.0,0,False
2023-03-14,1.0436638791764346,1.0436638791764346,0.0,0,False
2023-03-15,1.0436638791764346,1.0436638791764346,0.0,0,False
2023-03-16,1.0436638791764346,1.0436638791764346,0.0,0,False
2023-03-17,1.0436638791764346,1.0436638791764346,0.0,0,False
2023-03-18,1.0436638791764346,1.0436638791764346,0.0,0,False
2023-03-19,1.0436638791764346,1.0436638791764346,0.0,0,False
2023-03-20,1.0436638791764346,1.0436638791764346,0.0,0,False
2023-03-21,1.0436638791764346,1.0436638791764346,0.0,0,False
2023-03-22,1.0436638791764346,1.0436638791764346,0.0,0,False
2023-03-23,1.0436638791764346,1.051479988516648,0.7489105924007866,3,True
2023-03-24,1.051479988516648,1.0524581702164846,0.09302903626502435,0,True
2023-03-25,1.0524581702164846,1.0481829465486925,-0.4062131673045699,1,True
2023-03-26,1.0481829465486925,1.0484736042553786,0.02772967330209042,0,True
2023-03-27,1.0484736042553786,1.0484736042553786,0.0,0,False
2023-03-28,1.0484736042553786,1.0484736042553786,0.0,0,False
2023-03-29,1.0484736042553786,1.0484736042553786,0.0,0,False
2023-03-30,1.0484736042553786,1.0484736042553786,0.0,0,False
2023-03-31,1.0484736042553786,1.0484736042553786,0.0,0,False
2023-04-01,1.0484736042553786,1.0484736042553786,0.0,0,False
2023-04-02,1.0484736042553786,1.0484736042553786,0.0,0,False
2023-04-03,1.0484736042553786,1.0484736042553786,0.0,0,False
2023-04-04,1.0484736042553786,1.0484736042553786,0.0,0,False
2023-04-05,1.0484736042553786,1.0484736042553786,0.0,0,False
2023-04-06,1.0484736042553786,1.0484736042553786,0.0,0,False
2023-04-07,1.0484736042553786,1.0454580411545218,-0.2876145940744479,1,True
2023-04-08,1.0454580411545218,1.0454580411545218,0.0,0,False
2023-04-09,1.0454580411545218,1.0454580411545218,0.0,0,False
2023-04-10,1.0454580411545218,1.0454580411545218,0.0,0,False
2023-04-11,1.0454580411545218,1.0454580411545218,0.0,0,False
2023-04-12,1.0454580411545218,1.0454580411545218,0.0,0,False
2023-04-13,1.0454580411545218,1.0454580411545218,0.0,0,False
2023-04-14,1.0454580411545218,1.0454580411545218,0.0,0,False
2023-04-15,1.0454580411545218,1.0454580411545218,0.0,0,False
2023-04-16,1.0454580411545218,1.0454580411545218,0.0,0,False
2023-04-17,1.0454580411545218,1.0454580411545218,0.0,0,False
2023-04-18,1.0454580411545218,1.0454580411545218,0.0,0,False
2023-04-19,1.0454580411545218,1.0394545379893825,-0.5742462087248823,2,True
2023-04-20,1.0394545379893825,1.0380564240193761,-0.13450458090362716,0,True
2023-04-21,1.0380564240193761,1.0380564240193761,0.0,0,False
2023-04-22,1.0380564240193761,1.0380564240193761,0.0,0,False
2023-04-23,1.0380564240193761,1.0380564240193761,0.0,0,False
2023-04-24,1.0380564240193761,1.0380564240193761,0.0,0,False
2023-04-25,1.0380564240193761,1.0380564240193761,0.0,0,False
2023-04-26,1.0380564240193761,1.0380564240193761,0.0,0,False
2023-04-27,1.0380564240193761,1.0380564240193761,0.0,0,False
2023-04-28,1.0380564240193761,1.0380564240193761,0.0,0,False
2023-04-29,1.0380564240193761,1.0380564240193761,0.0,0,False
2023-04-30,1.0380564240193761,1.0380564240193761,0.0,0,False
2023-05-01,1.0380564240193761,1.0380564240193761,0.0,0,False
2023-05-02,1.0380564240193761,1.0380564240193761,0.0,0,False
2023-05-03,1.0380564240193761,1.0380564240193761,0.0,0,False
2023-05-04,1.0380564240193761,1.0380564240193761,0.0,0,False
2023-05-05,1.0380564240193761,1.0380564240193761,0.0,0,False
2023-05-06,1.0380564240193761,1.0380564240193761,0.0,0,False
2023-05-07,1.0380564240193761,1.0380564240193761,0.0,0,False
2023-05-08,1.0380564240193761,1.0474073512189117,0.9008110718421891,4,True
2023-05-09,1.0474073512189117,1.0421786756847178,-0.49920172205294433,1,True
2023-05-10,1.0421786756847178,1.0421786756847178,0.0,0,False
2023-05-11,1.0421786756847178,1.0421786756847178,0.0,0,False
2023-05-12,1.0421786756847178,1.0421786756847178,0.0,0,False
2023-05-13,1.0421786756847178,1.0421786756847178,0.0,0,False
2023-05-14,1.0421786756847178,1.0421786756847178,0.0,0,False
2023-05-15,1.0421786756847178,1.0421786756847178,0.0,0,False
2023-05-16,1.0421786756847178,1.0421786756847178,0.0,0,False
2023-05-17,1.0421786756847178,1.0421786756847178,0.0,0,False
2023-05-18,1.0421786756847178,1.0421786756847178,0.0,0,False
2023-05-19,1.0421786756847178,1.0421786756847178,0.0,0,False
2023-05-20,1.0421786756847178,1.0421786756847178,0.0,0,False
2023-05-21,1.0421786756847178,1.0421786756847178,0.0,0,False
2023-05-22,1.0421786756847178,1.0421786756847178,0.0,0,False
2023-05-23,1.0421786756847178,1.0421786756847178,0.0,0,False
2023-05-24,1.0421786756847178,1.0421786756847178,0.0,0,False
2023-05-25,1.0421786756847178,1.0421786756847178,0.0,0,False
2023-05-26,1.0421786756847178,1.0437468710149111,0.15047279001012548,1,True
2023-05-27,1.0437468710149111,1.0464700444557302,0.2609036267740894,0,True
2023-05-28,1.0464700444557302,1.0464700444557302,0.0,0,False
2023-05-29,1.0464700444557302,1.0464700444557302,0.0,0,False
2023-05-30,1.0464700444557302,1.0464700444557302,0.0,0,False
2023-05-31,1.0464700444557302,1.0464700444557302,0.0,0,False
2023-06-01,1.0464700444557302,1.0464700444557302,0.0,0,False
2023-06-02,1.0464700444557302,1.0464700444557302,0.0,0,False
2023-06-03,1.0464700444557302,1.0464700444557302,0.0,0,False
2023-06-04,1.0464700444557302,1.0464700444557302,0.0,0,False
2023-06-05,1.0464700444557302,1.0464700444557302,0.0,0,False
2023-06-06,1.0464700444557302,1.0383815904160436,-0.7729274318495571,4,True
2023-06-07,1.0383815904160436,1.0383815904160436,0.0,0,False
2023-06-08,1.0383815904160436,1.0383815904160436,0.0,0,False
2023-06-09,1.0383815904160436,1.0383815904160436,0.0,0,False
2023-06-10,1.0383815904160436,1.0473716504757864,0.8657761407480979,5,True
2023-06-11,1.0473716504757864,1.0464399620122575,-0.08895490565413722,0,True
2023-06-12,1.0464399620122575,1.0464399620122575,0.0,0,False
2023-06-13,1.0464399620122575,1.0464399620122575,0.0,0,False
2023-06-14,1.0464399620122575,1.0464399620122575,0.0,0,False
2023-06-15,1.0464399620122575,1.0464399620122575,0.0,0,False
2023-06-16,1.0464399620122575,1.0464399620122575,0.0,0,False
2023-06-17,1.0464399620122575,1.0464399620122575,0.0,0,False
2023-06-18,1.0464399620122575,1.0464399620122575,0.0,0,False
2023-06-19,1.0464399620122575,1.0464399620122575,0.0,0,False
2023-06-20,1.0464399620122575,1.0464399620122575,0.0,0,False
2023-06-21,1.0464399620122575,1.0464399620122575,0.0,0,False
2023-06-22,1.0464399620122575,1.0464399620122575,0.0,0,False
2023-06-23,1.0464399620122575,1.0464399620122575,0.0,0,False
2023-06-24,1.0464399620122575,1.0464399620122575,0.0,0,False
2023-06-25,1.0464399620122575,1.0464399620122575,0.0,0,False
2023-06-26,1.0464399620122575,1.0464399620122575,0.0,0,False
2023-06-27,1.0464399620122575,1.0464399620122575,0.0,0,False
2023-06-28,1.0464399620122575,1.0464399620122575,0.0,0,False
2023-06-29,1.0464399620122575,1.0464399620122575,0.0,0,False
2023-06-30,1.0464399620122575,1.0345175217804845,-1.1393334223252283,3,True
2023-07-01,1.0345175217804845,1.0382414822823756,0.35997075191938066,0,True
2023-07-02,1.0382414822823756,1.0382414822823756,0.0,0,False
2023-07-03,1.0382414822823756,1.0382414822823756,0.0,0,False
2023-07-04,1.0382414822823756,1.0382414822823756,0.0,0,False
2023-07-05,1.0382414822823756,1.0382414822823756,0.0,0,False
2023-07-06,1.0382414822823756,1.0382414822823756,0.0,0,False
2023-07-07,1.0382414822823756,1.0382414822823756,0.0,0,False
2023-07-08,1.0382414822823756,1.0382414822823756,0.0,0,False
2023-07-09,1.0382414822823756,1.0382414822823756,0.0,0,False
2023-07-10,1.0382414822823756,1.0382414822823756,0.0,0,False
2023-07-11,1.0382414822823756,1.0382414822823756,0.0,0,False
2023-07-12,1.0382414822823756,1.0382414822823756,0.0,0,False
2023-07-13,1.0382414822823756,1.0382414822823756,0.0,0,False
2023-07-14,1.0382414822823756,1.0382414822823756,0.0,0,False
2023-07-15,1.0382414822823756,1.0382414822823756,0.0,0,False
2023-07-16,1.0382414822823756,1.0382414822823756,0.0,0,False
2023-07-17,1.0382414822823756,1.0382414822823756,0.0,0,False
2023-07-18,1.0382414822823756,1.0382414822823756,0.0,0,False
2023-07-19,1.0382414822823756,1.0382414822823756,0.0,0,False
2023-07-20,1.0382414822823756,1.0382414822823756,0.0,0,False
2023-07-21,1.0382414822823756,1.0382414822823756,0.0,0,False
2023-07-22,1.0382414822823756,1.0382414822823756,0.0,0,False
2023-07-23,1.0382414822823756,1.0382414822823756,0.0,0,False
2023-07-24,1.0382414822823756,1.0382134842224748,-0.002696680914648919,1,True
2023-07-25,1.0382134842224748,1.038488248788943,0.026465131752173576,0,True
2023-07-26,1.038488248788943,1.038488248788943,0.0,0,False
2023-07-27,1.038488248788943,1.038488248788943,0.0,0,False
2023-07-28,1.038488248788943,1.038488248788943,0.0,0,False
2023-07-29,1.038488248788943,1.038488248788943,0.0,0,False
2023-07-30,1.038488248788943,1.038488248788943,0.0,0,False
2023-07-31,1.038488248788943,1.038488248788943,0.0,0,False
2023-08-01,1.038488248788943,1.038488248788943,0.0,0,False
2023-08-02,1.038488248788943,1.038488248788943,0.0,0,False
2023-08-03,1.038488248788943,1.038488248788943,0.0,0,False
2023-08-04,1.038488248788943,1.038488248788943,0.0,0,False
2023-08-05,1.038488248788943,1.038488248788943,0.0,0,False
2023-08-06,1.038488248788943,1.038488248788943,0.0,0,False
2023-08-07,1.038488248788943,1.038488248788943,0.0,0,False
2023-08-08,1.038488248788943,1.038488248788943,0.0,0,False
2023-08-09,1.038488248788943,1.038488248788943,0.0,0,False
2023-08-10,1.038488248788943,1.038488248788943,0.0,0,False
2023-08-11,1.038488248788943,1.038488248788943,0.0,0,False
2023-08-12,1.038488248788943,1.038488248788943,0.0,0,False
2023-08-13,1.038488248788943,1.038488248788943,0.0,0,False
2023-08-14,1.038488248788943,1.038488248788943,0.0,0,False
2023-08-15,1.038488248788943,1.038488248788943,0.0,0,False
2023-08-16,1.038488248788943,1.041888781406735,0.32745027416127837,4,True
2023-08-17,1.041888781406735,1.041888781406735,0.0,0,False
2023-08-18,1.041888781406735,1.0746509394905015,3.1444966745425296,4,True
2023-08-19,1.0746509394905015,1.0746509394905015,0.0,0,False
2023-08-20,1.0746509394905015,1.0746509394905015,0.0,0,False
2023-08-21,1.0746509394905015,1.0746509394905015,0.0,0,False
2023-08-22,1.0746509394905015,1.0746509394905015,0.0,0,False
2023-08-23,1.0746509394905015,1.0746509394905015,0.0,0,False
2023-08-24,1.0746509394905015,1.0746509394905015,0.0,0,False
2023-08-25,1.0746509394905015,1.0599026908276723,-1.3723757287944505,3,True
2023-08-26,1.0599026908276723,1.0599026908276723,0.0,0,False
2023-08-27,1.0599026908276723,1.0599026908276723,0.0,0,False
2023-08-28,1.0599026908276723,1.0599026908276723,0.0,0,False
2023-08-29,1.0599026908276723,1.0599026908276723,0.0,0,False
2023-08-30,1.0599026908276723,1.0599026908276723,0.0,0,False
2023-08-31,1.0599026908276723,1.0599026908276723,0.0,0,False
2023-09-01,1.0599026908276723,1.0599026908276723,0.0,0,False
2023-09-02,1.0599026908276723,1.0599026908276723,0.0,0,False
2023-09-03,1.0599026908276723,1.0599026908276723,0.0,0,False
2023-09-04,1.0599026908276723,1.0599026908276723,0.0,0,False
2023-09-05,1.0599026908276723,1.0599026908276723,0.0,0,False
2023-09-06,1.0599026908276723,1.0599026908276723,0.0,0,False
2023-09-07,1.0599026908276723,1.0599026908276723,0.0,0,False
2023-09-08,1.0599026908276723,1.0599026908276723,0.0,0,False
2023-09-09,1.0599026908276723,1.0599026908276723,0.0,0,False
2023-09-10,1.0599026908276723,1.0591542733139299,-0.07061190807601259,1,True
2023-09-11,1.0591542733139299,1.0587073756534202,-0.04219382121845028,0,True
2023-09-12,1.0587073756534202,1.0587073756534202,0.0,0,False
2023-09-13,1.0587073756534202,1.0587073756534202,0.0,0,False
2023-09-14,1.0587073756534202,1.0587073756534202,0.0,0,False
2023-09-15,1.0587073756534202,1.0587073756534202,0.0,0,False
2023-09-16,1.0587073756534202,1.0587073756534202,0.0,0,False
2023-09-17,1.0587073756534202,1.0587073756534202,0.0,0,False
2023-09-18,1.0587073756534202,1.0587073756534202,0.0,0,False
2023-09-19,1.0587073756534202,1.0587073756534202,0.0,0,False
2023-09-20,1.0587073756534202,1.0587073756534202,0.0,0,False
2023-09-21,1.0587073756534202,1.0587073756534202,0.0,0,False
2023-09-22,1.0587073756534202,1.0587073756534202,0.0,0,False
2023-09-23,1.0587073756534202,1.0587073756534202,0.0,0,False
2023-09-24,1.0587073756534202,1.0587073756534202,0.0,0,False
2023-09-25,1.0587073756534202,1.0587073756534202,0.0,0,False
2023-09-26,1.0587073756534202,1.0587073756534202,0.0,0,False
2023-09-27,1.0587073756534202,1.0587073756534202,0.0,0,False
2023-09-28,1.0587073756534202,1.0587073756534202,0.0,0,False
2023-09-29,1.0587073756534202,1.0587073756534202,0.0,0,False
2023-09-30,1.0587073756534202,1.0587073756534202,0.0,0,False
2023-10-01,1.0587073756534202,1.0587073756534202,0.0,0,False
2023-10-02,1.0587073756534202,1.0587073756534202,0.0,0,False
2023-10-03,1.0587073756534202,1.0590176236508932,0.029304414478237284,1,True
2023-10-04,1.0590176236508932,1.053413997985483,-0.52913431658409,0,True
2023-10-05,1.053413997985483,1.053413997985483,0.0,0,False
2023-10-06,1.053413997985483,1.053413997985483,0.0,0,False
2023-10-07,1.053413997985483,1.053413997985483,0.0,0,False
2023-10-08,1.053413997985483,1.053413997985483,0.0,0,False
2023-10-09,1.053413997985483,1.053413997985483,0.0,0,False
2023-10-10,1.053413997985483,1.053413997985483,0.0,0,False
2023-10-11,1.053413997985483,1.053413997985483,0.0,0,False
2023-10-12,1.053413997985483,1.053413997985483,0.0,0,False
2023-10-13,1.053413997985483,1.053413997985483,0.0,0,False
2023-10-14,1.053413997985483,1.053413997985483,0.0,0,False
2023-10-15,1.053413997985483,1.053413997985483,0.0,0,False
2023-10-16,1.053413997985483,1.053413997985483,0.0,0,False
2023-10-17,1.053413997985483,1.053413997985483,0.0,0,False
2023-10-18,1.053413997985483,1.053413997985483,0.0,0,False
2023-10-19,1.053413997985483,1.048154860686237,-0.49924695412283393,1,True
2023-10-20,1.048154860686237,1.048154860686237,0.0,0,False
2023-10-21,1.048154860686237,1.0489445971317224,0.07534539743185853,1,True
2023-10-22,1.0489445971317224,1.0489445971317224,0.0,0,False
2023-10-23,1.0489445971317224,1.0489445971317224,0.0,0,False
2023-10-24,1.0489445971317224,1.0489445971317224,0.0,0,False
2023-10-25,1.0489445971317224,1.0489445971317224,0.0,0,False
2023-10-26,1.0489445971317224,1.0489445971317224,0.0,0,False
2023-10-27,1.0489445971317224,1.0497210037827016,0.0740178893243959,1,True
2023-10-28,1.0497210037827016,1.0507565043036886,0.09864530834913232,0,True
2023-10-29,1.0507565043036886,1.0507565043036886,0.0,0,False
2023-10-30,1.0507565043036886,1.0507565043036886,0.0,0,False
2023-10-31,1.0507565043036886,1.0507565043036886,0.0,0,False
2023-11-01,1.0507565043036886,1.0507565043036886,0.0,0,False
2023-11-02,1.0507565043036886,1.0507565043036886,0.0,0,False
2023-11-03,1.0507565043036886,1.0507565043036886,0.0,0,False
2023-11-04,1.0507565043036886,1.0507565043036886,0.0,0,False
2023-11-05,1.0507565043036886,1.0507565043036886,0.0,0,False
2023-11-06,1.0507565043036886,1.0507565043036886,0.0,0,False
2023-11-07,1.0507565043036886,1.0507565043036886,0.0,0,False
2023-11-08,1.0507565043036886,1.0507565043036886,0.0,0,False
2023-11-09,1.0507565043036886,1.0507565043036886,0.0,0,False
2023-11-10,1.0507565043036886,1.0652351453013797,1.3779254221496062,4,True
2023-11-11,1.0652351453013797,1.0652351453013797,0.0,0,False
2023-11-12,1.0652351453013797,1.0652351453013797,0.0,0,False
2023-11-13,1.0652351453013797,1.0652351453013797,0.0,0,False
2023-11-14,1.0652351453013797,1.0652351453013797,0.0,0,False
2023-11-15,1.0652351453013797,1.0652351453013797,0.0,0,False
2023-11-16,1.0652351453013797,1.0652351453013797,0.0,0,False
2023-11-17,1.0652351453013797,1.0652351453013797,0.0,0,False
2023-11-18,1.0652351453013797,1.0652351453013797,0.0,0,False
2023-11-19,1.0652351453013797,1.0652351453013797,0.0,0,False
2023-11-20,1.0652351453013797,1.0652351453013797,0.0,0,False
2023-11-21,1.0652351453013797,1.0652351453013797,0.0,0,False
2023-11-22,1.0652351453013797,1.0652351453013797,0.0,0,False
2023-11-23,1.0652351453013797,1.0652351453013797,0.0,0,False
2023-11-24,1.0652351453013797,1.0652351453013797,0.0,0,False
2023-11-25,1.0652351453013797,1.0652351453013797,0.0,0,False
2023-11-26,1.0652351453013797,1.0652351453013797,0.0,0,False
2023-11-27,1.0652351453013797,1.0652351453013797,0.0,0,False
2023-11-28,1.0652351453013797,1.0652351453013797,0.0,0,False
2023-11-29,1.0652351453013797,1.0652351453013797,0.0,0,False
2023-11-30,1.0652351453013797,1.0652351453013797,0.0,0,False
2023-12-01,1.0652351453013797,1.0652351453013797,0.0,0,False
2023-12-02,1.0652351453013797,1.0652351453013797,0.0,0,False
2023-12-03,1.0652351453013797,1.0658945610058939,0.061903299700794,1,True
2023-12-04,1.0658945610058939,1.0735536387794284,0.7185586692840085,4,True
2023-12-05,1.0735536387794284,1.0780717170696046,0.4208525896584936,0,True
2023-12-06,1.0780717170696046,1.0780717170696046,0.0,0,False
2023-12-07,1.0780717170696046,1.0780717170696046,0.0,0,False
2023-12-08,1.0780717170696046,1.0780717170696046,0.0,0,False
2023-12-09,1.0780717170696046,1.0780717170696046,0.0,0,False
2023-12-10,1.0780717170696046,1.0780717170696046,0.0,0,False
2023-12-11,1.0780717170696046,1.089387454980874,1.0496275648551157,4,True
2023-12-12,1.089387454980874,1.089387454980874,0.0,0,False
2023-12-13,1.089387454980874,1.089387454980874,0.0,0,False
2023-12-14,1.089387454980874,1.089387454980874,0.0,0,False
2023-12-15,1.089387454980874,1.089387454980874,0.0,0,False
2023-12-16,1.089387454980874,1.089387454980874,0.0,0,False
2023-12-17,1.089387454980874,1.089387454980874,0.0,0,False
2023-12-18,1.089387454980874,1.089387454980874,0.0,0,False
2023-12-19,1.089387454980874,1.089387454980874,0.0,0,False
2023-12-20,1.089387454980874,1.089387454980874,0.0,0,False
2023-12-21,1.089387454980874,1.089387454980874,0.0,0,False
2023-12-22,1.089387454980874,1.089387454980874,0.0,0,False
2023-12-23,1.089387454980874,1.089387454980874,0.0,0,False
2023-12-24,1.089387454980874,1.0882117082183966,-0.1079273271508363,1,True
2023-12-25,1.0882117082183966,1.0908138172115234,0.2391179008160993,0,True
2023-12-26,1.0908138172115234,1.0908138172115234,0.0,0,False
2023-12-27,1.0908138172115234,1.0853662962886024,-0.4993996992856853,1,True
2023-12-28,1.0853662962886024,1.0853662962886024,0.0,0,False
2023-12-29,1.0853662962886024,1.0853662962886024,0.0,0,False
2023-12-30,1.0853662962886024,1.0853662962886024,0.0,0,False
2023-12-31,1.0853662962886024,1.0853662962886024,0.0,0,False
