day,start_equity,end_equity,return_pct,entries,active
2024-01-02,1.0,1.0,0.0,0,False
2024-01-03,1.0,0.9935142824198505,-0.6485717580149486,6,True
2024-01-04,0.9935142824198505,0.9978935776167611,0.44078834843159775,2,True
2024-01-05,0.9978935776167611,0.9959519064489843,-0.19457697807956364,1,True
2024-01-06,0.9959519064489843,0.9966019939595173,0.06527298219156652,2,True
2024-01-07,0.9966019939595173,0.9927780617971071,-0.38369702103621117,1,True
2024-01-08,0.9927780617971071,0.9976605384610893,0.49179941135524263,3,True
2024-01-09,0.9976605384610893,1.0133097963274431,1.568595455373334,0,True
2024-01-10,1.0133097963274431,1.0133097963274431,0.0,0,False
2024-01-11,1.0133097963274431,1.0141367663718461,0.08161078155961565,1,True
2024-01-12,1.0141367663718461,1.0069454575771757,-0.7091064078465381,2,True
2024-01-13,1.0069454575771757,1.012331996934717,0.5349385427987352,4,True
2024-01-14,1.012331996934717,1.0153440980730501,0.2975408410929914,0,True
2024-01-15,1.0153440980730501,1.0153440980730501,0.0,0,False
2024-01-16,1.0153440980730501,1.0150220340047702,-0.03171969669112373,1,True
2024-01-17,1.0150220340047702,1.0167773843507357,0.17293716659920744,0,True
2024-01-18,1.0167773843507357,1.0167773843507357,0.0,0,False
2024-01-19,1.0167773843507357,1.0167773843507357,0.0,0,False
2024-01-20,1.0167773843507357,1.0305114416393792,1.3507437812863454,6,True
2024-01-21,1.0305114416393792,1.0329123147649304,0.23297879368828767,0,True
2024-01-22,1.0329123147649304,1.0329123147649304,0.0,0,False
2024-01-23,1.0329123147649304,1.0109884009089893,-2.1225338823586903,8,True
2024-01-24,1.0109884009089893,1.0109884009089893,0.0,0,False
2024-01-25,1.0109884009089893,1.0094999388040857,-0.14722840574287188,1,True
2024-01-26,1.0094999388040857,1.0094999388040857,0.0,0,False
2024-01-27,1.0094999388040857,1.0094999388040857,0.0,0,False
2024-01-28,1.0094999388040857,1.0085783993180246,-0.09128673025505796,1,True
2024-01-29,1.0085783993180246,1.0085783993180246,0.0,0,False
2024-01-30,1.0085783993180246,1.0085783993180246,0.0,0,False
2024-01-31,1.0085783993180246,1.004169665508924,-0.4371235604571422,1,True
2024-02-01,1.004169665508924,1.004169665508924,0.0,0,False
2024-02-02,1.004169665508924,1.0039669224717418,-0.02019011768090717,2,True
2024-02-03,1.0039669224717418,1.0122165228774465,0.8217004187144328,1,True
2024-02-04,1.0122165228774465,1.010597201090999,-0.1599778061164514,1,True
2024-02-05,1.010597201090999,1.010597201090999,0.0,0,False
2024-02-06,1.010597201090999,1.0055520671292892,-0.49922302933980145,1,True
2024-02-07,1.0055520671292892,1.003715589666949,-0.18263375138626303,3,True
2024-02-08,1.003715589666949,1.0124365813124303,0.8688707971921783,0,True
2024-02-09,1.0124365813124303,1.0124365813124303,0.0,0,False
2024-02-10,1.0124365813124303,1.0124365813124303,0.0,0,False
2024-02-11,1.0124365813124303,1.0124365813124303,0.0,0,False
2024-02-12,1.0124365813124303,1.0124365813124303,0.0,0,False
2024-02-13,1.0124365813124303,1.0124365813124303,0.0,0,False
2024-02-14,1.0124365813124303,1.013760378769902,0.1307536177481694,1,True
2024-02-15,1.013760378769902,1.0144310807004768,0.0661598090259341,0,True
2024-02-16,1.0144310807004768,1.0196050786608468,0.5100393766323874,1,True
2024-02-17,1.0196050786608468,1.016450194853143,-0.30942213546517605,2,True
2024-02-18,1.016450194853143,1.0179449087248649,0.14705234740377549,0,True
2024-02-19,1.0179449087248649,1.0179449087248649,0.0,0,False
2024-02-20,1.0179449087248649,1.0202686774424126,0.22828040079876377,7,True
2024-02-21,1.0202686774424126,1.0121413075437167,-0.7965911409795856,6,True
2024-02-22,1.0121413075437167,1.0372421573104367,2.47997483944562,3,True
2024-02-23,1.0372421573104367,1.0379448808650884,0.06774922805623529,1,True
2024-02-24,1.0379448808650884,1.0343936600285137,-0.34213963593276997,3,True
2024-02-25,1.0343936600285137,1.030865304802464,-0.34110371731710387,1,True
2024-02-26,1.030865304802464,1.0361348003743975,0.5111720752832172,0,True
2024-02-27,1.0361348003743975,1.0353079386008877,-0.07980252889981942,1,True
2024-02-28,1.0353079386008877,1.0353664068090491,0.005647421987364787,1,True
2024-02-29,1.0353664068090491,1.0601244457149324,2.3912345178540573,5,True
2024-03-01,1.0601244457149324,1.056817858683256,-0.31190555458293634,1,True
2024-03-02,1.056817858683256,1.0563926635398475,-0.04023353124806839,1,True
2024-03-03,1.0563926635398475,1.0615301504835735,0.48632361062701523,6,True
2024-03-04,1.0615301504835735,1.0780384910695513,1.5551457090933862,0,True
2024-03-05,1.0780384910695513,1.0709228113863176,-0.6600580352352781,5,True
2024-03-06,1.0709228113863176,1.0493088070840766,-2.0182597730140417,4,True
2024-03-07,1.0493088070840766,1.0493088070840766,0.0,0,False
2024-03-08,1.0493088070840766,1.0502066557661043,0.08556572440507892,2,True
2024-03-09,1.0502066557661043,1.0409906999840755,-0.8775373619495874,3,True
2024-03-10,1.0409906999840755,1.0390663634456585,-0.18485626609789918,2,True
2024-03-11,1.0390663634456585,1.03514244164056,-0.3776391906371024,0,True
2024-03-12,1.03514244164056,1.0313201100506122,-0.3692565811416082,1,True
2024-03-13,1.0313201100506122,1.0356992356936507,0.42461361902694783,2,True
2024-03-14,1.0356992356936507,1.030619457433948,-0.4904684762367939,1,True
2024-03-15,1.030619457433948,1.0079302085947173,-2.2015156686176707,6,True
2024-03-16,1.0079302085947173,1.0092039616835404,0.12637314349364104,1,True
2024-03-17,1.0092039616835404,0.9946385026428157,-1.4432621743207141,4,True
2024-03-18,0.9946385026428157,0.9946385026428157,0.0,0,False
2024-03-19,0.9946385026428157,0.9722139380280893,-2.2545441942115607,5,True
2024-03-20,0.9722139380280893,0.9722139380280893,0.0,0,False
2024-03-21,0.9722139380280893,0.9730928348734285,0.09040158867932302,2,True
2024-03-22,0.9730928348734285,0.9730928348734285,0.0,0,False
2024-03-23,0.9730928348734285,0.9739438430571016,0.08745395641349685,1,True
2024-03-24,0.9739438430571016,0.9722973390879375,-0.16905532910356236,2,True
2024-03-25,0.9722973390879375,0.9762717463156101,0.4087645895854086,2,True
2024-03-26,0.9762717463156101,0.9829987316573685,0.6890484506128169,2,True
2024-03-27,0.9829987316573685,0.9801615290595329,-0.2886272897882569,3,True
2024-03-28,0.9801615290595329,0.9795473414147974,-0.06266188036627707,0,True
2024-03-29,0.9795473414147974,0.9737551312637402,-0.5913149784768201,4,True
2024-03-30,0.9737551312637402,0.9733063332950123,-0.04608940731799516,0,True
2024-03-31,0.9733063332950123,0.9733063332950123,0.0,0,False
2024-04-01,0.9733063332950123,0.9725116550758742,-0.08164728739078475,4,True
2024-04-02,0.9725116550758742,0.9666801142613927,-0.5996371132463763,5,True
2024-04-03,0.9666801142613927,0.9658387263419879,-0.0870389187686671,1,True
2024-04-04,0.9658387263419879,0.965609584968344,-0.0237245999144875,1,True
2024-04-05,0.965609584968344,0.9615522049386719,-0.4201884584446369,3,True
2024-04-06,0.9615522049386719,0.9614239192233852,-0.013341523697596447,1,True
2024-04-07,0.9614239192233852,0.9688737980230933,0.774879701945208,1,True
2024-04-08,0.9688737980230933,0.9661314864614217,-0.2830411522395493,0,True
2024-04-09,0.9661314864614217,0.9637218746492185,-0.24940826853999676,1,True
2024-04-10,0.9637218746492185,0.9584501795549643,-0.5470141576036203,5,True
2024-04-11,0.9584501795549643,0.9576615425087169,-0.08228252892743537,1,True
2024-04-12,0.9576615425087169,0.9567970764731112,-0.09026842963132387,3,True
2024-04-13,0.9567970764731112,0.9462660533724997,-1.1006537707483721,7,True
2024-04-14,0.9462660533724997,0.9244588151624706,-2.3045567504305864,10,True
2024-04-15,0.9244588151624706,0.9244588151624706,0.0,0,False
2024-04-16,0.9244588151624706,0.9244588151624706,0.0,0,False
2024-04-17,0.9244588151624706,0.9244588151624706,0.0,0,False
2024-04-18,0.9244588151624706,0.9244588151624706,0.0,0,False
2024-04-19,0.9244588151624706,0.9213322937564898,-0.338200183145132,4,True
2024-04-20,0.9213322937564898,0.9213322937564898,0.0,0,False
2024-04-21,0.9213322937564898,0.9213322937564898,0.0,0,False
2024-04-22,0.9213322937564898,0.9213322937564898,0.0,0,False
2024-04-23,0.9213322937564898,0.9213322937564898,0.0,0,False
2024-04-24,0.9213322937564898,0.9213322937564898,0.0,0,False
2024-04-25,0.9213322937564898,0.9213322937564898,0.0,0,False
2024-04-26,0.9213322937564898,0.9213322937564898,0.0,0,False
2024-04-27,0.9213322937564898,0.9213322937564898,0.0,0,False
2024-04-28,0.9213322937564898,0.9213322937564898,0.0,0,False
2024-04-29,0.9213322937564898,0.9213322937564898,0.0,0,False
2024-04-30,0.9213322937564898,0.9213322937564898,0.0,0,False
2024-05-01,0.9213322937564898,0.9213322937564898,0.0,0,False
2024-05-02,0.9213322937564898,0.9213322937564898,0.0,0,False
2024-05-03,0.9213322937564898,0.9213322937564898,0.0,0,False
2024-05-04,0.9213322937564898,0.9213322937564898,0.0,0,False
2024-05-05,0.9213322937564898,0.9213322937564898,0.0,0,False
2024-05-06,0.9213322937564898,0.9213322937564898,0.0,0,False
2024-05-07,0.9213322937564898,0.9213322937564898,0.0,0,False
2024-05-08,0.9213322937564898,0.9213322937564898,0.0,0,False
2024-05-09,0.9213322937564898,0.9213322937564898,0.0,0,False
2024-05-10,0.9213322937564898,0.9213322937564898,0.0,0,False
2024-05-11,0.9213322937564898,0.9213322937564898,0.0,0,False
2024-05-12,0.9213322937564898,0.9213322937564898,0.0,0,False
2024-05-13,0.9213322937564898,0.9213322937564898,0.0,0,False
2024-05-14,0.9213322937564898,0.9213322937564898,0.0,0,False
2024-05-15,0.9213322937564898,0.9213322937564898,0.0,0,False
2024-05-16,0.9213322937564898,0.9213322937564898,0.0,0,False
2024-05-17,0.9213322937564898,0.9213322937564898,0.0,0,False
2024-05-18,0.9213322937564898,0.9213322937564898,0.0,0,False
2024-05-19,0.9213322937564898,0.9213322937564898,0.0,0,False
2024-05-20,0.9213322937564898,0.9213322937564898,0.0,0,False
2024-05-21,0.9213322937564898,0.9213322937564898,0.0,0,False
2024-05-22,0.9213322937564898,0.9213322937564898,0.0,0,False
2024-05-23,0.9213322937564898,0.9213322937564898,0.0,0,False
2024-05-24,0.9213322937564898,0.9213322937564898,0.0,0,False
2024-05-25,0.9213322937564898,0.9213322937564898,0.0,0,False
2024-05-26,0.9213322937564898,0.9213322937564898,0.0,0,False
2024-05-27,0.9213322937564898,0.9213322937564898,0.0,0,False
2024-05-28,0.9213322937564898,0.9213322937564898,0.0,0,False
2024-05-29,0.9213322937564898,0.9213322937564898,0.0,0,False
2024-05-30,0.9213322937564898,0.9213322937564898,0.0,0,False
2024-05-31,0.9213322937564898,0.9213322937564898,0.0,0,False
2024-06-01,0.9213322937564898,0.9213322937564898,0.0,0,False
2024-06-02,0.9213322937564898,0.9213322937564898,0.0,0,False
2024-06-03,0.9213322937564898,0.9213322937564898,0.0,0,False
2024-06-04,0.9213322937564898,0.9213322937564898,0.0,0,False
2024-06-05,0.9213322937564898,0.9213322937564898,0.0,0,False
2024-06-06,0.9213322937564898,0.9213322937564898,0.0,0,False
2024-06-07,0.9213322937564898,0.9213322937564898,0.0,0,False
2024-06-08,0.9213322937564898,0.9213322937564898,0.0,0,False
2024-06-09,0.9213322937564898,0.9213322937564898,0.0,0,False
2024-06-10,0.9213322937564898,0.9213322937564898,0.0,0,False
2024-06-11,0.9213322937564898,0.9213322937564898,0.0,0,False
2024-06-12,0.9213322937564898,0.9213322937564898,0.0,0,False
2024-06-13,0.9213322937564898,0.9213322937564898,0.0,0,False
2024-06-14,0.9213322937564898,0.9213322937564898,0.0,0,False
2024-06-15,0.9213322937564898,0.9213322937564898,0.0,0,False
2024-06-16,0.9213322937564898,0.9213322937564898,0.0,0,False
2024-06-17,0.9213322937564898,0.9213322937564898,0.0,0,False
2024-06-18,0.9213322937564898,0.9213322937564898,0.0,0,False
2024-06-19,0.9213322937564898,0.9213322937564898,0.0,0,False
2024-06-20,0.9213322937564898,0.9213322937564898,0.0,0,False
2024-06-21,0.9213322937564898,0.9213322937564898,0.0,0,False
2024-06-22,0.9213322937564898,0.9213322937564898,0.0,0,False
2024-06-23,0.9213322937564898,0.9213322937564898,0.0,0,False
2024-06-24,0.9213322937564898,0.9213322937564898,0.0,0,False
2024-06-25,0.9213322937564898,0.9213322937564898,0.0,0,False
2024-06-26,0.9213322937564898,0.9213322937564898,0.0,0,False
2024-06-27,0.9213322937564898,0.9213322937564898,0.0,0,False
2024-06-28,0.9213322937564898,0.9213322937564898,0.0,0,False
2024-06-29,0.9213322937564898,0.9213322937564898,0.0,0,False
2024-06-30,0.9213322937564898,0.9213322937564898,0.0,0,False
2024-07-01,0.9213322937564898,0.9213322937564898,0.0,0,False
2024-07-02,0.9213322937564898,0.9213322937564898,0.0,0,False
2024-07-03,0.9213322937564898,0.9213322937564898,0.0,0,False
2024-07-04,0.9213322937564898,0.9213322937564898,0.0,0,False
2024-07-05,0.9213322937564898,0.9213322937564898,0.0,0,False
2024-07-06,0.9213322937564898,0.9213322937564898,0.0,0,False
2024-07-07,0.9213322937564898,0.9213322937564898,0.0,0,False
2024-07-08,0.9213322937564898,0.9213322937564898,0.0,0,False
2024-07-09,0.9213322937564898,0.9213322937564898,0.0,0,False
2024-07-10,0.9213322937564898,0.9213322937564898,0.0,0,False
2024-07-11,0.9213322937564898,0.9213322937564898,0.0,0,False
2024-07-12,0.9213322937564898,0.9213322937564898,0.0,0,False
2024-07-13,0.9213322937564898,0.9213322937564898,0.0,0,False
2024-07-14,0.9213322937564898,0.9213322937564898,0.0,0,False
2024-07-15,0.9213322937564898,0.9213322937564898,0.0,0,False
2024-07-16,0.9213322937564898,0.9213322937564898,0.0,0,False
2024-07-17,0.9213322937564898,0.9213322937564898,0.0,0,False
2024-07-18,0.9213322937564898,0.9213322937564898,0.0,0,False
2024-07-19,0.9213322937564898,0.9213322937564898,0.0,0,False
2024-07-20,0.9213322937564898,0.9213322937564898,0.0,0,False
2024-07-21,0.9213322937564898,0.9213322937564898,0.0,0,False
2024-07-22,0.9213322937564898,0.9213322937564898,0.0,0,False
2024-07-23,0.9213322937564898,0.9213322937564898,0.0,0,False
2024-07-24,0.9213322937564898,0.9213322937564898,0.0,0,False
2024-07-25,0.9213322937564898,0.9213322937564898,0.0,0,False
2024-07-26,0.9213322937564898,0.9213322937564898,0.0,0,False
2024-07-27,0.9213322937564898,0.9213322937564898,0.0,0,False
2024-07-28,0.9213322937564898,0.9213322937564898,0.0,0,False
2024-07-29,0.9213322937564898,0.9213322937564898,0.0,0,False
2024-07-30,0.9213322937564898,0.9213322937564898,0.0,0,False
2024-07-31,0.9213322937564898,0.9213322937564898,0.0,0,False
2024-08-01,0.9213322937564898,0.9213322937564898,0.0,0,False
2024-08-02,0.9213322937564898,0.9213322937564898,0.0,0,False
2024-08-03,0.9213322937564898,0.9213322937564898,0.0,0,False
2024-08-04,0.9213322937564898,0.9213322937564898,0.0,0,False
2024-08-05,0.9213322937564898,0.9213322937564898,0.0,0,False
2024-08-06,0.9213322937564898,0.9213322937564898,0.0,0,False
2024-08-07,0.9213322937564898,0.9213322937564898,0.0,0,False
2024-08-08,0.9213322937564898,0.9213322937564898,0.0,0,False
2024-08-09,0.9213322937564898,0.9213322937564898,0.0,0,False
2024-08-10,0.9213322937564898,0.9213322937564898,0.0,0,False
2024-08-11,0.9213322937564898,0.9213322937564898,0.0,0,False
2024-08-12,0.9213322937564898,0.9213322937564898,0.0,0,False
2024-08-13,0.9213322937564898,0.9213322937564898,0.0,0,False
2024-08-14,0.9213322937564898,0.9213322937564898,0.0,0,False
2024-08-15,0.9213322937564898,0.9213322937564898,0.0,0,False
2024-08-16,0.9213322937564898,0.9213322937564898,0.0,0,False
2024-08-17,0.9213322937564898,0.9213322937564898,0.0,0,False
2024-08-18,0.9213322937564898,0.9213322937564898,0.0,0,False
2024-08-19,0.9213322937564898,0.9213322937564898,0.0,0,False
2024-08-20,0.9213322937564898,0.9213322937564898,0.0,0,False
2024-08-21,0.9213322937564898,0.9213322937564898,0.0,0,False
2024-08-22,0.9213322937564898,0.9213322937564898,0.0,0,False
2024-08-23,0.9213322937564898,0.9213322937564898,0.0,0,False
2024-08-24,0.9213322937564898,0.9213322937564898,0.0,0,False
2024-08-25,0.9213322937564898,0.9213322937564898,0.0,0,False
2024-08-26,0.9213322937564898,0.9213322937564898,0.0,0,False
2024-08-27,0.9213322937564898,0.9213322937564898,0.0,0,False
2024-08-28,0.9213322937564898,0.9213322937564898,0.0,0,False
2024-08-29,0.9213322937564898,0.9213322937564898,0.0,0,False
2024-08-30,0.9213322937564898,0.9213322937564898,0.0,0,False
2024-08-31,0.9213322937564898,0.9213322937564898,0.0,0,False
2024-09-01,0.9213322937564898,0.9213322937564898,0.0,0,False
2024-09-02,0.9213322937564898,0.9213322937564898,0.0,0,False
2024-09-03,0.9213322937564898,0.9213322937564898,0.0,0,False
2024-09-04,0.9213322937564898,0.9213322937564898,0.0,0,False
2024-09-05,0.9213322937564898,0.9213322937564898,0.0,0,False
2024-09-06,0.9213322937564898,0.9213322937564898,0.0,0,False
2024-09-07,0.9213322937564898,0.9213322937564898,0.0,0,False
2024-09-08,0.9213322937564898,0.9213322937564898,0.0,0,False
2024-09-09,0.9213322937564898,0.9213322937564898,0.0,0,False
2024-09-10,0.9213322937564898,0.9213322937564898,0.0,0,False
2024-09-11,0.9213322937564898,0.9213322937564898,0.0,0,False
2024-09-12,0.9213322937564898,0.9213322937564898,0.0,0,False
2024-09-13,0.9213322937564898,0.9213322937564898,0.0,0,False
2024-09-14,0.9213322937564898,0.9213322937564898,0.0,0,False
2024-09-15,0.9213322937564898,0.9213322937564898,0.0,0,False
2024-09-16,0.9213322937564898,0.9213322937564898,0.0,0,False
2024-09-17,0.9213322937564898,0.9213322937564898,0.0,0,False
2024-09-18,0.9213322937564898,0.9213322937564898,0.0,0,False
2024-09-19,0.9213322937564898,0.9213322937564898,0.0,0,False
2024-09-20,0.9213322937564898,0.9213322937564898,0.0,0,False
2024-09-21,0.9213322937564898,0.9213322937564898,0.0,0,False
2024-09-22,0.9213322937564898,0.9213322937564898,0.0,0,False
2024-09-23,0.9213322937564898,0.9213322937564898,0.0,0,False
2024-09-24,0.9213322937564898,0.9213322937564898,0.0,0,False
2024-09-25,0.9213322937564898,0.9213322937564898,0.0,0,False
2024-09-26,0.9213322937564898,0.9213322937564898,0.0,0,False
2024-09-27,0.9213322937564898,0.9213322937564898,0.0,0,False
2024-09-28,0.9213322937564898,0.9213322937564898,0.0,0,False
2024-09-29,0.9213322937564898,0.9213322937564898,0.0,0,False
2024-09-30,0.9213322937564898,0.9213322937564898,0.0,0,False
2024-10-01,0.9213322937564898,0.9213322937564898,0.0,0,False
2024-10-02,0.9213322937564898,0.9213322937564898,0.0,0,False
2024-10-03,0.9213322937564898,0.9213322937564898,0.0,0,False
2024-10-04,0.9213322937564898,0.9213322937564898,0.0,0,False
2024-10-05,0.9213322937564898,0.9213322937564898,0.0,0,False
2024-10-06,0.9213322937564898,0.9213322937564898,0.0,0,False
2024-10-07,0.9213322937564898,0.9213322937564898,0.0,0,False
2024-10-08,0.9213322937564898,0.9213322937564898,0.0,0,False
2024-10-09,0.9213322937564898,0.9213322937564898,0.0,0,False
2024-10-10,0.9213322937564898,0.9213322937564898,0.0,0,False
2024-10-11,0.9213322937564898,0.9213322937564898,0.0,0,False
2024-10-12,0.9213322937564898,0.9213322937564898,0.0,0,False
2024-10-13,0.9213322937564898,0.9213322937564898,0.0,0,False
2024-10-14,0.9213322937564898,0.9213322937564898,0.0,0,False
2024-10-15,0.9213322937564898,0.9213322937564898,0.0,0,False
2024-10-16,0.9213322937564898,0.9213322937564898,0.0,0,False
2024-10-17,0.9213322937564898,0.9213322937564898,0.0,0,False
2024-10-18,0.9213322937564898,0.9213322937564898,0.0,0,False
2024-10-19,0.9213322937564898,0.9213322937564898,0.0,0,False
2024-10-20,0.9213322937564898,0.9213322937564898,0.0,0,False
2024-10-21,0.9213322937564898,0.9213322937564898,0.0,0,False
2024-10-22,0.9213322937564898,0.9213322937564898,0.0,0,False
2024-10-23,0.9213322937564898,0.9213322937564898,0.0,0,False
2024-10-24,0.9213322937564898,0.9213322937564898,0.0,0,False
2024-10-25,0.9213322937564898,0.9213322937564898,0.0,0,False
2024-10-26,0.9213322937564898,0.9213322937564898,0.0,0,False
2024-10-27,0.9213322937564898,0.9213322937564898,0.0,0,False
2024-10-28,0.9213322937564898,0.9213322937564898,0.0,0,False
2024-10-29,0.9213322937564898,0.9213322937564898,0.0,0,False
2024-10-30,0.9213322937564898,0.9213322937564898,0.0,0,False
2024-10-31,0.9213322937564898,0.9213322937564898,0.0,0,False
2024-11-01,0.9213322937564898,0.9213322937564898,0.0,0,False
2024-11-02,0.9213322937564898,0.9213322937564898,0.0,0,False
2024-11-03,0.9213322937564898,0.9213322937564898,0.0,0,False
2024-11-04,0.9213322937564898,0.9213322937564898,0.0,0,False
2024-11-05,0.9213322937564898,0.9213322937564898,0.0,0,False
2024-11-06,0.9213322937564898,0.9213322937564898,0.0,0,False
2024-11-07,0.9213322937564898,0.9213322937564898,0.0,0,False
2024-11-08,0.9213322937564898,0.9213322937564898,0.0,0,False
2024-11-09,0.9213322937564898,0.9213322937564898,0.0,0,False
2024-11-10,0.9213322937564898,0.9213322937564898,0.0,0,False
2024-11-11,0.9213322937564898,0.9213322937564898,0.0,0,False
2024-11-12,0.9213322937564898,0.9213322937564898,0.0,0,False
2024-11-13,0.9213322937564898,0.9213322937564898,0.0,0,False
2024-11-14,0.9213322937564898,0.9213322937564898,0.0,0,False
2024-11-15,0.9213322937564898,0.9213322937564898,0.0,0,False
2024-11-16,0.9213322937564898,0.9213322937564898,0.0,0,False
2024-11-17,0.9213322937564898,0.9213322937564898,0.0,0,False
2024-11-18,0.9213322937564898,0.9213322937564898,0.0,0,False
2024-11-19,0.9213322937564898,0.9213322937564898,0.0,0,False
2024-11-20,0.9213322937564898,0.9213322937564898,0.0,0,False
2024-11-21,0.9213322937564898,0.9213322937564898,0.0,0,False
2024-11-22,0.9213322937564898,0.9213322937564898,0.0,0,False
2024-11-23,0.9213322937564898,0.9213322937564898,0.0,0,False
2024-11-24,0.9213322937564898,0.9213322937564898,0.0,0,False
2024-11-25,0.9213322937564898,0.9213322937564898,0.0,0,False
2024-11-26,0.9213322937564898,0.9213322937564898,0.0,0,False
2024-11-27,0.9213322937564898,0.9213322937564898,0.0,0,False
2024-11-28,0.9213322937564898,0.9213322937564898,0.0,0,False
2024-11-29,0.9213322937564898,0.9213322937564898,0.0,0,False
2024-11-30,0.9213322937564898,0.9213322937564898,0.0,0,False
2024-12-01,0.9213322937564898,0.9213322937564898,0.0,0,False
2024-12-02,0.9213322937564898,0.9213322937564898,0.0,0,False
2024-12-03,0.9213322937564898,0.9213322937564898,0.0,0,False
2024-12-04,0.9213322937564898,0.9213322937564898,0.0,0,False
2024-12-05,0.9213322937564898,0.9213322937564898,0.0,0,False
2024-12-06,0.9213322937564898,0.9213322937564898,0.0,0,False
2024-12-07,0.9213322937564898,0.9213322937564898,0.0,0,False
2024-12-08,0.9213322937564898,0.9213322937564898,0.0,0,False
2024-12-09,0.9213322937564898,0.9213322937564898,0.0,0,False
2024-12-10,0.9213322937564898,0.9213322937564898,0.0,0,False
2024-12-11,0.9213322937564898,0.9213322937564898,0.0,0,False
2024-12-12,0.9213322937564898,0.9213322937564898,0.0,0,False
2024-12-13,0.9213322937564898,0.9213322937564898,0.0,0,False
2024-12-14,0.9213322937564898,0.9213322937564898,0.0,0,False
2024-12-15,0.9213322937564898,0.9213322937564898,0.0,0,False
2024-12-16,0.9213322937564898,0.9213322937564898,0.0,0,False
2024-12-17,0.9213322937564898,0.9213322937564898,0.0,0,False
2024-12-18,0.9213322937564898,0.9213322937564898,0.0,0,False
2024-12-19,0.9213322937564898,0.9213322937564898,0.0,0,False
2024-12-20,0.9213322937564898,0.9213322937564898,0.0,0,False
2024-12-21,0.9213322937564898,0.9213322937564898,0.0,0,False
2024-12-22,0.9213322937564898,0.9213322937564898,0.0,0,False
2024-12-23,0.9213322937564898,0.9213322937564898,0.0,0,False
2024-12-24,0.9213322937564898,0.9213322937564898,0.0,0,False
2024-12-25,0.9213322937564898,0.9213322937564898,0.0,0,False
2024-12-26,0.9213322937564898,0.9213322937564898,0.0,0,False
2024-12-27,0.9213322937564898,0.9213322937564898,0.0,0,False
2024-12-28,0.9213322937564898,0.9213322937564898,0.0,0,False
2024-12-29,0.9213322937564898,0.9213322937564898,0.0,0,False
2024-12-30,0.9213322937564898,0.9213322937564898,0.0,0,False
2024-12-31,0.9213322937564898,0.9213322937564898,0.0,0,False
