day,start_equity,end_equity,return_pct,entries,active
2021-09-02,1.0,1.0,0.0,0,False
2021-09-03,1.0,1.0,0.0,0,False
2021-09-04,1.0,1.0,0.0,0,False
2021-09-05,1.0,1.0,0.0,0,False
2021-09-06,1.0,1.0,0.0,0,False
2021-09-07,1.0,1.0,0.0,0,False
2021-09-08,1.0,1.0,0.0,0,False
2021-09-09,1.0,1.0,0.0,0,False
2021-09-10,1.0,1.0,0.0,0,False
2021-09-11,1.0,1.0,0.0,0,False
2021-09-12,1.0,1.0,0.0,0,False
2021-09-13,1.0,1.0,0.0,0,False
2021-09-14,1.0,1.0,0.0,0,False
2021-09-15,1.0,1.0,0.0,0,False
2021-09-16,1.0,1.0,0.0,0,False
2021-09-17,1.0,1.0,0.0,0,False
2021-09-18,1.0,1.0,0.0,0,False
2021-09-19,1.0,1.0,0.0,0,False
2021-09-20,1.0,1.0,0.0,0,False
2021-09-21,1.0,1.0,0.0,0,False
2021-09-22,1.0,1.0,0.0,0,False
2021-09-23,1.0,1.0,0.0,0,False
2021-09-24,1.0,1.0,0.0,0,False
2021-09-25,1.0,1.0,0.0,0,False
2021-09-26,1.0,1.0,0.0,0,False
2021-09-27,1.0,1.0,0.0,0,False
2021-09-28,1.0,1.0,0.0,0,False
2021-09-29,1.0,1.0,0.0,0,False
2021-09-30,1.0,1.0,0.0,0,False
2021-10-01,1.0,1.0,0.0,0,False
2021-10-02,1.0,1.0,0.0,0,False
2021-10-03,1.0,1.0,0.0,0,False
2021-10-04,1.0,1.0,0.0,0,False
2021-10-05,1.0,1.0,0.0,0,False
2021-10-06,1.0,1.0,0.0,0,False
2021-10-07,1.0,1.0,0.0,0,False
2021-10-08,1.0,1.0,0.0,0,False
2021-10-09,1.0,1.0,0.0,0,False
2021-10-10,1.0,1.0,0.0,0,False
2021-10-11,1.0,1.0,0.0,0,False
2021-10-12,1.0,1.0,0.0,0,False
2021-10-13,1.0,1.0041608138854907,0.4160813885490722,1,True
2021-10-14,1.0041608138854907,1.007338994356227,0.3165011447159083,0,True
2021-10-15,1.007338994356227,1.007338994356227,0.0,0,False
2021-10-16,1.007338994356227,1.007338994356227,0.0,0,False
2021-10-17,1.007338994356227,1.007338994356227,0.0,0,False
2021-10-18,1.007338994356227,1.007338994356227,0.0,0,False
2021-10-19,1.007338994356227,1.007338994356227,0.0,0,False
2021-10-20,1.007338994356227,1.007338994356227,0.0,0,False
2021-10-21,1.007338994356227,1.007338994356227,0.0,0,False
2021-10-22,1.007338994356227,1.007338994356227,0.0,0,False
2021-10-23,1.007338994356227,1.007338994356227,0.0,0,False
2021-10-24,1.007338994356227,1.007338994356227,0.0,0,False
2021-10-25,1.007338994356227,1.0106508322010632,0.3287709364366176,1,True
2021-10-26,1.0106508322010632,1.0106508322010632,0.0,0,False
2021-10-27,1.0106508322010632,1.0184728118641302,0.7739547046166084,4,True
2021-10-28,1.0184728118641302,1.0141151834128959,-0.4278590847465513,0,True
2021-10-29,1.0141151834128959,1.0141151834128959,0.0,0,False
2021-10-30,1.0141151834128959,1.0141151834128959,0.0,0,False
2021-10-31,1.0141151834128959,1.0141151834128959,0.0,0,False
2021-11-01,1.0141151834128959,1.0141151834128959,0.0,0,False
2021-11-02,1.0141151834128959,1.0141151834128959,0.0,0,False
2021-11-03,1.0141151834128959,1.0141151834128959,0.0,0,False
2021-11-04,1.0141151834128959,1.0141151834128959,0.0,0,False
2021-11-05,1.0141151834128959,1.0141151834128959,0.0,0,False
2021-11-06,1.0141151834128959,1.0141151834128959,0.0,0,False
2021-11-07,1.0141151834128959,1.0141151834128959,0.0,0,False
2021-11-08,1.0141151834128959,1.0141151834128959,0.0,0,False
2021-11-09,1.0141151834128959,1.0141151834128959,0.0,0,False
2021-11-10,1.0141151834128959,1.0141151834128959,0.0,0,False
2021-11-11,1.0141151834128959,1.0099980166804376,-0.405986104911904,3,True
2021-11-12,1.0099980166804376,1.0099980166804376,0.0,0,False
2021-11-13,1.0099980166804376,1.0099980166804376,0.0,0,False
2021-11-14,1.0099980166804376,1.0099980166804376,0.0,0,False
2021-11-15,1.0099980166804376,1.0099980166804376,0.0,0,False
2021-11-16,1.0099980166804376,1.0351352773491793,2.4888425772716216,4,True
2021-11-17,1.0351352773491793,1.042448023543234,0.7064531906188609,0,True
2021-11-18,1.042448023543234,1.0391673392344831,-0.31470962912856226,1,True
2021-11-19,1.0391673392344831,1.0372363121980264,-0.18582445420958216,0,True
2021-11-20,1.0372363121980264,1.0372363121980264,0.0,0,False
2021-11-21,1.0372363121980264,1.0372363121980264,0.0,0,False
2021-11-22,1.0372363121980264,1.0372363121980264,0.0,0,False
2021-11-23,1.0372363121980264,1.0372363121980264,0.0,0,False
2021-11-24,1.0372363121980264,1.0372363121980264,0.0,0,False
2021-11-25,1.0372363121980264,1.0372363121980264,0.0,0,False
2021-11-26,1.0372363121980264,1.0397565360803358,0.24297489903422065,5,True
2021-11-27,1.0397565360803358,1.0383895028619599,-0.13147628035399261,0,True
2021-11-28,1.0383895028619599,1.0383895028619599,0.0,0,False
2021-11-29,1.0383895028619599,1.0383895028619599,0.0,0,False
2021-11-30,1.0383895028619599,1.0383895028619599,0.0,0,False
2021-12-01,1.0383895028619599,1.0362393696956105,-0.2070642240145193,1,True
2021-12-02,1.0362393696956105,1.036882811272887,0.06209391344256243,1,True
2021-12-03,1.036882811272887,1.0344209868589216,-0.23742552072429923,1,True
2021-12-04,1.0344209868589216,1.0138875789410222,-1.9850146293193704,4,True
2021-12-05,1.0138875789410222,1.0138875789410222,0.0,0,False
2021-12-06,1.0138875789410222,1.0138875789410222,0.0,0,False
2021-12-07,1.0138875789410222,1.0138875789410222,0.0,0,False
2021-12-08,1.0138875789410222,1.0138875789410222,0.0,0,False
2021-12-09,1.0138875789410222,1.0138875789410222,0.0,0,False
2021-12-10,1.0138875789410222,1.0138875789410222,0.0,0,False
2021-12-11,1.0138875789410222,1.0138875789410222,0.0,0,False
2021-12-12,1.0138875789410222,1.0138875789410222,0.0,0,False
2021-12-13,1.0138875789410222,1.0138875789410222,0.0,0,False
2021-12-14,1.0138875789410222,1.0138875789410222,0.0,0,False
2021-12-15,1.0138875789410222,1.0138875789410222,0.0,0,False
2021-12-16,1.0138875789410222,1.0138875789410222,0.0,0,False
2021-12-17,1.0138875789410222,1.0138875789410222,0.0,0,False
2021-12-18,1.0138875789410222,1.0138875789410222,0.0,0,False
2021-12-19,1.0138875789410222,1.0138875789410222,0.0,0,False
2021-12-20,1.0138875789410222,1.0138875789410222,0.0,0,False
2021-12-21,1.0138875789410222,1.0138875789410222,0.0,0,False
2021-12-22,1.0138875789410222,1.0138875789410222,0.0,0,False
2021-12-23,1.0138875789410222,1.0138875789410222,0.0,0,False
2021-12-24,1.0138875789410222,1.0138875789410222,0.0,0,False
2021-12-25,1.0138875789410222,1.0138875789410222,0.0,0,False
2021-12-26,1.0138875789410222,1.0138875789410222,0.0,0,False
2021-12-27,1.0138875789410222,1.0138875789410222,0.0,0,False
2021-12-28,1.0138875789410222,1.0138875789410222,0.0,0,False
2021-12-29,1.0138875789410222,1.0138875789410222,0.0,0,False
2021-12-30,1.0138875789410222,1.0138875789410222,0.0,0,False
2021-12-31,1.0138875789410222,1.0138875789410222,0.0,0,False
2022-01-01,1.0138875789410222,1.0138875789410222,0.0,0,False
2022-01-02,1.0138875789410222,1.0138875789410222,0.0,0,False
2022-01-03,1.0138875789410222,1.0138875789410222,0.0,0,False
2022-01-04,1.0138875789410222,1.0138875789410222,0.0,0,False
2022-01-05,1.0138875789410222,1.0138875789410222,0.0,0,False
2022-01-06,1.0138875789410222,1.0147495577328733,0.08501719616207382,1,True
2022-01-07,1.0147495577328733,1.0147495577328733,0.0,0,False
2022-01-08,1.0147495577328733,1.0147495577328733,0.0,0,False
2022-01-09,1.0147495577328733,1.0147495577328733,0.0,0,False
2022-01-10,1.0147495577328733,1.0147495577328733,0.0,0,False
2022-01-11,1.0147495577328733,1.0147495577328733,0.0,0,False
2022-01-12,1.0147495577328733,1.0147495577328733,0.0,0,False
2022-01-13,1.0147495577328733,1.0147495577328733,0.0,0,False
2022-01-14,1.0147495577328733,1.0147495577328733,0.0,0,False
2022-01-15,1.0147495577328733,1.0147495577328733,0.0,0,False
2022-01-16,1.0147495577328733,1.0147495577328733,0.0,0,False
2022-01-17,1.0147495577328733,1.0147495577328733,0.0,0,False
2022-01-18,1.0147495577328733,1.0147495577328733,0.0,0,False
2022-01-19,1.0147495577328733,1.0147495577328733,0.0,0,False
2022-01-20,1.0147495577328733,1.0147495577328733,0.0,0,False
2022-01-21,1.0147495577328733,1.0147495577328733,0.0,0,False
2022-01-22,1.0147495577328733,1.0147495577328733,0.0,0,False
2022-01-23,1.0147495577328733,1.0147495577328733,0.0,0,False
2022-01-24,1.0147495577328733,1.0147495577328733,0.0,0,False
2022-01-25,1.0147495577328733,1.0147495577328733,0.0,0,False
2022-01-26,1.0147495577328733,1.0147495577328733,0.0,0,False
2022-01-27,1.0147495577328733,1.0147495577328733,0.0,0,False
2022-01-28,1.0147495577328733,1.0147495577328733,0.0,0,False
2022-01-29,1.0147495577328733,1.0147495577328733,0.0,0,False
2022-01-30,1.0147495577328733,1.0147495577328733,0.0,0,False
2022-01-31,1.0147495577328733,1.0147495577328733,0.0,0,False
2022-02-01,1.0147495577328733,1.0147495577328733,0.0,0,False
2022-02-02,1.0147495577328733,1.0147495577328733,0.0,0,False
2022-02-03,1.0147495577328733,1.0147495577328733,0.0,0,False
2022-02-04,1.0147495577328733,1.0147495577328733,0.0,0,False
2022-02-05,1.0147495577328733,1.0147495577328733,0.0,0,False
2022-02-06,1.0147495577328733,1.0147495577328733,0.0,0,False
2022-02-07,1.0147495577328733,1.0147495577328733,0.0,0,False
2022-02-08,1.0147495577328733,1.0147495577328733,0.0,0,False
2022-02-09,1.0147495577328733,1.0147495577328733,0.0,0,False
2022-02-10,1.0147495577328733,1.0144602112051848,-0.028514082660457962,1,True
2022-02-11,1.0144602112051848,1.011910694093299,-0.25131760553299687,0,True
2022-02-12,1.011910694093299,1.011910694093299,0.0,0,False
2022-02-13,1.011910694093299,1.011910694093299,0.0,0,False
2022-02-14,1.011910694093299,1.011910694093299,0.0,0,False
2022-02-15,1.011910694093299,1.011910694093299,0.0,0,False
2022-02-16,1.011910694093299,1.011910694093299,0.0,0,False
2022-02-17,1.011910694093299,1.011910694093299,0.0,0,False
2022-02-18,1.011910694093299,1.011910694093299,0.0,0,False
2022-02-19,1.011910694093299,1.011910694093299,0.0,0,False
2022-02-20,1.011910694093299,1.011910694093299,0.0,0,False
2022-02-21,1.011910694093299,1.011910694093299,0.0,0,False
2022-02-22,1.011910694093299,1.011910694093299,0.0,0,False
2022-02-23,1.011910694093299,1.011910694093299,0.0,0,False
2022-02-24,1.011910694093299,1.011910694093299,0.0,0,False
2022-02-25,1.011910694093299,1.011910694093299,0.0,0,False
2022-02-26,1.011910694093299,1.011910694093299,0.0,0,False
2022-02-27,1.011910694093299,1.011910694093299,0.0,0,False
2022-02-28,1.011910694093299,1.011910694093299,0.0,0,False
2022-03-01,1.011910694093299,1.011910694093299,0.0,0,False
2022-03-02,1.011910694093299,1.011910694093299,0.0,0,False
2022-03-03,1.011910694093299,1.011910694093299,0.0,0,False
2022-03-04,1.011910694093299,1.011910694093299,0.0,0,False
2022-03-05,1.011910694093299,1.011910694093299,0.0,0,False
2022-03-06,1.011910694093299,1.011910694093299,0.0,0,False
2022-03-07,1.011910694093299,1.011910694093299,0.0,0,False
2022-03-08,1.011910694093299,1.011910694093299,0.0,0,False
2022-03-09,1.011910694093299,1.011910694093299,0.0,0,False
2022-03-10,1.011910694093299,1.011910694093299,0.0,0,False
2022-03-11,1.011910694093299,1.011910694093299,0.0,0,False
2022-03-12,1.011910694093299,1.011910694093299,0.0,0,False
2022-03-13,1.011910694093299,1.011910694093299,0.0,0,False
2022-03-14,1.011910694093299,1.011910694093299,0.0,0,False
2022-03-15,1.011910694093299,1.011910694093299,0.0,0,False
2022-03-16,1.011910694093299,1.011910694093299,0.0,0,False
2022-03-17,1.011910694093299,1.011910694093299,0.0,0,False
2022-03-18,1.011910694093299,1.011910694093299,0.0,0,False
2022-03-19,1.011910694093299,1.011910694093299,0.0,0,False
2022-03-20,1.011910694093299,1.011910694093299,0.0,0,False
2022-03-21,1.011910694093299,1.011910694093299,0.0,0,False
2022-03-22,1.011910694093299,1.011910694093299,0.0,0,False
2022-03-23,1.011910694093299,1.011910694093299,0.0,0,False
2022-03-24,1.011910694093299,1.011910694093299,0.0,0,False
2022-03-25,1.011910694093299,1.011910694093299,0.0,0,False
2022-03-26,1.011910694093299,1.011910694093299,0.0,0,False
2022-03-27,1.011910694093299,1.011910694093299,0.0,0,False
2022-03-28,1.011910694093299,1.011910694093299,0.0,0,False
2022-03-29,1.011910694093299,1.011910694093299,0.0,0,False
2022-03-30,1.011910694093299,1.010672592432397,-0.12235285861973422,1,True
2022-03-31,1.010672592432397,1.010672592432397,0.0,0,False
2022-04-01,1.010672592432397,1.010672592432397,0.0,0,False
2022-04-02,1.010672592432397,1.010672592432397,0.0,0,False
2022-04-03,1.010672592432397,1.010672592432397,0.0,0,False
2022-04-04,1.010672592432397,1.010672592432397,0.0,0,False
2022-04-05,1.010672592432397,1.010672592432397,0.0,0,False
2022-04-06,1.010672592432397,1.0116290440593165,0.09463516019738716,1,True
2022-04-07,1.0116290440593165,1.0116290440593165,0.0,0,False
2022-04-08,1.0116290440593165,1.0116290440593165,0.0,0,False
2022-04-09,1.0116290440593165,1.0116290440593165,0.0,0,False
2022-04-10,1.0116290440593165,1.0116290440593165,0.0,0,False
2022-04-11,1.0116290440593165,1.0116290440593165,0.0,0,False
2022-04-12,1.0116290440593165,1.0116290440593165,0.0,0,False
2022-04-13,1.0116290440593165,1.0116290440593165,0.0,0,False
2022-04-14,1.0116290440593165,1.0116290440593165,0.0,0,False
2022-04-15,1.0116290440593165,1.0116290440593165,0.0,0,False
2022-04-16,1.0116290440593165,1.0116290440593165,0.0,0,False
2022-04-17,1.0116290440593165,1.0116290440593165,0.0,0,False
2022-04-18,1.0116290440593165,1.0137410744586404,0.20877518411779317,1,True
2022-04-19,1.0137410744586404,1.012641936238669,-0.10842396028575285,0,True
2022-04-20,1.012641936238669,1.012641936238669,0.0,0,False
2022-04-21,1.012641936238669,1.012641936238669,0.0,0,False
2022-04-22,1.012641936238669,1.012641936238669,0.0,0,False
2022-04-23,1.012641936238669,1.012641936238669,0.0,0,False
2022-04-24,1.012641936238669,1.012641936238669,0.0,0,False
2022-04-25,1.012641936238669,1.012641936238669,0.0,0,False
2022-04-26,1.012641936238669,1.012641936238669,0.0,0,False
2022-04-27,1.012641936238669,1.012641936238669,0.0,0,False
2022-04-28,1.012641936238669,1.012641936238669,0.0,0,False
2022-04-29,1.012641936238669,1.012641936238669,0.0,0,False
2022-04-30,1.012641936238669,1.012641936238669,0.0,0,False
2022-05-01,1.012641936238669,1.0253013928082213,1.2501414484743067,4,True
2022-05-02,1.0253013928082213,1.0253013928082213,0.0,0,False
2022-05-03,1.0253013928082213,1.0253013928082213,0.0,0,False
2022-05-04,1.0253013928082213,1.0253013928082213,0.0,0,False
2022-05-05,1.0253013928082213,1.0253013928082213,0.0,0,False
2022-05-06,1.0253013928082213,1.0259033043028802,0.058705810689518856,1,True
2022-05-07,1.0259033043028802,1.0251465310901269,-0.07376652454273991,0,True
2022-05-08,1.0251465310901269,1.0251465310901269,0.0,0,False
2022-05-09,1.0251465310901269,1.0251465310901269,0.0,0,False
2022-05-10,1.0251465310901269,1.0251465310901269,0.0,0,False
2022-05-11,1.0251465310901269,1.0251465310901269,0.0,0,False
2022-05-12,1.0251465310901269,1.0251465310901269,0.0,0,False
2022-05-13,1.0251465310901269,1.0251465310901269,0.0,0,False
2022-05-14,1.0251465310901269,1.0251465310901269,0.0,0,False
2022-05-15,1.0251465310901269,1.0251465310901269,0.0,0,False
2022-05-16,1.0251465310901269,1.0251465310901269,0.0,0,False
2022-05-17,1.0251465310901269,1.0251465310901269,0.0,0,False
2022-05-18,1.0251465310901269,1.0251465310901269,0.0,0,False
2022-05-19,1.0251465310901269,1.0251465310901269,0.0,0,False
2022-05-20,1.0251465310901269,1.0281425675227767,0.29225445746412504,1,True
2022-05-21,1.0281425675227767,1.0281425675227767,0.0,0,False
2022-05-22,1.0281425675227767,1.0281425675227767,0.0,0,False
2022-05-23,1.0281425675227767,1.0281425675227767,0.0,0,False
2022-05-24,1.0281425675227767,1.0281425675227767,0.0,0,False
2022-05-25,1.0281425675227767,1.0230098920072699,-0.49921826774214084,1,True
2022-05-26,1.0230098920072699,1.0230098920072699,0.0,0,False
2022-05-27,1.0230098920072699,1.0230098920072699,0.0,0,False
2022-05-28,1.0230098920072699,1.0230098920072699,0.0,0,False
2022-05-29,1.0230098920072699,1.0230098920072699,0.0,0,False
2022-05-30,1.0230098920072699,1.0230098920072699,0.0,0,False
2022-05-31,1.0230098920072699,1.0230098920072699,0.0,0,False
2022-06-01,1.0230098920072699,1.0230098920072699,0.0,0,False
2022-06-02,1.0230098920072699,1.0230098920072699,0.0,0,False
2022-06-03,1.0230098920072699,1.0230098920072699,0.0,0,False
2022-06-04,1.0230098920072699,1.0230098920072699,0.0,0,False
2022-06-05,1.0230098920072699,1.0230098920072699,0.0,0,False
2022-06-06,1.0230098920072699,1.0230098920072699,0.0,0,False
2022-06-07,1.0230098920072699,1.0230098920072699,0.0,0,False
2022-06-08,1.0230098920072699,1.0230098920072699,0.0,0,False
2022-06-09,1.0230098920072699,1.0230098920072699,0.0,0,False
2022-06-10,1.0230098920072699,1.0230098920072699,0.0,0,False
2022-06-11,1.0230098920072699,1.0230098920072699,0.0,0,False
2022-06-12,1.0230098920072699,1.0230098920072699,0.0,0,False
2022-06-13,1.0230098920072699,1.0230098920072699,0.0,0,False
2022-06-14,1.0230098920072699,1.0230098920072699,0.0,0,False
2022-06-15,1.0230098920072699,1.0230098920072699,0.0,0,False
2022-06-16,1.0230098920072699,1.0230098920072699,0.0,0,False
2022-06-17,1.0230098920072699,1.0230098920072699,0.0,0,False
2022-06-18,1.0230098920072699,1.015438257998853,-0.7401330199809153,4,True
2022-06-19,1.015438257998853,1.0153000089344528,-0.01361471889710364,0,True
2022-06-20,1.0153000089344528,1.0153000089344528,0.0,0,False
2022-06-21,1.0153000089344528,1.0153000089344528,0.0,0,False
2022-06-22,1.0153000089344528,1.0153000089344528,0.0,0,False
2022-06-23,1.0153000089344528,1.0153000089344528,0.0,0,False
2022-06-24,1.0153000089344528,1.0153000089344528,0.0,0,False
2022-06-25,1.0153000089344528,1.0153000089344528,0.0,0,False
2022-06-26,1.0153000089344528,1.0153000089344528,0.0,0,False
2022-06-27,1.0153000089344528,1.0153000089344528,0.0,0,False
2022-06-28,1.0153000089344528,1.0164615710528158,0.11440580204289397,1,True
2022-06-29,1.0164615710528158,1.0207448084821555,0.4213870500685335,0,True
2022-06-30,1.0207448084821555,1.0207448084821555,0.0,0,False
2022-07-01,1.0207448084821555,1.0207448084821555,0.0,0,False
2022-07-02,1.0207448084821555,1.0207448084821555,0.0,0,False
2022-07-03,1.0207448084821555,1.0207448084821555,0.0,0,False
2022-07-04,1.0207448084821555,1.0207448084821555,0.0,0,False
2022-07-05,1.0207448084821555,1.0207448084821555,0.0,0,False
2022-07-06,1.0207448084821555,1.0207448084821555,0.0,0,False
2022-07-07,1.0207448084821555,1.0207448084821555,0.0,0,False
2022-07-08,1.0207448084821555,1.0207448084821555,0.0,0,False
2022-07-09,1.0207448084821555,1.0207448084821555,0.0,0,False
2022-07-10,1.0207448084821555,1.0207448084821555,0.0,0,False
2022-07-11,1.0207448084821555,1.0207448084821555,0.0,0,False
2022-07-12,1.0207448084821555,1.0207448084821555,0.0,0,False
2022-07-13,1.0207448084821555,1.02900340160741,0.8090752024039194,4,True
2022-07-14,1.02900340160741,1.047365834607033,1.7844871038267485,0,True
2022-07-15,1.047365834607033,1.047365834607033,0.0,0,False
2022-07-16,1.047365834607033,1.047365834607033,0.0,0,False
2022-07-17,1.047365834607033,1.047365834607033,0.0,0,False
2022-07-18,1.047365834607033,1.047365834607033,0.0,0,False
2022-07-19,1.047365834607033,1.047365834607033,0.0,0,False
2022-07-20,1.047365834607033,1.047365834607033,0.0,0,False
2022-07-21,1.047365834607033,1.0448515416046738,-0.2400587186713543,3,True
2022-07-22,1.0448515416046738,1.0448515416046738,0.0,0,False
2022-07-23,1.0448515416046738,1.0448515416046738,0.0,0,False
2022-07-24,1.0448515416046738,1.0448515416046738,0.0,0,False
2022-07-25,1.0448515416046738,1.0455778662798836,0.06951462923567853,1,True
2022-07-26,1.0455778662798836,1.0455778662798836,0.0,0,False
2022-07-27,1.0455778662798836,1.0455778662798836,0.0,0,False
2022-07-28,1.0455778662798836,1.0455778662798836,0.0,0,False
2022-07-29,1.0455778662798836,1.0455778662798836,0.0,0,False
2022-07-30,1.0455778662798836,1.0455778662798836,0.0,0,False
2022-07-31,1.0455778662798836,1.0455778662798836,0.0,0,False
2022-08-01,1.0455778662798836,1.0455778662798836,0.0,0,False
2022-08-02,1.0455778662798836,1.0455778662798836,0.0,0,False
2022-08-03,1.0455778662798836,1.0455778662798836,0.0,0,False
2022-08-04,1.0455778662798836,1.0455778662798836,0.0,0,False
2022-08-05,1.0455778662798836,1.0455778662798836,0.0,0,False
2022-08-06,1.0455778662798836,1.0455778662798836,0.0,0,False
2022-08-07,1.0455778662798836,1.0455778662798836,0.0,0,False
2022-08-08,1.0455778662798836,1.0455778662798836,0.0,0,False
2022-08-09,1.0455778662798836,1.0470257232836127,0.13847433562079736,1,True
2022-08-10,1.0470257232836127,1.0470257232836127,0.0,0,False
2022-08-11,1.0470257232836127,1.0470257232836127,0.0,0,False
2022-08-12,1.0470257232836127,1.047182774154051,0.014999714615004933,1,True
2022-08-13,1.047182774154051,1.047182774154051,0.0,0,False
2022-08-14,1.047182774154051,1.047182774154051,0.0,0,False
2022-08-15,1.047182774154051,1.047182774154051,0.0,0,False
2022-08-16,1.047182774154051,1.047182774154051,0.0,0,False
2022-08-17,1.047182774154051,1.047182774154051,0.0,0,False
2022-08-18,1.047182774154051,1.047182774154051,0.0,0,False
2022-08-19,1.047182774154051,1.0236212735627621,-2.2499893211404776,7,True
2022-08-20,1.0236212735627621,1.0236212735627621,0.0,0,False
2022-08-21,1.0236212735627621,1.0236212735627621,0.0,0,False
2022-08-22,1.0236212735627621,1.0236212735627621,0.0,0,False
2022-08-23,1.0236212735627621,1.0236212735627621,0.0,0,False
2022-08-24,1.0236212735627621,1.0236212735627621,0.0,0,False
2022-08-25,1.0236212735627621,1.0236212735627621,0.0,0,False
2022-08-26,1.0236212735627621,1.0236212735627621,0.0,0,False
2022-08-27,1.0236212735627621,1.0236212735627621,0.0,0,False
2022-08-28,1.0236212735627621,1.0236212735627621,0.0,0,False
2022-08-29,1.0236212735627621,1.0236212735627621,0.0,0,False
2022-08-30,1.0236212735627621,1.0236212735627621,0.0,0,False
2022-08-31,1.0236212735627621,1.0236212735627621,0.0,0,False
2022-09-01,1.0236212735627621,1.0236212735627621,0.0,0,False
2022-09-02,1.0236212735627621,1.0236212735627621,0.0,0,False
2022-09-03,1.0236212735627621,1.0236212735627621,0.0,0,False
2022-09-04,1.0236212735627621,1.0236212735627621,0.0,0,False
2022-09-05,1.0236212735627621,1.0236212735627621,0.0,0,False
2022-09-06,1.0236212735627621,1.0236212735627621,0.0,0,False
2022-09-07,1.0236212735627621,1.0101547617154882,-1.315575613273745,4,True
2022-09-08,1.0101547617154882,1.0101547617154882,0.0,0,False
2022-09-09,1.0101547617154882,1.0101547617154882,0.0,0,False
2022-09-10,1.0101547617154882,1.0101547617154882,0.0,0,False
2022-09-11,1.0101547617154882,1.0101547617154882,0.0,0,False
2022-09-12,1.0101547617154882,1.0101547617154882,0.0,0,False
2022-09-13,1.0101547617154882,1.0034849038327005,-0.660280794148882,4,True
2022-09-14,1.0034849038327005,0.9987765895929083,-0.4691963199256244,0,True
2022-09-15,0.9987765895929083,1.002433937307294,0.3661827632420067,1,True
2022-09-16,1.002433937307294,1.002433937307294,0.0,0,False
2022-09-17,1.002433937307294,1.002433937307294,0.0,0,False
2022-09-18,1.002433937307294,1.002433937307294,0.0,0,False
2022-09-19,1.002433937307294,0.99891993166013,-0.3505473544324622,5,True
2022-09-20,0.99891993166013,0.99891993166013,0.0,0,False
2022-09-21,0.99891993166013,0.99891993166013,0.0,0,False
2022-09-22,0.99891993166013,0.99891993166013,0.0,0,False
2022-09-23,0.99891993166013,0.99891993166013,0.0,0,False
2022-09-24,0.99891993166013,0.99891993166013,0.0,0,False
2022-09-25,0.99891993166013,0.99891993166013,0.0,0,False
2022-09-26,0.99891993166013,0.99891993166013,0.0,0,False
2022-09-27,0.99891993166013,0.99891993166013,0.0,0,False
2022-09-28,0.99891993166013,0.99891993166013,0.0,0,False
2022-09-29,0.99891993166013,0.99891993166013,0.0,0,False
2022-09-30,0.99891993166013,0.99891993166013,0.0,0,False
2022-10-01,0.99891993166013,0.99891993166013,0.0,0,False
2022-10-02,0.99891993166013,0.99891993166013,0.0,0,False
2022-10-03,0.99891993166013,0.99891993166013,0.0,0,False
2022-10-04,0.99891993166013,0.99891993166013,0.0,0,False
2022-10-05,0.99891993166013,0.99891993166013,0.0,0,False
2022-10-06,0.99891993166013,0.99891993166013,0.0,0,False
2022-10-07,0.99891993166013,0.99891993166013,0.0,0,False
2022-10-08,0.99891993166013,0.99891993166013,0.0,0,False
2022-10-09,0.99891993166013,0.99891993166013,0.0,0,False
2022-10-10,0.99891993166013,0.99891993166013,0.0,0,False
2022-10-11,0.99891993166013,1.0172489117881218,1.8348798083876794,4,True
2022-10-12,1.0172489117881218,1.0172489117881218,0.0,0,False
2022-10-13,1.0172489117881218,1.0172489117881218,0.0,0,False
2022-10-14,1.0172489117881218,1.0172489117881218,0.0,0,False
2022-10-15,1.0172489117881218,1.0172489117881218,0.0,0,False
2022-10-16,1.0172489117881218,1.0172489117881218,0.0,0,False
2022-10-17,1.0172489117881218,1.0172489117881218,0.0,0,False
2022-10-18,1.0172489117881218,1.0172489117881218,0.0,0,False
2022-10-19,1.0172489117881218,1.0172489117881218,0.0,0,False
2022-10-20,1.0172489117881218,1.0202673511996585,0.2967257449536964,1,True
2022-10-21,1.0202673511996585,1.0202673511996585,0.0,0,False
2022-10-22,1.0202673511996585,1.0202673511996585,0.0,0,False
2022-10-23,1.0202673511996585,1.0202673511996585,0.0,0,False
2022-10-24,1.0202673511996585,1.0202673511996585,0.0,0,False
2022-10-25,1.0202673511996585,1.0202673511996585,0.0,0,False
2022-10-26,1.0202673511996585,1.0202673511996585,0.0,0,False
2022-10-27,1.0202673511996585,1.0202673511996585,0.0,0,False
2022-10-28,1.0202673511996585,1.0202673511996585,0.0,0,False
2022-10-29,1.0202673511996585,1.0202673511996585,0.0,0,False
2022-10-30,1.0202673511996585,1.0202673511996585,0.0,0,False
2022-10-31,1.0202673511996585,1.0202673511996585,0.0,0,False
2022-11-01,1.0202673511996585,1.0202673511996585,0.0,0,False
2022-11-02,1.0202673511996585,1.0236299192518896,0.3295771493890598,1,True
2022-11-03,1.0236299192518896,1.0236299192518896,0.0,0,False
2022-11-04,1.0236299192518896,1.0185196673628254,-0.499228460692025,1,True
2022-11-05,1.0185196673628254,1.0185196673628254,0.0,0,False
2022-11-06,1.0185196673628254,1.0185196673628254,0.0,0,False
2022-11-07,1.0185196673628254,1.0185196673628254,0.0,0,False
2022-11-08,1.0185196673628254,1.0152347369232968,-0.322520079365185,2,True
2022-11-09,1.0152347369232968,1.017627961209427,0.2357311269099105,0,True
2022-11-10,1.017627961209427,1.017627961209427,0.0,0,False
2022-11-11,1.017627961209427,1.0143318211939942,-0.323904230335359,2,True
2022-11-12,1.0143318211939942,1.0160423740060347,0.16863838600931214,0,True
2022-11-13,1.0160423740060347,1.010966057502276,-0.4996166137976932,1,True
2022-11-14,1.010966057502276,1.010966057502276,0.0,0,False
2022-11-15,1.010966057502276,1.010966057502276,0.0,0,False
2022-11-16,1.010966057502276,1.010966057502276,0.0,0,False
2022-11-17,1.010966057502276,1.010966057502276,0.0,0,False
2022-11-18,1.010966057502276,1.010966057502276,0.0,0,False
2022-11-19,1.010966057502276,1.0109347778656115,-0.003094034308326332,2,True
2022-11-20,1.0109347778656115,1.0058635930665083,-0.5016332319489503,0,True
2022-11-21,1.0058635930665083,1.0058635930665083,0.0,0,False
2022-11-22,1.0058635930665083,1.0058635930665083,0.0,0,False
2022-11-23,1.0058635930665083,1.0058635930665083,0.0,0,False
2022-11-24,1.0058635930665083,1.0058635930665083,0.0,0,False
2022-11-25,1.0058635930665083,1.0058635930665083,0.0,0,False
2022-11-26,1.0058635930665083,1.0058635930665083,0.0,0,False
2022-11-27,1.0058635930665083,1.0058635930665083,0.0,0,False
2022-11-28,1.0058635930665083,1.0030587992015363,-0.2788443566608456,2,True
2022-11-29,1.0030587992015363,1.0030587992015363,0.0,0,False
2022-11-30,1.0030587992015363,1.0030587992015363,0.0,0,False
2022-12-01,1.0030587992015363,1.0028907635213977,-0.016752326012425822,1,True
2022-12-02,1.0028907635213977,1.0028907635213977,0.0,0,False
2022-12-03,1.0028907635213977,1.0028907635213977,0.0,0,False
2022-12-04,1.0028907635213977,1.0028907635213977,0.0,0,False
2022-12-05,1.0028907635213977,1.0028907635213977,0.0,0,False
2022-12-06,1.0028907635213977,1.0028907635213977,0.0,0,False
2022-12-07,1.0028907635213977,1.0028907635213977,0.0,0,False
2022-12-08,1.0028907635213977,0.997883266400337,-0.4993063355652194,1,True
2022-12-09,0.997883266400337,0.997883266400337,0.0,0,False
2022-12-10,0.997883266400337,0.997883266400337,0.0,0,False
2022-12-11,0.997883266400337,0.997883266400337,0.0,0,False
2022-12-12,0.997883266400337,0.997883266400337,0.0,0,False
2022-12-13,0.997883266400337,0.997883266400337,0.0,0,False
2022-12-14,0.997883266400337,0.997883266400337,0.0,0,False
2022-12-15,0.997883266400337,0.997883266400337,0.0,0,False
2022-12-16,0.997883266400337,0.997883266400337,0.0,0,False
2022-12-17,0.997883266400337,0.9999642142105601,0.20853619659639833,4,True
2022-12-18,0.9999642142105601,0.9999642142105601,0.0,0,False
2022-12-19,0.9999642142105601,0.9999642142105601,0.0,0,False
2022-12-20,0.9999642142105601,0.9999642142105601,0.0,0,False
2022-12-21,0.9999642142105601,0.9999642142105601,0.0,0,False
2022-12-22,0.9999642142105601,0.9999642142105601,0.0,0,False
2022-12-23,0.9999642142105601,0.9999642142105601,0.0,0,False
2022-12-24,0.9999642142105601,0.9999642142105601,0.0,0,False
2022-12-25,0.9999642142105601,0.9999642142105601,0.0,0,False
2022-12-26,0.9999642142105601,0.9999642142105601,0.0,0,False
2022-12-27,0.9999642142105601,0.9999642142105601,0.0,0,False
2022-12-28,0.9999642142105601,1.0017630433579054,0.17988935221702196,1,True
2022-12-29,1.0017630433579054,1.0010178444795266,-0.07438873726873796,0,True
2022-12-30,1.0010178444795266,1.0010178444795266,0.0,0,False
2022-12-31,1.0010178444795266,1.0010178444795266,0.0,0,False
2023-01-01,1.0010178444795266,1.0010178444795266,0.0,0,False
2023-01-02,1.0010178444795266,1.0010178444795266,0.0,0,False
2023-01-03,1.0010178444795266,1.0010178444795266,0.0,0,False
2023-01-04,1.0010178444795266,1.0010178444795266,0.0,0,False
2023-01-05,1.0010178444795266,1.0010178444795266,0.0,0,False
2023-01-06,1.0010178444795266,1.0010178444795266,0.0,0,False
2023-01-07,1.0010178444795266,1.0010178444795266,0.0,0,False
2023-01-08,1.0010178444795266,1.0010178444795266,0.0,0,False
2023-01-09,1.0010178444795266,1.0010178444795266,0.0,0,False
2023-01-10,1.0010178444795266,0.9992615804347057,-0.17544782588106989,2,True
2023-01-11,0.9992615804347057,0.9997794217718344,0.051822400387235845,0,True
2023-01-12,0.9997794217718344,0.9997794217718344,0.0,0,False
2023-01-13,0.9997794217718344,0.9997794217718344,0.0,0,False
2023-01-14,0.9997794217718344,0.9997794217718344,0.0,0,False
2023-01-15,0.9997794217718344,0.9997794217718344,0.0,0,False
2023-01-16,0.9997794217718344,0.9997794217718344,0.0,0,False
2023-01-17,0.9997794217718344,0.9997794217718344,0.0,0,False
2023-01-18,0.9997794217718344,0.9997794217718344,0.0,0,False
2023-01-19,0.9997794217718344,0.9997794217718344,0.0,0,False
2023-01-20,0.9997794217718344,0.9997794217718344,0.0,0,False
2023-01-21,0.9997794217718344,0.9997794217718344,0.0,0,False
2023-01-22,0.9997794217718344,0.9997794217718344,0.0,0,False
2023-01-23,0.9997794217718344,0.9997794217718344,0.0,0,False
2023-01-24,0.9997794217718344,0.9997794217718344,0.0,0,False
2023-01-25,0.9997794217718344,1.0078479940426046,0.807035241480647,4,True
2023-01-26,1.0078479940426046,1.0078479940426046,0.0,0,False
2023-01-27,1.0078479940426046,1.0078479940426046,0.0,0,False
2023-01-28,1.0078479940426046,1.0078479940426046,0.0,0,False
2023-01-29,1.0078479940426046,1.0078479940426046,0.0,0,False
2023-01-30,1.0078479940426046,1.008754762241763,0.08997073016152601,1,True
2023-01-31,1.008754762241763,1.0061648519336963,-0.25674330422104097,1,True
2023-02-01,1.0061648519336963,1.0061648519336963,0.0,0,False
2023-02-02,1.0061648519336963,1.0061648519336963,0.0,0,False
2023-02-03,1.0061648519336963,1.0061648519336963,0.0,0,False
2023-02-04,1.0061648519336963,1.0061648519336963,0.0,0,False
2023-02-05,1.0061648519336963,1.0079211402213122,0.17455273698345763,4,True
2023-02-06,1.0079211402213122,1.0187252572802066,1.071920870369092,0,True
2023-02-07,1.0187252572802066,1.0187252572802066,0.0,0,False
2023-02-08,1.0187252572802066,1.0187252572802066,0.0,0,False
2023-02-09,1.0187252572802066,1.0187252572802066,0.0,0,False
2023-02-10,1.0187252572802066,1.0187252572802066,0.0,0,False
2023-02-11,1.0187252572802066,1.0187252572802066,0.0,0,False
2023-02-12,1.0187252572802066,1.0187252572802066,0.0,0,False
2023-02-13,1.0187252572802066,1.0187252572802066,0.0,0,False
2023-02-14,1.0187252572802066,1.0187252572802066,0.0,0,False
2023-02-15,1.0187252572802066,1.0187252572802066,0.0,0,False
2023-02-16,1.0187252572802066,1.0187252572802066,0.0,0,False
2023-02-17,1.0187252572802066,1.0187252572802066,0.0,0,False
2023-02-18,1.0187252572802066,1.0187252572802066,0.0,0,False
2023-02-19,1.0187252572802066,1.0187252572802066,0.0,0,False
2023-02-20,1.0187252572802066,1.0187252572802066,0.0,0,False
2023-02-21,1.0187252572802066,1.0187252572802066,0.0,0,False
2023-02-22,1.0187252572802066,1.0187252572802066,0.0,0,False
2023-02-23,1.0187252572802066,1.0271110916336685,0.8231693769771065,1,True
2023-02-24,1.0271110916336685,1.0271110916336685,0.0,0,False
2023-02-25,1.0271110916336685,1.0271110916336685,0.0,0,False
2023-02-26,1.0271110916336685,1.0271110916336685,0.0,0,False
2023-02-27,1.0271110916336685,1.0271110916336685,0.0,0,False
2023-02-28,1.0271110916336685,1.0271110916336685,0.0,0,False
2023-03-01,1.0271110916336685,1.0271110916336685,0.0,0,False
2023-03-02,1.0271110916336685,1.0271110916336685,0.0,0,False
2023-03-03,1.0271110916336685,1.02777471973335,0.06461113165723287,1,True
2023-03-04,1.02777471973335,1.02777471973335,0.0,0,False
2023-03-05,1.02777471973335,1.02777471973335,0.0,0,False
2023-03-06,1.02777471973335,1.02777471973335,0.0,0,False
2023-03-07,1.02777471973335,1.02777471973335,0.0,0,False
2023-03-08,1.02777471973335,1.02777471973335,0.0,0,False
2023-03-09,1.02777471973335,1.02777471973335,0.0,0,False
2023-03-10,1.02777471973335,1.02777471973335,0.0,0,False
2023-03-11,1.02777471973335,1.02777471973335,0.0,0,False
2023-03-12,1.02777471973335,1.02777471973335,0.0,0,False
2023-03-13,1.02777471973335,1.02777471973335,0.0,0,False
2023-03-14,1.02777471973335,1.02777471973335,0.0,0,False
2023-03-15,1.02777471973335,1.02777471973335,0.0,0,False
2023-03-16,1.02777471973335,1.02777471973335,0.0,0,False
2023-03-17,1.02777471973335,1.02777471973335,0.0,0,False
2023-03-18,1.02777471973335,1.02777471973335,0.0,0,False
2023-03-19,1.02777471973335,1.02777471973335,0.0,0,False
2023-03-20,1.02777471973335,1.02777471973335,0.0,0,False
2023-03-21,1.02777471973335,1.02777471973335,0.0,0,False
2023-03-22,1.02777471973335,1.02777471973335,0.0,0,False
2023-03-23,1.02777471973335,1.034786425508658,0.6822220512611166,3,True
2023-03-24,1.034786425508658,1.0357150554658257,0.08974121947058489,0,True
2023-03-25,1.0357150554658257,1.0314830293611854,-0.40860911331802585,1,True
2023-03-26,1.0314830293611854,1.0317617539298352,0.02702173091713167,0,True
2023-03-27,1.0317617539298352,1.0317617539298352,0.0,0,False
2023-03-28,1.0317617539298352,1.0317617539298352,0.0,0,False
2023-03-29,1.0317617539298352,1.0317617539298352,0.0,0,False
2023-03-30,1.0317617539298352,1.0317617539298352,0.0,0,False
2023-03-31,1.0317617539298352,1.0317617539298352,0.0,0,False
2023-04-01,1.0317617539298352,1.0317617539298352,0.0,0,False
2023-04-02,1.0317617539298352,1.0317617539298352,0.0,0,False
2023-04-03,1.0317617539298352,1.0317617539298352,0.0,0,False
2023-04-04,1.0317617539298352,1.0317617539298352,0.0,0,False
2023-04-05,1.0317617539298352,1.0317617539298352,0.0,0,False
2023-04-06,1.0317617539298352,1.0317617539298352,0.0,0,False
2023-04-07,1.0317617539298352,1.0287277789725437,-0.2940577071921302,1,True
2023-04-08,1.0287277789725437,1.0287277789725437,0.0,0,False
2023-04-09,1.0287277789725437,1.0287277789725437,0.0,0,False
2023-04-10,1.0287277789725437,1.0287277789725437,0.0,0,False
2023-04-11,1.0287277789725437,1.0287277789725437,0.0,0,False
2023-04-12,1.0287277789725437,1.0287277789725437,0.0,0,False
2023-04-13,1.0287277789725437,1.0287277789725437,0.0,0,False
2023-04-14,1.0287277789725437,1.0287277789725437,0.0,0,False
2023-04-15,1.0287277789725437,1.0287277789725437,0.0,0,False
2023-04-16,1.0287277789725437,1.0287277789725437,0.0,0,False
2023-04-17,1.0287277789725437,1.0287277789725437,0.0,0,False
2023-04-18,1.0287277789725437,1.0287277789725437,0.0,0,False
2023-04-19,1.0287277789725437,1.0226805444320695,-0.5878362249062685,2,True
2023-04-20,1.0226805444320695,1.021348974652968,-0.13020388295750251,0,True
2023-04-21,1.021348974652968,1.021348974652968,0.0,0,False
2023-04-22,1.021348974652968,1.021348974652968,0.0,0,False
2023-04-23,1.021348974652968,1.021348974652968,0.0,0,False
2023-04-24,1.021348974652968,1.021348974652968,0.0,0,False
2023-04-25,1.021348974652968,1.021348974652968,0.0,0,False
2023-04-26,1.021348974652968,1.021348974652968,0.0,0,False
2023-04-27,1.021348974652968,1.021348974652968,0.0,0,False
2023-04-28,1.021348974652968,1.021348974652968,0.0,0,False
2023-04-29,1.021348974652968,1.021348974652968,0.0,0,False
2023-04-30,1.021348974652968,1.021348974652968,0.0,0,False
2023-05-01,1.021348974652968,1.021348974652968,0.0,0,False
2023-05-02,1.021348974652968,1.021348974652968,0.0,0,False
2023-05-03,1.021348974652968,1.021348974652968,0.0,0,False
2023-05-04,1.021348974652968,1.021348974652968,0.0,0,False
2023-05-05,1.021348974652968,1.021348974652968,0.0,0,False
2023-05-06,1.021348974652968,1.021348974652968,0.0,0,False
2023-05-07,1.021348974652968,1.021348974652968,0.0,0,False
2023-05-08,1.021348974652968,1.0294482769739401,0.7930004848464289,4,True
2023-05-09,1.0294482769739401,1.0243090052543204,-0.4992258314061804,1,True
2023-05-10,1.0243090052543204,1.0243090052543204,0.0,0,False
2023-05-11,1.0243090052543204,1.0243090052543204,0.0,0,False
2023-05-12,1.0243090052543204,1.0243090052543204,0.0,0,False
2023-05-13,1.0243090052543204,1.0243090052543204,0.0,0,False
2023-05-14,1.0243090052543204,1.0243090052543204,0.0,0,False
2023-05-15,1.0243090052543204,1.0243090052543204,0.0,0,False
2023-05-16,1.0243090052543204,1.0243090052543204,0.0,0,False
2023-05-17,1.0243090052543204,1.0243090052543204,0.0,0,False
2023-05-18,1.0243090052543204,1.0243090052543204,0.0,0,False
2023-05-19,1.0243090052543204,1.0243090052543204,0.0,0,False
2023-05-20,1.0243090052543204,1.0243090052543204,0.0,0,False
2023-05-21,1.0243090052543204,1.0243090052543204,0.0,0,False
2023-05-22,1.0243090052543204,1.0243090052543204,0.0,0,False
2023-05-23,1.0243090052543204,1.0243090052543204,0.0,0,False
2023-05-24,1.0243090052543204,1.0243090052543204,0.0,0,False
2023-05-25,1.0243090052543204,1.0243090052543204,0.0,0,False
2023-05-26,1.0243090052543204,1.0256819277871754,0.13403401959881656,1,True
2023-05-27,1.0256819277871754,1.0282907672113144,0.25435170041139266,0,True
2023-05-28,1.0282907672113144,1.0282907672113144,0.0,0,False
2023-05-29,1.0282907672113144,1.0282907672113144,0.0,0,False
2023-05-30,1.0282907672113144,1.0282907672113144,0.0,0,False
2023-05-31,1.0282907672113144,1.0282907672113144,0.0,0,False
2023-06-01,1.0282907672113144,1.0282907672113144,0.0,0,False
2023-06-02,1.0282907672113144,1.0282907672113144,0.0,0,False
2023-06-03,1.0282907672113144,1.0282907672113144,0.0,0,False
2023-06-04,1.0282907672113144,1.0282907672113144,0.0,0,False
2023-06-05,1.0282907672113144,1.0282907672113144,0.0,0,False
2023-06-06,1.0282907672113144,1.0199397365459837,-0.8121273604331236,4,True
2023-06-07,1.0199397365459837,1.0199397365459837,0.0,0,False
2023-06-08,1.0199397365459837,1.0199397365459837,0.0,0,False
2023-06-09,1.0199397365459837,1.0199397365459837,0.0,0,False
2023-06-10,1.0199397365459837,1.0278122086995856,0.7718565981419623,5,True
2023-06-11,1.0278122086995856,1.026921876062535,-0.08662405734380929,0,True
2023-06-12,1.026921876062535,1.026921876062535,0.0,0,False
2023-06-13,1.026921876062535,1.026921876062535,0.0,0,False
2023-06-14,1.026921876062535,1.026921876062535,0.0,0,False
2023-06-15,1.026921876062535,1.026921876062535,0.0,0,False
2023-06-16,1.026921876062535,1.026921876062535,0.0,0,False
2023-06-17,1.026921876062535,1.026921876062535,0.0,0,False
2023-06-18,1.026921876062535,1.026921876062535,0.0,0,False
2023-06-19,1.026921876062535,1.026921876062535,0.0,0,False
2023-06-20,1.026921876062535,1.026921876062535,0.0,0,False
2023-06-21,1.026921876062535,1.026921876062535,0.0,0,False
2023-06-22,1.026921876062535,1.026921876062535,0.0,0,False
2023-06-23,1.026921876062535,1.026921876062535,0.0,0,False
2023-06-24,1.026921876062535,1.026921876062535,0.0,0,False
2023-06-25,1.026921876062535,1.026921876062535,0.0,0,False
2023-06-26,1.026921876062535,1.026921876062535,0.0,0,False
2023-06-27,1.026921876062535,1.026921876062535,0.0,0,False
2023-06-28,1.026921876062535,1.026921876062535,0.0,0,False
2023-06-29,1.026921876062535,1.026921876062535,0.0,0,False
2023-06-30,1.026921876062535,1.0151145693702308,-1.149776528042834,3,True
2023-07-01,1.0151145693702308,1.0186609918847247,0.34936179831346337,0,True
2023-07-02,1.0186609918847247,1.0186609918847247,0.0,0,False
2023-07-03,1.0186609918847247,1.0186609918847247,0.0,0,False
2023-07-04,1.0186609918847247,1.0186609918847247,0.0,0,False
2023-07-05,1.0186609918847247,1.0186609918847247,0.0,0,False
2023-07-06,1.0186609918847247,1.0186609918847247,0.0,0,False
2023-07-07,1.0186609918847247,1.0186609918847247,0.0,0,False
2023-07-08,1.0186609918847247,1.0186609918847247,0.0,0,False
2023-07-09,1.0186609918847247,1.0186609918847247,0.0,0,False
2023-07-10,1.0186609918847247,1.0186609918847247,0.0,0,False
2023-07-11,1.0186609918847247,1.0186609918847247,0.0,0,False
2023-07-12,1.0186609918847247,1.0186609918847247,0.0,0,False
2023-07-13,1.0186609918847247,1.0186609918847247,0.0,0,False
2023-07-14,1.0186609918847247,1.0186609918847247,0.0,0,False
2023-07-15,1.0186609918847247,1.0186609918847247,0.0,0,False
2023-07-16,1.0186609918847247,1.0186609918847247,0.0,0,False
2023-07-17,1.0186609918847247,1.0186609918847247,0.0,0,False
2023-07-18,1.0186609918847247,1.0186609918847247,0.0,0,False
2023-07-19,1.0186609918847247,1.0186609918847247,0.0,0,False
2023-07-20,1.0186609918847247,1.0186609918847247,0.0,0,False
2023-07-21,1.0186609918847247,1.0186609918847247,0.0,0,False
2023-07-22,1.0186609918847247,1.0186609918847247,0.0,0,False
2023-07-23,1.0186609918847247,1.0186609918847247,0.0,0,False
2023-07-24,1.0186609918847247,1.0184837841884287,-0.017396140394865256,1,True
2023-07-25,1.0184837841884287,1.0187453938508388,0.025686188280227285,0,True
2023-07-26,1.0187453938508388,1.0187453938508388,0.0,0,False
2023-07-27,1.0187453938508388,1.0187453938508388,0.0,0,False
2023-07-28,1.0187453938508388,1.0187453938508388,0.0,0,False
2023-07-29,1.0187453938508388,1.0187453938508388,0.0,0,False
2023-07-30,1.0187453938508388,1.0187453938508388,0.0,0,False
2023-07-31,1.0187453938508388,1.0187453938508388,0.0,0,False
2023-08-01,1.0187453938508388,1.0187453938508388,0.0,0,False
2023-08-02,1.0187453938508388,1.0187453938508388,0.0,0,False
2023-08-03,1.0187453938508388,1.0187453938508388,0.0,0,False
2023-08-04,1.0187453938508388,1.0187453938508388,0.0,0,False
2023-08-05,1.0187453938508388,1.0187453938508388,0.0,0,False
2023-08-06,1.0187453938508388,1.0187453938508388,0.0,0,False
2023-08-07,1.0187453938508388,1.0187453938508388,0.0,0,False
2023-08-08,1.0187453938508388,1.0187453938508388,0.0,0,False
2023-08-09,1.0187453938508388,1.0187453938508388,0.0,0,False
2023-08-10,1.0187453938508388,1.0187453938508388,0.0,0,False
2023-08-11,1.0187453938508388,1.0187453938508388,0.0,0,False
2023-08-12,1.0187453938508388,1.0187453938508388,0.0,0,False
2023-08-13,1.0187453938508388,1.0187453938508388,0.0,0,False
2023-08-14,1.0187453938508388,1.0187453938508388,0.0,0,False
2023-08-15,1.0187453938508388,1.0187453938508388,0.0,0,False
2023-08-16,1.0187453938508388,1.0213177270321785,0.2525001042327446,4,True
2023-08-17,1.0213177270321785,1.0213177270321785,0.0,0,False
2023-08-18,1.0213177270321785,1.0516129696220236,2.9662897047600723,4,True
2023-08-19,1.0516129696220236,1.0516129696220236,0.0,0,False
2023-08-20,1.0516129696220236,1.0516129696220236,0.0,0,False
2023-08-21,1.0516129696220236,1.0516129696220236,0.0,0,False
2023-08-22,1.0516129696220236,1.0516129696220236,0.0,0,False
2023-08-23,1.0516129696220236,1.0516129696220236,0.0,0,False
2023-08-24,1.0516129696220236,1.0516129696220236,0.0,0,False
2023-08-25,1.0516129696220236,1.0371487950566347,-1.37542755587996,3,True
2023-08-26,1.0371487950566347,1.0371487950566347,0.0,0,False
2023-08-27,1.0371487950566347,1.0371487950566347,0.0,0,False
2023-08-28,1.0371487950566347,1.0371487950566347,0.0,0,False
2023-08-29,1.0371487950566347,1.0371487950566347,0.0,0,False
2023-08-30,1.0371487950566347,1.0371487950566347,0.0,0,False
2023-08-31,1.0371487950566347,1.0371487950566347,0.0,0,False
2023-09-01,1.0371487950566347,1.0371487950566347,0.0,0,False
2023-09-02,1.0371487950566347,1.0371487950566347,0.0,0,False
2023-09-03,1.0371487950566347,1.0371487950566347,0.0,0,False
2023-09-04,1.0371487950566347,1.0371487950566347,0.0,0,False
2023-09-05,1.0371487950566347,1.0371487950566347,0.0,0,False
2023-09-06,1.0371487950566347,1.0371487950566347,0.0,0,False
2023-09-07,1.0371487950566347,1.0371487950566347,0.0,0,False
2023-09-08,1.0371487950566347,1.0371487950566347,0.0,0,False
2023-09-09,1.0371487950566347,1.0371487950566347,0.0,0,False
2023-09-10,1.0371487950566347,1.0362579779454115,-0.08589096525677409,1,True
2023-09-11,1.0362579779454115,1.0358362339246603,-0.040698747775858024,0,True
2023-09-12,1.0358362339246603,1.0358362339246603,0.0,0,False
2023-09-13,1.0358362339246603,1.0358362339246603,0.0,0,False
2023-09-14,1.0358362339246603,1.0358362339246603,0.0,0,False
2023-09-15,1.0358362339246603,1.0358362339246603,0.0,0,False
2023-09-16,1.0358362339246603,1.0358362339246603,0.0,0,False
2023-09-17,1.0358362339246603,1.0358362339246603,0.0,0,False
2023-09-18,1.0358362339246603,1.0358362339246603,0.0,0,False
2023-09-19,1.0358362339246603,1.0358362339246603,0.0,0,False
2023-09-20,1.0358362339246603,1.0358362339246603,0.0,0,False
2023-09-21,1.0358362339246603,1.0358362339246603,0.0,0,False
2023-09-22,1.0358362339246603,1.0358362339246603,0.0,0,False
2023-09-23,1.0358362339246603,1.0358362339246603,0.0,0,False
2023-09-24,1.0358362339246603,1.0358362339246603,0.0,0,False
2023-09-25,1.0358362339246603,1.0358362339246603,0.0,0,False
2023-09-26,1.0358362339246603,1.0358362339246603,0.0,0,False
2023-09-27,1.0358362339246603,1.0358362339246603,0.0,0,False
2023-09-28,1.0358362339246603,1.0358362339246603,0.0,0,False
2023-09-29,1.0358362339246603,1.0358362339246603,0.0,0,False
2023-09-30,1.0358362339246603,1.0358362339246603,0.0,0,False
2023-10-01,1.0358362339246603,1.0358362339246603,0.0,0,False
2023-10-02,1.0358362339246603,1.0358362339246603,0.0,0,False
2023-10-03,1.0358362339246603,1.0359856172250843,0.014421517179208365,1,True
2023-10-04,1.0359856172250843,1.0306572042975257,-0.5143327126327146,0,True
2023-10-05,1.0306572042975257,1.0306572042975257,0.0,0,False
2023-10-06,1.0306572042975257,1.0306572042975257,0.0,0,False
2023-10-07,1.0306572042975257,1.0306572042975257,0.0,0,False
2023-10-08,1.0306572042975257,1.0306572042975257,0.0,0,False
2023-10-09,1.0306572042975257,1.0306572042975257,0.0,0,False
2023-10-10,1.0306572042975257,1.0306572042975257,0.0,0,False
2023-10-11,1.0306572042975257,1.0306572042975257,0.0,0,False
2023-10-12,1.0306572042975257,1.0306572042975257,0.0,0,False
2023-10-13,1.0306572042975257,1.0306572042975257,0.0,0,False
2023-10-14,1.0306572042975257,1.0306572042975257,0.0,0,False
2023-10-15,1.0306572042975257,1.0306572042975257,0.0,0,False
2023-10-16,1.0306572042975257,1.0306572042975257,0.0,0,False
2023-10-17,1.0306572042975257,1.0306572042975257,0.0,0,False
2023-10-18,1.0306572042975257,1.0306572042975257,0.0,0,False
2023-10-19,1.0306572042975257,1.0255114550466466,-0.4992687412869068,1,True
2023-10-20,1.0255114550466466,1.0255114550466466,0.0,0,False
2023-10-21,1.0255114550466466,1.02610837889933,0.058207429058532156,1,True
2023-10-22,1.02610837889933,1.02610837889933,0.0,0,False
2023-10-23,1.02610837889933,1.02610837889933,0.0,0,False
2023-10-24,1.02610837889933,1.02610837889933,0.0,0,False
2023-10-25,1.02610837889933,1.02610837889933,0.0,0,False
2023-10-26,1.02610837889933,1.02610837889933,0.0,0,False
2023-10-27,1.02610837889933,1.0267217920704903,0.05978054402191457,1,True
2023-10-28,1.0267217920704903,1.0277096203737597,0.09621187656660979,0,True
2023-10-29,1.0277096203737597,1.0277096203737597,0.0,0,False
2023-10-30,1.0277096203737597,1.0277096203737597,0.0,0,False
2023-10-31,1.0277096203737597,1.0277096203737597,0.0,0,False
2023-11-01,1.0277096203737597,1.0277096203737597,0.0,0,False
2023-11-02,1.0277096203737597,1.0277096203737597,0.0,0,False
2023-11-03,1.0277096203737597,1.0277096203737597,0.0,0,False
2023-11-04,1.0277096203737597,1.0277096203737597,0.0,0,False
2023-11-05,1.0277096203737597,1.0277096203737597,0.0,0,False
2023-11-06,1.0277096203737597,1.0277096203737597,0.0,0,False
2023-11-07,1.0277096203737597,1.0277096203737597,0.0,0,False
2023-11-08,1.0277096203737597,1.0277096203737597,0.0,0,False
2023-11-09,1.0277096203737597,1.0277096203737597,0.0,0,False
2023-11-10,1.0277096203737597,1.041001402471633,1.293340242649399,4,True
2023-11-11,1.041001402471633,1.041001402471633,0.0,0,False
2023-11-12,1.041001402471633,1.041001402471633,0.0,0,False
2023-11-13,1.041001402471633,1.041001402471633,0.0,0,False
2023-11-14,1.041001402471633,1.041001402471633,0.0,0,False
2023-11-15,1.041001402471633,1.041001402471633,0.0,0,False
2023-11-16,1.041001402471633,1.041001402471633,0.0,0,False
2023-11-17,1.041001402471633,1.041001402471633,0.0,0,False
2023-11-18,1.041001402471633,1.041001402471633,0.0,0,False
2023-11-19,1.041001402471633,1.041001402471633,0.0,0,False
2023-11-20,1.041001402471633,1.041001402471633,0.0,0,False
2023-11-21,1.041001402471633,1.041001402471633,0.0,0,False
2023-11-22,1.041001402471633,1.041001402471633,0.0,0,False
2023-11-23,1.041001402471633,1.041001402471633,0.0,0,False
2023-11-24,1.041001402471633,1.041001402471633,0.0,0,False
2023-11-25,1.041001402471633,1.041001402471633,0.0,0,False
2023-11-26,1.041001402471633,1.041001402471633,0.0,0,False
2023-11-27,1.041001402471633,1.041001402471633,0.0,0,False
2023-11-28,1.041001402471633,1.041001402471633,0.0,0,False
2023-11-29,1.041001402471633,1.041001402471633,0.0,0,False
2023-11-30,1.041001402471633,1.041001402471633,0.0,0,False
2023-12-01,1.041001402471633,1.041001402471633,0.0,0,False
2023-12-02,1.041001402471633,1.041001402471633,0.0,0,False
2023-12-03,1.041001402471633,1.041499076183497,0.04780720858612586,1,True
2023-12-04,1.041499076183497,1.048189827060547,0.6424154404022886,4,True
2023-12-05,1.048189827060547,1.052480646074152,0.40935514759172786,0,True
2023-12-06,1.052480646074152,1.052480646074152,0.0,0,False
2023-12-07,1.052480646074152,1.052480646074152,0.0,0,False
2023-12-08,1.052480646074152,1.052480646074152,0.0,0,False
2023-12-09,1.052480646074152,1.052480646074152,0.0,0,False
2023-12-10,1.052480646074152,1.052480646074152,0.0,0,False
2023-12-11,1.052480646074152,1.062383450199573,0.9409013042053882,4,True
2023-12-12,1.062383450199573,1.062383450199573,0.0,0,False
2023-12-13,1.062383450199573,1.062383450199573,0.0,0,False
2023-12-14,1.062383450199573,1.062383450199573,0.0,0,False
2023-12-15,1.062383450199573,1.062383450199573,0.0,0,False
2023-12-16,1.062383450199573,1.062383450199573,0.0,0,False
2023-12-17,1.062383450199573,1.062383450199573,0.0,0,False
2023-12-18,1.062383450199573,1.062383450199573,0.0,0,False
2023-12-19,1.062383450199573,1.062383450199573,0.0,0,False
2023-12-20,1.062383450199573,1.062383450199573,0.0,0,False
2023-12-21,1.062383450199573,1.062383450199573,0.0,0,False
2023-12-22,1.062383450199573,1.062383450199573,0.0,0,False
2023-12-23,1.062383450199573,1.062383450199573,0.0,0,False
2023-12-24,1.062383450199573,1.0611318256228064,-0.11781288352444852,1,True
2023-12-25,1.0611318256228064,1.0636054401764217,0.23311095698816953,0,True
2023-12-26,1.0636054401764217,1.0636054401764217,0.0,0,False
2023-12-27,1.0636054401764217,1.058293629099807,-0.49941556106872786,1,True
2023-12-28,1.058293629099807,1.058293629099807,0.0,0,False
2023-12-29,1.058293629099807,1.058293629099807,0.0,0,False
2023-12-30,1.058293629099807,1.058293629099807,0.0,0,False
2023-12-31,1.058293629099807,1.058293629099807,0.0,0,False
