day,start_equity,end_equity,return_pct,entries,active
2021-09-02,1.0,1.0,0.0,0,False
2021-09-03,1.0,1.0,0.0,0,False
2021-09-04,1.0,1.0,0.0,0,False
2021-09-05,1.0,1.0,0.0,0,False
2021-09-06,1.0,1.0,0.0,0,False
2021-09-07,1.0,1.0,0.0,0,False
2021-09-08,1.0,1.0,0.0,0,False
2021-09-09,1.0,1.0,0.0,0,False
2021-09-10,1.0,1.0,0.0,0,False
2021-09-11,1.0,1.0,0.0,0,False
2021-09-12,1.0,1.0,0.0,0,False
2021-09-13,1.0,1.0,0.0,0,False
2021-09-14,1.0,1.0,0.0,0,False
2021-09-15,1.0,1.0,0.0,0,False
2021-09-16,1.0,1.0,0.0,0,False
2021-09-17,1.0,1.0,0.0,0,False
2021-09-18,1.0,1.0,0.0,0,False
2021-09-19,1.0,1.0,0.0,0,False
2021-09-20,1.0,1.0,0.0,0,False
2021-09-21,1.0,1.0,0.0,0,False
2021-09-22,1.0,1.0,0.0,0,False
2021-09-23,1.0,1.0,0.0,0,False
2021-09-24,1.0,1.0,0.0,0,False
2021-09-25,1.0,1.0,0.0,0,False
2021-09-26,1.0,1.0,0.0,0,False
2021-09-27,1.0,1.0,0.0,0,False
2021-09-28,1.0,1.0,0.0,0,False
2021-09-29,1.0,1.0,0.0,0,False
2021-09-30,1.0,1.0,0.0,0,False
2021-10-01,1.0,1.0,0.0,0,False
2021-10-02,1.0,1.0,0.0,0,False
2021-10-03,1.0,1.0,0.0,0,False
2021-10-04,1.0,1.0,0.0,0,False
2021-10-05,1.0,1.0,0.0,0,False
2021-10-06,1.0,0.9978390650138445,-0.21609349861555494,1,True
2021-10-07,0.9978390650138445,0.9978390650138445,0.0,0,False
2021-10-08,0.9978390650138445,0.9978390650138445,0.0,0,False
2021-10-09,0.9978390650138445,0.9954982204974228,-0.2345913883807671,3,True
2021-10-10,0.9954982204974228,0.989627633931084,-0.5897134164042361,1,True
2021-10-11,0.989627633931084,0.989627633931084,0.0,0,False
2021-10-12,0.989627633931084,0.989627633931084,0.0,0,False
2021-10-13,0.989627633931084,1.0022170153028302,1.27213316808239,4,True
2021-10-14,1.0022170153028302,1.0150370657368848,1.2791691059227173,0,True
2021-10-15,1.0150370657368848,1.0179726180132787,0.2892064118134252,1,True
2021-10-16,1.0179726180132787,1.0335161563448019,1.5269112406833374,0,True
2021-10-17,1.0335161563448019,1.0335161563448019,0.0,0,False
2021-10-18,1.0335161563448019,1.0344162046567595,0.08708604180323043,1,True
2021-10-19,1.0344162046567595,1.0344162046567595,0.0,0,False
2021-10-20,1.0344162046567595,1.0344162046567595,0.0,0,False
2021-10-21,1.0344162046567595,1.0344162046567595,0.0,0,False
2021-10-22,1.0344162046567595,1.0344162046567595,0.0,0,False
2021-10-23,1.0344162046567595,1.0344162046567595,0.0,0,False
2021-10-24,1.0344162046567595,1.0344162046567595,0.0,0,False
2021-10-25,1.0344162046567595,1.0378170644994618,0.3287709364366176,1,True
2021-10-26,1.0378170644994618,1.0378170644994618,0.0,0,False
2021-10-27,1.0378170644994618,1.0312351466185712,-0.6342079067725659,6,True
2021-10-28,1.0312351466185712,1.028591385504762,-0.25636840661202864,0,True
2021-10-29,1.028591385504762,1.028591385504762,0.0,0,False
2021-10-30,1.028591385504762,1.028591385504762,0.0,0,False
2021-10-31,1.028591385504762,1.028591385504762,0.0,0,False
2021-11-01,1.028591385504762,1.0297776566361518,0.11532967785918835,1,True
2021-11-02,1.0297776566361518,1.0286806712825496,-0.10652642796559197,0,True
2021-11-03,1.0286806712825496,1.0286698622403831,-0.0010507674993998073,1,True
2021-11-04,1.0286698622403831,1.0473338452670324,1.8143802702647704,1,True
2021-11-05,1.0473338452670324,1.0391945064540087,-0.777148456512311,0,True
2021-11-06,1.0391945064540087,1.0379243775193157,-0.12222244505766255,1,True
2021-11-07,1.0379243775193157,1.0379243775193157,0.0,0,False
2021-11-08,1.0379243775193157,1.0379243775193157,0.0,0,False
2021-11-09,1.0379243775193157,1.0379243775193157,0.0,0,False
2021-11-10,1.0379243775193157,1.0379243775193157,0.0,0,False
2021-11-11,1.0379243775193157,1.0297938407631186,-0.7833457747306594,9,True
2021-11-12,1.0297938407631186,1.030438675363713,0.0626178342760797,0,True
2021-11-13,1.030438675363713,1.0291780360102865,-0.12234006579591172,1,True
2021-11-14,1.0291780360102865,1.0291780360102865,0.0,0,False
2021-11-15,1.0291780360102865,1.0291780360102865,0.0,0,False
2021-11-16,1.0291780360102865,1.0461477073950383,1.6488567372207497,5,True
2021-11-17,1.0461477073950383,1.0331591082921803,-1.2415645526003494,0,True
2021-11-18,1.0331591082921803,1.030279113122541,-0.27875620962194425,2,True
2021-11-19,1.030279113122541,1.0364147966754291,0.595536051807577,2,True
2021-11-20,1.0364147966754291,1.0369342662038783,0.05012177847281141,0,True
2021-11-21,1.0369342662038783,1.0369342662038783,0.0,0,False
2021-11-22,1.0369342662038783,1.03297826309688,-0.3815095359400944,1,True
2021-11-23,1.03297826309688,1.03297826309688,0.0,0,False
2021-11-24,1.03297826309688,1.03297826309688,0.0,0,False
2021-11-25,1.03297826309688,1.0352372960876022,0.21869124176432386,2,True
2021-11-26,1.0352372960876022,1.0135546182523882,-2.094464517184391,9,True
2021-11-27,1.0135546182523882,1.024751185918011,1.1046832073961843,0,True
2021-11-28,1.024751185918011,1.0233823003085207,-0.1335822420409194,1,True
2021-11-29,1.0233823003085207,1.0233823003085207,0.0,0,False
2021-11-30,1.0233823003085207,1.0233823003085207,0.0,0,False
2021-12-01,1.0233823003085207,1.0233539096815647,-0.0027741956204918594,1,True
2021-12-02,1.0233539096815647,1.0210833983629515,-0.22186960905047348,3,True
2021-12-03,1.0210833983629515,1.0182651651576466,-0.276004213742298,1,True
2021-12-04,1.0182651651576466,0.9484575079655037,-6.85554800269883,16,True
2021-12-05,0.9484575079655037,0.9487230711464314,0.027999481125662307,1,True
2021-12-06,0.9487230711464314,0.9421454223532791,-0.6933159942240974,7,True
2021-12-07,0.9421454223532791,0.9677372881408396,2.716339238122867,0,True
2021-12-08,0.9677372881408396,0.9710042861661708,0.33759141715079544,1,True
2021-12-09,0.9710042861661708,0.9695710701252138,-0.14760141241145774,0,True
2021-12-10,0.9695710701252138,0.965925017611227,-0.37604798929448124,1,True
2021-12-11,0.965925017611227,0.9631543771818999,-0.28683804423856873,1,True
2021-12-12,0.9631543771818999,0.9631543771818999,0.0,0,False
2021-12-13,0.9631543771818999,0.9600262175187855,-0.3247827905083267,1,True
2021-12-14,0.9600262175187855,0.9600262175187855,0.0,0,False
2021-12-15,0.9600262175187855,0.9600262175187855,0.0,0,False
2021-12-16,0.9600262175187855,0.9600262175187855,0.0,0,False
2021-12-17,0.9600262175187855,0.960269155142159,0.025305311348833293,2,True
2021-12-18,0.960269155142159,0.963037289703822,0.28826652890387994,0,True
2021-12-19,0.963037289703822,0.9586796061567918,-0.45249375009874804,1,True
2021-12-20,0.9586796061567918,0.9586796061567918,0.0,0,False
2021-12-21,0.9586796061567918,0.9560993977486348,-0.26914188969771047,1,True
2021-12-22,0.9560993977486348,0.9553272377285353,-0.08076147960324187,0,True
2021-12-23,0.9553272377285353,0.9553272377285353,0.0,0,False
2021-12-24,0.9553272377285353,0.9553272377285353,0.0,0,False
2021-12-25,0.9553272377285353,0.9571413320672404,0.18989245434040125,1,True
2021-12-26,0.9571413320672404,0.9571413320672404,0.0,0,False
2021-12-27,0.9571413320672404,0.9571413320672404,0.0,0,False
2021-12-28,0.9571413320672404,0.9571413320672404,0.0,0,False
2021-12-29,0.9571413320672404,0.9571413320672404,0.0,0,False
2021-12-30,0.9571413320672404,0.9571413320672404,0.0,0,False
2021-12-31,0.9571413320672404,0.9571413320672404,0.0,0,False
2022-01-01,0.9571413320672404,0.9571413320672404,0.0,0,False
2022-01-02,0.9571413320672404,0.9571413320672404,0.0,0,False
2022-01-03,0.9571413320672404,0.9571413320672404,0.0,0,False
2022-01-04,0.9571413320672404,0.9571413320672404,0.0,0,False
2022-01-05,0.9571413320672404,0.9580414792781374,0.09404538083763736,1,True
2022-01-06,0.9580414792781374,0.9425616614996473,-1.6157774076915654,9,True
2022-01-07,0.9425616614996473,0.9487774537300253,0.6594573579927321,4,True
2022-01-08,0.9487774537300253,0.9541933276085531,0.5708265786919631,0,True
2022-01-09,0.9541933276085531,0.9546886157576431,0.05190647793893444,1,True
2022-01-10,0.9546886157576431,0.9561007947004272,0.14792037104824907,0,True
2022-01-11,0.9561007947004272,0.9561007947004272,0.0,0,False
2022-01-12,0.9561007947004272,0.9561007947004272,0.0,0,False
2022-01-13,0.9561007947004272,0.9561007947004272,0.0,0,False
2022-01-14,0.9561007947004272,0.9561007947004272,0.0,0,False
2022-01-15,0.9561007947004272,0.9564356021798993,0.03501801079215383,1,True
2022-01-16,0.9564356021798993,0.9554597829842243,-0.10202664909702008,0,True
2022-01-17,0.9554597829842243,0.9574266671881775,0.2058573515056672,1,True
2022-01-18,0.9574266671881775,0.9624921158427513,0.5290691003468906,0,True
2022-01-19,0.9624921158427513,0.9624921158427513,0.0,0,False
2022-01-20,0.9624921158427513,0.9624921158427513,0.0,0,False
2022-01-21,0.9624921158427513,0.9360589276504386,-2.746327762816836,7,True
2022-01-22,0.9360589276504386,0.9189648213007983,-1.8261784429050354,8,True
2022-01-23,0.9189648213007983,0.9278327377039453,0.9649897577792332,0,True
2022-01-24,0.9278327377039453,0.9222079342834362,-0.6062303249213308,2,True
2022-01-25,0.9222079342834362,0.9370982970581138,1.6146426658373514,0,True
2022-01-26,0.9370982970581138,0.9370982970581138,0.0,0,False
2022-01-27,0.9370982970581138,0.9464207433292763,0.9948205327476423,4,True
2022-01-28,0.9464207433292763,0.9400850456245462,-0.6694377473640989,0,True
2022-01-29,0.9400850456245462,0.9400850456245462,0.0,0,False
2022-01-30,0.9400850456245462,0.9465401734840571,0.6866536053897532,1,True
2022-01-31,0.9465401734840571,0.9442015750664584,-0.24706805723740954,0,True
2022-02-01,0.9442015750664584,0.9442015750664584,0.0,0,False
2022-02-02,0.9442015750664584,0.9442015750664584,0.0,0,False
2022-02-03,0.9442015750664584,0.9437466069536994,-0.04818548546977608,3,True
2022-02-04,0.9437466069536994,0.9502470841666542,0.6887947638760217,0,True
2022-02-05,0.9502470841666542,0.9502470841666542,0.0,0,False
2022-02-06,0.9502470841666542,0.9502470841666542,0.0,0,False
2022-02-07,0.9502470841666542,0.9502470841666542,0.0,0,False
2022-02-08,0.9502470841666542,0.9502470841666542,0.0,0,False
2022-02-09,0.9502470841666542,0.9524945470764364,0.23651352866325137,2,True
2022-02-10,0.9524945470764364,0.9573865019831961,0.5135940065772449,5,True
2022-02-11,0.9573865019831961,0.9486097995079784,-0.9167355563335144,0,True
2022-02-12,0.9486097995079784,0.9297063746977174,-1.9927503194744234,4,True
2022-02-13,0.9297063746977174,0.9297063746977174,0.0,0,False
2022-02-14,0.9297063746977174,0.9297063746977174,0.0,0,False
2022-02-15,0.9297063746977174,0.9297063746977174,0.0,0,False
2022-02-16,0.9297063746977174,0.9297063746977174,0.0,0,False
2022-02-17,0.9297063746977174,0.9297063746977174,0.0,0,False
2022-02-18,0.9297063746977174,0.9297063746977174,0.0,0,False
2022-02-19,0.9297063746977174,0.9297063746977174,0.0,0,False
2022-02-20,0.9297063746977174,0.9297063746977174,0.0,0,False
2022-02-21,0.9297063746977174,0.9297063746977174,0.0,0,False
2022-02-22,0.9297063746977174,0.9292427225167326,-0.049870818744857104,2,True
2022-02-23,0.9292427225167326,0.92847674308127,-0.08243050140742669,0,True
2022-02-24,0.92847674308127,0.9099850269024933,-1.9916186718268891,4,True
2022-02-25,0.9099850269024933,0.9099850269024933,0.0,0,False
2022-02-26,0.9099850269024933,0.9099850269024933,0.0,0,False
2022-02-27,0.9099850269024933,0.9099850269024933,0.0,0,False
2022-02-28,0.9099850269024933,0.9120859904254515,0.2308789112838161,1,True
2022-03-01,0.9120859904254515,0.9147685551569692,0.2941131384187168,0,True
2022-03-02,0.9147685551569692,0.9147685551569692,0.0,0,False
2022-03-03,0.9147685551569692,0.9147685551569692,0.0,0,False
2022-03-04,0.9147685551569692,0.9122415248726743,-0.276248048760408,1,True
2022-03-05,0.9122415248726743,0.9122415248726743,0.0,0,False
2022-03-06,0.9122415248726743,0.9061502134575654,-0.6677301185077145,3,True
2022-03-07,0.9061502134575654,0.9042815889462654,-0.206215755792849,0,True
2022-03-08,0.9042815889462654,0.9052096412619891,0.10262868635919631,1,True
2022-03-09,0.9052096412619891,0.9132729705393531,0.8907692660147237,1,True
2022-03-10,0.9132729705393531,0.9112885520832614,-0.21728645433574112,3,True
2022-03-11,0.9112885520832614,0.9082363283567189,-0.3349349357637643,0,True
2022-03-12,0.9082363283567189,0.9082363283567189,0.0,0,False
2022-03-13,0.9082363283567189,0.9082363283567189,0.0,0,False
2022-03-14,0.9082363283567189,0.9046235678199237,-0.39777758541454933,1,True
2022-03-15,0.9046235678199237,0.9053731822113984,0.08286478687276055,1,True
2022-03-16,0.9053731822113984,0.907687709727832,0.255643480711476,1,True
2022-03-17,0.907687709727832,0.9038109811564553,-0.4270993789856514,1,True
2022-03-18,0.9038109811564553,0.9031296040805382,-0.07538933362429834,0,True
2022-03-19,0.9031296040805382,0.9031296040805382,0.0,0,False
2022-03-20,0.9031296040805382,0.8995116131459345,-0.4006059504922499,1,True
2022-03-21,0.8995116131459345,0.897247230721123,-0.2517346515285235,3,True
2022-03-22,0.897247230721123,0.897247230721123,0.0,0,False
2022-03-23,0.897247230721123,0.897247230721123,0.0,0,False
2022-03-24,0.897247230721123,0.897247230721123,0.0,0,False
2022-03-25,0.897247230721123,0.897247230721123,0.0,0,False
2022-03-26,0.897247230721123,0.897247230721123,0.0,0,False
2022-03-27,0.897247230721123,0.897247230721123,0.0,0,False
2022-03-28,0.897247230721123,0.897247230721123,0.0,0,False
2022-03-29,0.897247230721123,0.897247230721123,0.0,0,False
2022-03-30,0.897247230721123,0.8947507773623756,-0.27823472430680285,4,True
2022-03-31,0.8947507773623756,0.8968905203066212,0.23914401623135184,5,True
2022-04-01,0.8968905203066212,0.8809464986119557,-1.7776998790459575,0,True
2022-04-02,0.8809464986119557,0.8809464986119557,0.0,0,False
2022-04-03,0.8809464986119557,0.8775290778636817,-0.387926026570129,1,True
2022-04-04,0.8775290778636817,0.8775290778636817,0.0,0,False
2022-04-05,0.8775290778636817,0.877971813820344,0.050452568220316074,3,True
2022-04-06,0.877971813820344,0.8619026263013434,-1.8302623462452927,9,True
2022-04-07,0.8619026263013434,0.8648149305941922,0.33789249550686407,1,True
2022-04-08,0.8648149305941922,0.8686009698762726,0.4377860682260648,0,True
2022-04-09,0.8686009698762726,0.8686009698762726,0.0,0,False
2022-04-10,0.8686009698762726,0.8686009698762726,0.0,0,False
2022-04-11,0.8686009698762726,0.8606967758920723,-0.9099913836529749,6,True
2022-04-12,0.8606967758920723,0.8537906214916566,-0.8023911084432456,0,True
2022-04-13,0.8537906214916566,0.8537906214916566,0.0,0,False
2022-04-14,0.8537906214916566,0.8537906214916566,0.0,0,False
2022-04-15,0.8537906214916566,0.8537906214916566,0.0,0,False
2022-04-16,0.8537906214916566,0.8537906214916566,0.0,0,False
2022-04-17,0.8537906214916566,0.8542459383505632,0.053328866287039034,1,True
2022-04-18,0.8542459383505632,0.8557877082532098,0.18048314114593733,6,True
2022-04-19,0.8557877082532098,0.8632976281473613,0.8775447253712487,0,True
2022-04-20,0.8632976281473613,0.8632976281473613,0.0,0,False
2022-04-21,0.8632976281473613,0.8654043142834846,0.24402779150967113,2,True
2022-04-22,0.8654043142834846,0.8611943350205911,-0.48647541887738566,0,True
2022-04-23,0.8611943350205911,0.8611943350205911,0.0,0,False
2022-04-24,0.8611943350205911,0.8611943350205911,0.0,0,False
2022-04-25,0.8611943350205911,0.8570020161382595,-0.48680288662503735,3,True
2022-04-26,0.8570020161382595,0.8530129007220927,-0.46547328256498766,2,True
2022-04-27,0.8530129007220927,0.8527344213270466,-0.032646563118843286,0,True
2022-04-28,0.8527344213270466,0.8527344213270466,0.0,0,False
2022-04-29,0.8527344213270466,0.8527344213270466,0.0,0,False
2022-04-30,0.8527344213270466,0.85063655005216,-0.24601695702887172,1,True
2022-05-01,0.85063655005216,0.8553829179469056,0.5579783627278401,6,True
2022-05-02,0.8553829179469056,0.8553829179469056,0.0,0,False
2022-05-03,0.8553829179469056,0.8561413975750645,0.08867135551167138,3,True
2022-05-04,0.8561413975750645,0.8490130244192331,-0.8326163383784224,1,True
2022-05-05,0.8490130244192331,0.8490130244192331,0.0,0,False
2022-05-06,0.8490130244192331,0.8368056266938622,-1.4378339759535952,6,True
2022-05-07,0.8368056266938622,0.8298094629738622,-0.8360560083279012,2,True
2022-05-08,0.8298094629738622,0.8225324210783975,-0.8769533513615535,3,True
2022-05-09,0.8225324210783975,0.8155683124840232,-0.8466667593775679,3,True
2022-05-10,0.8155683124840232,0.7964853467524142,-2.339836582601751,7,True
2022-05-11,0.7964853467524142,0.7892042753417102,-0.9141500770091793,9,True
2022-05-12,0.7892042753417102,0.784371639423448,-0.6123428457315172,0,True
2022-05-13,0.784371639423448,0.784371639423448,0.0,0,False
2022-05-14,0.784371639423448,0.7746620577961942,-1.2378802520691345,5,True
2022-05-15,0.7746620577961942,0.7987785386704355,3.1131614917154105,1,True
2022-05-16,0.7987785386704355,0.8019324532494662,0.3948421779433886,8,True
2022-05-17,0.8019324532494662,0.8147261737505913,1.595361361082781,4,True
2022-05-18,0.8147261737505913,0.809506306768274,-0.6406897373000375,0,True
2022-05-19,0.809506306768274,0.8209011949480227,1.4076342685012122,6,True
2022-05-20,0.8209011949480227,0.8306247265321384,1.184494753321852,1,True
2022-05-21,0.8306247265321384,0.8306247265321384,0.0,0,False
2022-05-22,0.8306247265321384,0.8306247265321384,0.0,0,False
2022-05-23,0.8306247265321384,0.8307015356435943,0.009247149645608133,1,True
2022-05-24,0.8307015356435943,0.8112777281492995,-2.338241433398336,10,True
2022-05-25,0.8112777281492995,0.8072276815282547,-0.49921826774215194,1,True
2022-05-26,0.8072276815282547,0.7817990623802756,-3.15011733738334,9,True
2022-05-27,0.7817990623802756,0.7827377279965131,0.12006481734316843,2,True
2022-05-28,0.7827377279965131,0.7832879472231095,0.07029420033255462,0,True
2022-05-29,0.7832879472231095,0.7793816061750981,-0.49871073107405905,1,True
2022-05-30,0.7793816061750981,0.7793816061750981,0.0,0,False
2022-05-31,0.7793816061750981,0.7779944461351057,-0.1779821372485335,1,True
2022-06-01,0.7779944461351057,0.777441713512697,-0.07104583138795029,1,True
2022-06-02,0.777441713512697,0.7783451314124288,0.11620393966897957,1,True
2022-06-03,0.7783451314124288,0.7796011337881246,0.16136830886532838,0,True
2022-06-04,0.7796011337881246,0.7796011337881246,0.0,0,False
2022-06-05,0.7796011337881246,0.7796011337881246,0.0,0,False
2022-06-06,0.7796011337881246,0.7811348119185402,0.19672600050790745,1,True
2022-06-07,0.7811348119185402,0.7768883498018042,-0.5436273037564776,4,True
2022-06-08,0.7768883498018042,0.7781835433331287,0.16671553018587915,3,True
2022-06-09,0.7781835433331287,0.778844237299654,0.08490207383407,3,True
2022-06-10,0.778844237299654,0.7776438934729902,-0.15411859896730107,4,True
2022-06-11,0.7776438934729902,0.7597972413656477,-2.294964604896288,5,True
2022-06-12,0.7597972413656477,0.7546647568641718,-0.6755071250654887,8,True
2022-06-13,0.7546647568641718,0.7327123224865714,-2.9088988425560625,4,True
2022-06-14,0.7327123224865714,0.7401009313461728,1.0083915109448505,4,True
2022-06-15,0.7401009313461728,0.740761921354524,0.08931079267107123,4,True
2022-06-16,0.740761921354524,0.7494672094794593,1.1751802939623524,1,True
2022-06-17,0.7494672094794593,0.7494672094794593,0.0,0,False
2022-06-18,0.7494672094794593,0.7439138692633899,-0.7409717391007042,5,True
2022-06-19,0.7439138692633899,0.7473953981878145,0.46800161527731365,2,True
2022-06-20,0.7473953981878145,0.7486422455529321,0.1668256679316915,0,True
2022-06-21,0.7486422455529321,0.7486422455529321,0.0,0,False
2022-06-22,0.7486422455529321,0.7486422455529321,0.0,0,False
2022-06-23,0.7486422455529321,0.7486422455529321,0.0,0,False
2022-06-24,0.7486422455529321,0.7449065136976959,-0.49900094169507136,1,True
2022-06-25,0.7449065136976959,0.7451544958601397,0.03329037374271149,3,True
2022-06-26,0.7451544958601397,0.7442890589817014,-0.1161419387853746,0,True
2022-06-27,0.7442890589817014,0.742136874953288,-0.289159702462638,4,True
2022-06-28,0.742136874953288,0.7390793815796014,-0.4119851036749833,2,True
2022-06-29,0.7390793815796014,0.7417305123573068,0.3587071759517002,2,True
2022-06-30,0.7417305123573068,0.7427991992509143,0.14408021185634556,1,True
2022-07-01,0.7427991992509143,0.7422013766179498,-0.080482401376758,1,True
2022-07-02,0.7422013766179498,0.7437184198736162,0.20439779599699115,1,True
2022-07-03,0.7437184198736162,0.7445819902067677,0.11611522722514422,1,True
2022-07-04,0.7445819902067677,0.7444041020362632,-0.023891011714527455,0,True
2022-07-05,0.7444041020362632,0.7444041020362632,0.0,0,False
2022-07-06,0.7444041020362632,0.7444041020362632,0.0,0,False
2022-07-07,0.7444041020362632,0.7444041020362632,0.0,0,False
2022-07-08,0.7444041020362632,0.7444041020362632,0.0,0,False
2022-07-09,0.7444041020362632,0.7444041020362632,0.0,0,False
2022-07-10,0.7444041020362632,0.7444041020362632,0.0,0,False
2022-07-11,0.7444041020362632,0.740686820427024,-0.4993633967183664,1,True
2022-07-12,0.740686820427024,0.7437093147322742,0.40806643535356013,2,True
2022-07-13,0.7437093147322742,0.7477466029795959,0.5428583678254828,5,True
2022-07-14,0.7477466029795959,0.7610957270523513,1.7852470368387108,0,True
2022-07-15,0.7610957270523513,0.7610957270523513,0.0,0,False
2022-07-16,0.7610957270523513,0.7610957270523513,0.0,0,False
2022-07-17,0.7610957270523513,0.7610957270523513,0.0,0,False
2022-07-18,0.7610957270523513,0.7610957270523513,0.0,0,False
2022-07-19,0.7610957270523513,0.7610957270523513,0.0,0,False
2022-07-20,0.7610957270523513,0.7605845698104406,-0.06716070314706224,1,True
2022-07-21,0.7605845698104406,0.7529262565999544,-1.0068983140684717,7,True
2022-07-22,0.7529262565999544,0.7529262565999544,0.0,0,False
2022-07-23,0.7529262565999544,0.7516005415542731,-0.17607501851082397,1,True
2022-07-24,0.7516005415542731,0.7540860648363797,0.330697377754241,1,True
2022-07-25,0.7540860648363797,0.7546102649684686,0.06951462923567853,1,True
2022-07-26,0.7546102649684686,0.7540933560382681,-0.06850011909420584,1,True
2022-07-27,0.7540933560382681,0.7528719149634536,-0.1619747827021678,0,True
2022-07-28,0.7528719149634536,0.7528719149634536,0.0,0,False
2022-07-29,0.7528719149634536,0.7528719149634536,0.0,0,False
2022-07-30,0.7528719149634536,0.7528719149634536,0.0,0,False
2022-07-31,0.7528719149634536,0.7520651826850249,-0.10715398760331452,1,True
2022-08-01,0.7520651826850249,0.7517743148767776,-0.03867587742977241,1,True
2022-08-02,0.7517743148767776,0.7518147974988653,0.005384943497888095,1,True
2022-08-03,0.7518147974988653,0.752855138180097,0.1383772552352891,1,True
2022-08-04,0.752855138180097,0.7510928921339726,-0.23407505066437295,0,True
2022-08-05,0.7510928921339726,0.751324046461452,0.030775730924936795,1,True
2022-08-06,0.751324046461452,0.751324046461452,0.0,0,False
2022-08-07,0.751324046461452,0.7519180546518692,0.07906151722614219,2,True
2022-08-08,0.7519180546518692,0.7507343268060825,-0.15742777267594432,0,True
2022-08-09,0.7507343268060825,0.7496218069812027,-0.14819088260062951,5,True
2022-08-10,0.7496218069812027,0.7544207874896457,0.64018688674079,1,True
2022-08-11,0.7544207874896457,0.7561603781496523,0.23058625754404094,1,True
2022-08-12,0.7561603781496523,0.7571535384881699,0.1313425520850231,2,True
2022-08-13,0.7571535384881699,0.7571535384881699,0.0,0,False
2022-08-14,0.7571535384881699,0.7571535384881699,0.0,0,False
2022-08-15,0.7571535384881699,0.7571535384881699,0.0,0,False
2022-08-16,0.7571535384881699,0.7562234395664346,-0.12284152083505973,1,True
2022-08-17,0.7562234395664346,0.7538629407480392,-0.3121430380085499,1,True
2022-08-18,0.7538629407480392,0.7502892673969701,-0.47404815357059427,1,True
2022-08-19,0.7502892673969701,0.7350356163539531,-2.0330360176865625,10,True
2022-08-20,0.7350356163539531,0.7351003557289026,0.008807651426567809,1,True
2022-08-21,0.7351003557289026,0.734060073074353,-0.14151573270810847,0,True
2022-08-22,0.734060073074353,0.734060073074353,0.0,0,False
2022-08-23,0.734060073074353,0.734060073074353,0.0,0,False
2022-08-24,0.734060073074353,0.734060073074353,0.0,0,False
2022-08-25,0.734060073074353,0.7326874096015296,-0.1869960679204974,1,True
2022-08-26,0.7326874096015296,0.7313337632095193,-0.18475087387491707,0,True
2022-08-27,0.7313337632095193,0.7266363648961478,-0.6423056817117967,3,True
2022-08-28,0.7266363648961478,0.7266363648961478,0.0,0,False
2022-08-29,0.7266363648961478,0.7242823263054494,-0.3239637739620771,1,True
2022-08-30,0.7242823263054494,0.7206721053182299,-0.4984549334007937,1,True
2022-08-31,0.7206721053182299,0.7206721053182299,0.0,0,False
2022-09-01,0.7206721053182299,0.7206721053182299,0.0,0,False
2022-09-02,0.7206721053182299,0.7206721053182299,0.0,0,False
2022-09-03,0.7206721053182299,0.7206721053182299,0.0,0,False
2022-09-04,0.7206721053182299,0.7206721053182299,0.0,0,False
2022-09-05,0.7206721053182299,0.7206721053182299,0.0,0,False
2022-09-06,0.7206721053182299,0.718296662426296,-0.3296149350591304,1,True
2022-09-07,0.718296662426296,0.7078013151765141,-1.4611438140795685,5,True
2022-09-08,0.7078013151765141,0.7078009087894314,-5.7415417864525864e-05,0,True
2022-09-09,0.7078009087894314,0.7078009087894314,0.0,0,False
2022-09-10,0.7078009087894314,0.7078009087894314,0.0,0,False
2022-09-11,0.7078009087894314,0.7078009087894314,0.0,0,False
2022-09-12,0.7078009087894314,0.7078009087894314,0.0,0,False
2022-09-13,0.7078009087894314,0.7014002070335681,-0.9043082138465386,4,True
2022-09-14,0.7014002070335681,0.6961594317927319,-0.7471875811102202,0,True
2022-09-15,0.6961594317927319,0.6987086476366403,0.3661827632420067,1,True
2022-09-16,0.6987086476366403,0.6970043888446621,-0.24391551439113535,1,True
2022-09-17,0.6970043888446621,0.696399831447607,-0.08673652658877096,1,True
2022-09-18,0.696399831447607,0.6958100177499039,-0.08469469277110342,0,True
2022-09-19,0.6958100177499039,0.6914694515639201,-0.623814845325199,8,True
2022-09-20,0.6914694515639201,0.6914768957023223,0.0010765679359092672,0,True
2022-09-21,0.6914768957023223,0.6914768957023223,0.0,0,False
2022-09-22,0.6914768957023223,0.6896741171326434,-0.2607142163221332,1,True
2022-09-23,0.6896741171326434,0.6896741171326434,0.0,0,False
2022-09-24,0.6896741171326434,0.6896741171326434,0.0,0,False
2022-09-25,0.6896741171326434,0.6896741171326434,0.0,0,False
2022-09-26,0.6896741171326434,0.6896741171326434,0.0,0,False
2022-09-27,0.6896741171326434,0.6896741171326434,0.0,0,False
2022-09-28,0.6896741171326434,0.6896741171326434,0.0,0,False
2022-09-29,0.6896741171326434,0.6896741171326434,0.0,0,False
2022-09-30,0.6896741171326434,0.6896741171326434,0.0,0,False
2022-10-01,0.6896741171326434,0.6896741171326434,0.0,0,False
2022-10-02,0.6896741171326434,0.6896741171326434,0.0,0,False
2022-10-03,0.6896741171326434,0.6896741171326434,0.0,0,False
2022-10-04,0.6896741171326434,0.6896741171326434,0.0,0,False
2022-10-05,0.6896741171326434,0.6896741171326434,0.0,0,False
2022-10-06,0.6896741171326434,0.6896741171326434,0.0,0,False
2022-10-07,0.6896741171326434,0.6896741171326434,0.0,0,False
2022-10-08,0.6896741171326434,0.6878618465881123,-0.26277201065130207,1,True
2022-10-09,0.6878618465881123,0.6878618465881123,0.0,0,False
2022-10-10,0.6878618465881123,0.6878618465881123,0.0,0,False
2022-10-11,0.6878618465881123,0.6974868164237162,1.3992591511427843,6,True
2022-10-12,0.6974868164237162,0.6951191970683958,-0.3394500511794907,2,True
2022-10-13,0.6951191970683958,0.6961607860702657,0.1498432220348178,1,True
2022-10-14,0.6961607860702657,0.7022335575226322,0.8723231146997579,0,True
2022-10-15,0.7022335575226322,0.7022335575226322,0.0,0,False
2022-10-16,0.7022335575226322,0.7022335575226322,0.0,0,False
2022-10-17,0.7022335575226322,0.7022335575226322,0.0,0,False
2022-10-18,0.7022335575226322,0.7022335575226322,0.0,0,False
2022-10-19,0.7022335575226322,0.7022335575226322,0.0,0,False
2022-10-20,0.7022335575226322,0.7053785294101059,0.4478526914277303,2,True
2022-10-21,0.7053785294101059,0.7042787467821336,-0.1559138224538792,0,True
2022-10-22,0.7042787467821336,0.7042787467821336,0.0,0,False
2022-10-23,0.7042787467821336,0.7042787467821336,0.0,0,False
2022-10-24,0.7042787467821336,0.7042787467821336,0.0,0,False
2022-10-25,0.7042787467821336,0.7037763446798881,-0.07133568981614324,1,True
2022-10-26,0.7037763446798881,0.7023895370412672,-0.197052323384328,0,True
2022-10-27,0.7023895370412672,0.7023895370412672,0.0,0,False
2022-10-28,0.7023895370412672,0.7023895370412672,0.0,0,False
2022-10-29,0.7023895370412672,0.7023895370412672,0.0,0,False
2022-10-30,0.7023895370412672,0.7023895370412672,0.0,0,False
2022-10-31,0.7023895370412672,0.7023895370412672,0.0,0,False
2022-11-01,0.7023895370412672,0.7023895370412672,0.0,0,False
2022-11-02,0.7023895370412672,0.7056743481199651,0.46766230210870674,2,True
2022-11-03,0.7056743481199651,0.7052627954656407,-0.05832047819519515,0,True
2022-11-04,0.7052627954656407,0.7053540226910582,0.012935210251274754,2,True
2022-11-05,0.7053540226910582,0.7040803362115119,-0.18057407182381358,0,True
2022-11-06,0.7040803362115119,0.7042565947373148,0.025033865702228653,1,True
2022-11-07,0.7042565947373148,0.7059370849921051,0.23861902995980788,3,True
2022-11-08,0.7059370849921051,0.6889699390853694,-2.4034926436716897,7,True
2022-11-09,0.6889699390853694,0.6721099034738826,-2.447136610033973,5,True
2022-11-10,0.6721099034738826,0.6721099034738826,0.0,0,False
2022-11-11,0.6721099034738826,0.667648383310293,-0.6638081272913321,10,True
2022-11-12,0.667648383310293,0.6614927035203364,-0.9219942628237776,6,True
2022-11-13,0.6614927035203364,0.6578459087724955,-0.5512978039566185,1,True
2022-11-14,0.6578459087724955,0.6555625394490239,-0.3470978983105999,2,True
2022-11-15,0.6555625394490239,0.6546567355705187,-0.13817200099115468,0,True
2022-11-16,0.6546567355705187,0.6542703807287537,-0.05901640062229152,1,True
2022-11-17,0.6542703807287537,0.6548664349392204,0.09110212352922975,1,True
2022-11-18,0.6548664349392204,0.6563155167594829,0.22127898804233936,0,True
2022-11-19,0.6563155167594829,0.6560021761485592,-0.04774237434927997,3,True
2022-11-20,0.6560021761485592,0.6511979174866873,-0.7323540738962242,2,True
2022-11-21,0.6511979174866873,0.6406133511054994,-1.6253992982716015,4,True
2022-11-22,0.6406133511054994,0.6388784227999093,-0.2708230015181945,0,True
2022-11-23,0.6388784227999093,0.644784226573148,0.9244018208278693,1,True
2022-11-24,0.644784226573148,0.6422798342465962,-0.38840781510149913,1,True
2022-11-25,0.6422798342465962,0.6422097345235488,-0.010914202705680776,1,True
2022-11-26,0.6422097345235488,0.6413541753806857,-0.13322114207717783,0,True
2022-11-27,0.6413541753806857,0.6413541753806857,0.0,0,False
2022-11-28,0.6413541753806857,0.6383876052517471,-0.46254787803912123,4,True
2022-11-29,0.6383876052517471,0.6383401843423461,-0.00742823153377925,0,True
2022-11-30,0.6383401843423461,0.6383401843423461,0.0,0,False
2022-12-01,0.6383401843423461,0.6382332475135968,-0.01675232601241472,1,True
2022-12-02,0.6382332475135968,0.6382332475135968,0.0,0,False
2022-12-03,0.6382332475135968,0.6382332475135968,0.0,0,False
2022-12-04,0.6382332475135968,0.6382332475135968,0.0,0,False
2022-12-05,0.6382332475135968,0.6382332475135968,0.0,0,False
2022-12-06,0.6382332475135968,0.6388244678766084,0.09263390230997981,2,True
2022-12-07,0.6388244678766084,0.6373664879728711,-0.22822856309551165,1,True
2022-12-08,0.6373664879728711,0.635544057113391,-0.2859313901608318,1,True
2022-12-09,0.635544057113391,0.635544057113391,0.0,0,False
2022-12-10,0.635544057113391,0.635544057113391,0.0,0,False
2022-12-11,0.635544057113391,0.635544057113391,0.0,0,False
2022-12-12,0.635544057113391,0.6343154343546697,-0.1933182672341549,1,True
2022-12-13,0.6343154343546697,0.6343154343546697,0.0,0,False
2022-12-14,0.6343154343546697,0.6343154343546697,0.0,0,False
2022-12-15,0.6343154343546697,0.6343154343546697,0.0,0,False
2022-12-16,0.6343154343546697,0.6348022258162787,0.07674280574681003,5,True
2022-12-17,0.6348022258162787,0.6289626777179707,-0.9199003816974693,5,True
2022-12-18,0.6289626777179707,0.6289766523670001,0.0022218566418041874,0,True
2022-12-19,0.6289766523670001,0.6289766523670001,0.0,0,False
2022-12-20,0.6289766523670001,0.6289766523670001,0.0,0,False
2022-12-21,0.6289766523670001,0.6289766523670001,0.0,0,False
2022-12-22,0.6289766523670001,0.6289766523670001,0.0,0,False
2022-12-23,0.6289766523670001,0.6289766523670001,0.0,0,False
2022-12-24,0.6289766523670001,0.6289766523670001,0.0,0,False
2022-12-25,0.6289766523670001,0.6289766523670001,0.0,0,False
2022-12-26,0.6289766523670001,0.6289766523670001,0.0,0,False
2022-12-27,0.6289766523670001,0.6289766523670001,0.0,0,False
2022-12-28,0.6289766523670001,0.6297621793085167,0.12488968208288487,4,True
2022-12-29,0.6297621793085167,0.6256357517909026,-0.655235841908608,0,True
2022-12-30,0.6256357517909026,0.6256357517909026,0.0,0,False
2022-12-31,0.6256357517909026,0.6256357517909026,0.0,0,False
2023-01-01,0.6256357517909026,0.6256357517909026,0.0,0,False
2023-01-02,0.6256357517909026,0.6256357517909026,0.0,0,False
2023-01-03,0.6256357517909026,0.6256357517909026,0.0,0,False
2023-01-04,0.6256357517909026,0.6256357517909026,0.0,0,False
2023-01-05,0.6256357517909026,0.6256357517909026,0.0,0,False
2023-01-06,0.6256357517909026,0.6250466632745876,-0.09415838443195268,1,True
2023-01-07,0.6250466632745876,0.626147450899053,0.17611287110923524,0,True
2023-01-08,0.626147450899053,0.626147450899053,0.0,0,False
2023-01-09,0.626147450899053,0.626147450899053,0.0,0,False
2023-01-10,0.626147450899053,0.6250488888096407,-0.1754478258810921,2,True
2023-01-11,0.6250488888096407,0.6237999858649426,-0.19980884168542268,1,True
2023-01-12,0.6237999858649426,0.6231678258400035,-0.10134017942666773,0,True
2023-01-13,0.6231678258400035,0.6231678258400035,0.0,0,False
2023-01-14,0.6231678258400035,0.6245600901466933,0.22341723191712237,4,True
2023-01-15,0.6245600901466933,0.6232928998297744,-0.20289325829662141,1,True
2023-01-16,0.6232928998297744,0.6232928998297744,0.0,0,False
2023-01-17,0.6232928998297744,0.6232928998297744,0.0,0,False
2023-01-18,0.6232928998297744,0.6232928998297744,0.0,0,False
2023-01-19,0.6232928998297744,0.6145866060371002,-1.3968222315787537,5,True
2023-01-20,0.6145866060371002,0.6145866060371002,0.0,0,False
2023-01-21,0.6145866060371002,0.6151064503118887,0.08458438073364327,1,True
2023-01-22,0.6151064503118887,0.6144119648385976,-0.11290492449541611,0,True
2023-01-23,0.6144119648385976,0.6144119648385976,0.0,0,False
2023-01-24,0.6144119648385976,0.6144119648385976,0.0,0,False
2023-01-25,0.6144119648385976,0.6112911562792332,-0.5079342099374884,6,True
2023-01-26,0.6112911562792332,0.6112885680620052,-0.00042340171315657926,0,True
2023-01-27,0.6112885680620052,0.6112885680620052,0.0,0,False
2023-01-28,0.6112885680620052,0.6112885680620052,0.0,0,False
2023-01-29,0.6112885680620052,0.6112885680620052,0.0,0,False
2023-01-30,0.6112885680620052,0.6132879693033746,0.32707976982266906,4,True
2023-01-31,0.6132879693033746,0.6139483104988411,0.10767228912327287,2,True
2023-02-01,0.6139483104988411,0.6217816948574693,1.2759029098497576,0,True
2023-02-02,0.6217816948574693,0.6217816948574693,0.0,0,False
2023-02-03,0.6217816948574693,0.6220456732333036,0.042455153957998704,1,True
2023-02-04,0.6220456732333036,0.6232679003785223,0.19648511320169426,0,True
2023-02-05,0.6232679003785223,0.6246344046639919,0.21924830151522912,5,True
2023-02-06,0.6246344046639919,0.6175002310078438,-1.1421358802651604,0,True
2023-02-07,0.6175002310078438,0.6175002310078438,0.0,0,False
2023-02-08,0.6175002310078438,0.6159900123574724,-0.24456973042852326,1,True
2023-02-09,0.6159900123574724,0.6211846658222715,0.8433015731729832,4,True
2023-02-10,0.6211846658222715,0.6040494619170022,-2.7584718116934193,4,True
2023-02-11,0.6040494619170022,0.6040494619170022,0.0,0,False
2023-02-12,0.6040494619170022,0.6040494619170022,0.0,0,False
2023-02-13,0.6040494619170022,0.604539534199814,0.08113115128958182,3,True
2023-02-14,0.604539534199814,0.6044682053409804,-0.011798874151047745,0,True
2023-02-15,0.6044682053409804,0.6044682053409804,0.0,0,False
2023-02-16,0.6044682053409804,0.6044682053409804,0.0,0,False
2023-02-17,0.6044682053409804,0.6069724003715342,0.41428068646574,1,True
2023-02-18,0.6069724003715342,0.6069724003715342,0.0,0,False
2023-02-19,0.6069724003715342,0.6069724003715342,0.0,0,False
2023-02-20,0.6069724003715342,0.6080768560542731,0.18196143384161534,1,True
2023-02-21,0.6080768560542731,0.6062176072706432,-0.30575884694811206,1,True
2023-02-22,0.6062176072706432,0.6062176072706432,0.0,0,False
2023-02-23,0.6062176072706432,0.6112078049715385,0.8231693769771065,1,True
2023-02-24,0.6112078049715385,0.6112078049715385,0.0,0,False
2023-02-25,0.6112078049715385,0.6105788611600146,-0.10290179647708397,1,True
2023-02-26,0.6105788611600146,0.6105788611600146,0.0,0,False
2023-02-27,0.6105788611600146,0.6105788611600146,0.0,0,False
2023-02-28,0.6105788611600146,0.6105788611600146,0.0,0,False
2023-03-01,0.6105788611600146,0.6105788611600146,0.0,0,False
2023-03-02,0.6105788611600146,0.6091834547208853,-0.22853828193105663,1,True
2023-03-03,0.6091834547208853,0.6029365932250296,-1.0254483189662378,9,True
2023-03-04,0.6029365932250296,0.6030601735575701,0.02049640607804104,0,True
2023-03-05,0.6030601735575701,0.607306339644017,0.7041032176603457,3,True
2023-03-06,0.607306339644017,0.6066253381268911,-0.11213476176209491,0,True
2023-03-07,0.6066253381268911,0.6066253381268911,0.0,0,False
2023-03-08,0.6066253381268911,0.6066253381268911,0.0,0,False
2023-03-09,0.6066253381268911,0.6066253381268911,0.0,0,False
2023-03-10,0.6066253381268911,0.5957773230979742,-1.7882561685294784,8,True
2023-03-11,0.5957773230979742,0.5946358484556532,-0.19159417421016345,5,True
2023-03-12,0.5946358484556532,0.5970317467814057,0.40291858151084714,0,True
2023-03-13,0.5970317467814057,0.5970317467814057,0.0,0,False
2023-03-14,0.5970317467814057,0.5970317467814057,0.0,0,False
2023-03-15,0.5970317467814057,0.595898807351564,-0.189762007790939,1,True
2023-03-16,0.595898807351564,0.5950642934054613,-0.14004289584192975,1,True
2023-03-17,0.5950642934054613,0.5949435339193081,-0.020293519119107817,1,True
2023-03-18,0.5949435339193081,0.6038378035247125,1.4949771025851266,1,True
2023-03-19,0.6038378035247125,0.6006898161645133,-0.5213299567903507,1,True
2023-03-20,0.6006898161645133,0.6006898161645133,0.0,0,False
2023-03-21,0.6006898161645133,0.6006898161645133,0.0,0,False
2023-03-22,0.6006898161645133,0.6006898161645133,0.0,0,False
2023-03-23,0.6006898161645133,0.6096550203034252,1.4924847895967153,6,True
2023-03-24,0.6096550203034252,0.6053920970675281,-0.6992353206204283,1,True
2023-03-25,0.6053920970675281,0.602918409787603,-0.40860911331802585,1,True
2023-03-26,0.602918409787603,0.6030813287779456,0.02702173091713167,0,True
2023-03-27,0.6030813287779456,0.600072038599238,-0.4989857976212764,1,True
2023-03-28,0.600072038599238,0.6061119427402945,1.0065298418429292,4,True
2023-03-29,0.6061119427402945,0.6063578725713102,0.040574985192320945,0,True
2023-03-30,0.6063578725713102,0.6063578725713102,0.0,0,False
2023-03-31,0.6063578725713102,0.6063578725713102,0.0,0,False
2023-04-01,0.6063578725713102,0.6063578725713102,0.0,0,False
2023-04-02,0.6063578725713102,0.6063578725713102,0.0,0,False
2023-04-03,0.6063578725713102,0.6063578725713102,0.0,0,False
2023-04-04,0.6063578725713102,0.6063578725713102,0.0,0,False
2023-04-05,0.6063578725713102,0.6063578725713102,0.0,0,False
2023-04-06,0.6063578725713102,0.6063578725713102,0.0,0,False
2023-04-07,0.6063578725713102,0.6048281157242754,-0.2522861359988249,1,True
2023-04-08,0.6048281157242754,0.6048281157242754,0.0,0,False
2023-04-09,0.6048281157242754,0.6048281157242754,0.0,0,False
2023-04-10,0.6048281157242754,0.6048281157242754,0.0,0,False
2023-04-11,0.6048281157242754,0.6048281157242754,0.0,0,False
2023-04-12,0.6048281157242754,0.6070417767572671,0.3659983680389667,1,True
2023-04-13,0.6070417767572671,0.6072557142642628,0.035242633239929155,0,True
2023-04-14,0.6072557142642628,0.6104937920711797,0.5332313440376657,1,True
2023-04-15,0.6104937920711797,0.6098873195040327,-0.09934131600084495,0,True
2023-04-16,0.6098873195040327,0.6098873195040327,0.0,0,False
2023-04-17,0.6098873195040327,0.6098873195040327,0.0,0,False
2023-04-18,0.6098873195040327,0.6098873195040327,0.0,0,False
2023-04-19,0.6098873195040327,0.6051154359749563,-0.7824205187536903,7,True
2023-04-20,0.6051154359749563,0.5995370037490869,-0.9218790158412427,0,True
2023-04-21,0.5995370037490869,0.5995370037490869,0.0,0,False
2023-04-22,0.5995370037490869,0.5995370037490869,0.0,0,False
2023-04-23,0.5995370037490869,0.5995370037490869,0.0,0,False
2023-04-24,0.5995370037490869,0.5995370037490869,0.0,0,False
2023-04-25,0.5995370037490869,0.5995370037490869,0.0,0,False
2023-04-26,0.5995370037490869,0.5995370037490869,0.0,0,False
2023-04-27,0.5995370037490869,0.5955621840429863,-0.6629815476350664,8,True
2023-04-28,0.5955621840429863,0.5996451065707682,0.6855577196095419,0,True
2023-04-29,0.5996451065707682,0.5996451065707682,0.0,0,False
2023-04-30,0.5996451065707682,0.5996451065707682,0.0,0,False
2023-05-01,0.5996451065707682,0.5996451065707682,0.0,0,False
2023-05-02,0.5996451065707682,0.5996451065707682,0.0,0,False
2023-05-03,0.5996451065707682,0.5996451065707682,0.0,0,False
2023-05-04,0.5996451065707682,0.5996451065707682,0.0,0,False
2023-05-05,0.5996451065707682,0.5996451065707682,0.0,0,False
2023-05-06,0.5996451065707682,0.5966547137278728,-0.49869377905820134,1,True
2023-05-07,0.5966547137278728,0.5966547137278728,0.0,0,False
2023-05-08,0.5966547137278728,0.5992317565667744,0.431915273542427,6,True
2023-05-09,0.5992317565667744,0.5967525239151527,-0.41373519084272337,6,True
2023-05-10,0.5967525239151527,0.5930694944007511,-0.6171787075550328,1,True
2023-05-11,0.5930694944007511,0.5952405047947689,0.36606340648348556,5,True
2023-05-12,0.5952405047947689,0.5925815021880515,-0.44671062961922914,0,True
2023-05-13,0.5925815021880515,0.5925815021880515,0.0,0,False
2023-05-14,0.5925815021880515,0.5925815021880515,0.0,0,False
2023-05-15,0.5925815021880515,0.5925815021880515,0.0,0,False
2023-05-16,0.5925815021880515,0.5925815021880515,0.0,0,False
2023-05-17,0.5925815021880515,0.5925815021880515,0.0,0,False
2023-05-18,0.5925815021880515,0.5911031160207078,-0.24948233481554283,1,True
2023-05-19,0.5911031160207078,0.5911031160207078,0.0,0,False
2023-05-20,0.5911031160207078,0.5911031160207078,0.0,0,False
2023-05-21,0.5911031160207078,0.5911031160207078,0.0,0,False
2023-05-22,0.5911031160207078,0.5911031160207078,0.0,0,False
2023-05-23,0.5911031160207078,0.5911031160207078,0.0,0,False
2023-05-24,0.5911031160207078,0.5911031160207078,0.0,0,False
2023-05-25,0.5911031160207078,0.5911031160207078,0.0,0,False
2023-05-26,0.5911031160207078,0.5918953952870841,0.13403401959881656,1,True
2023-05-27,0.5918953952870841,0.5934008912896536,0.25435170041139266,0,True
2023-05-28,0.5934008912896536,0.5934008912896536,0.0,0,False
2023-05-29,0.5934008912896536,0.5934008912896536,0.0,0,False
2023-05-30,0.5934008912896536,0.5946550083462729,0.211343979260592,2,True
2023-05-31,0.5946550083462729,0.5918395196421447,-0.47346590285317625,1,True
2023-06-01,0.5918395196421447,0.5918395196421447,0.0,0,False
2023-06-02,0.5918395196421447,0.5918395196421447,0.0,0,False
2023-06-03,0.5918395196421447,0.5918395196421447,0.0,0,False
2023-06-04,0.5918395196421447,0.5890634504821958,-0.4690577543093877,1,True
2023-06-05,0.5890634504821958,0.5890634504821958,0.0,0,False
2023-06-06,0.5890634504821958,0.578255804880847,-1.834716717274143,9,True
2023-06-07,0.578255804880847,0.5780231851628187,-0.040227822369420796,0,True
2023-06-08,0.5780231851628187,0.5780231851628187,0.0,0,False
2023-06-09,0.5780231851628187,0.5780231851628187,0.0,0,False
2023-06-10,0.5780231851628187,0.5842498806729677,1.0772397491970898,6,True
2023-06-11,0.5842498806729677,0.5837705930896244,-0.08203469084001602,1,True
2023-06-12,0.5837705930896244,0.583764895848214,-0.0009759384042018482,0,True
2023-06-13,0.583764895848214,0.583764895848214,0.0,0,False
2023-06-14,0.583764895848214,0.583764895848214,0.0,0,False
2023-06-15,0.583764895848214,0.5859195425855959,0.3690949477616501,4,True
2023-06-16,0.5859195425855959,0.5883618815664793,0.41683862772450286,0,True
2023-06-17,0.5883618815664793,0.5883618815664793,0.0,0,False
2023-06-18,0.5883618815664793,0.5883618815664793,0.0,0,False
2023-06-19,0.5883618815664793,0.5883618815664793,0.0,0,False
2023-06-20,0.5883618815664793,0.5864253088393594,-0.3291465317168174,1,True
2023-06-21,0.5864253088393594,0.5864253088393594,0.0,0,False
2023-06-22,0.5864253088393594,0.5864253088393594,0.0,0,False
2023-06-23,0.5864253088393594,0.5864253088393594,0.0,0,False
2023-06-24,0.5864253088393594,0.5864253088393594,0.0,0,False
2023-06-25,0.5864253088393594,0.5858000384490104,-0.10662404588003271,3,True
2023-06-26,0.5858000384490104,0.5846263689714248,-0.20035326059264502,0,True
2023-06-27,0.5846263689714248,0.5846263689714248,0.0,0,False
2023-06-28,0.5846263689714248,0.5846263689714248,0.0,0,False
2023-06-29,0.5846263689714248,0.5837858459964198,-0.1437709654601882,2,True
2023-06-30,0.5837858459964198,0.5764685684198035,-1.2534181201544814,7,True
2023-07-01,0.5764685684198035,0.5832390083406689,1.1744681829616965,0,True
2023-07-02,0.5832390083406689,0.5832390083406689,0.0,0,False
2023-07-03,0.5832390083406689,0.5832390083406689,0.0,0,False
2023-07-04,0.5832390083406689,0.5832390083406689,0.0,0,False
2023-07-05,0.5832390083406689,0.5826760119850307,-0.09652926974824672,1,True
2023-07-06,0.5826760119850307,0.5833271765008851,0.1117541313629733,1,True
2023-07-07,0.5833271765008851,0.5817415408052857,-0.2718261311106418,0,True
2023-07-08,0.5817415408052857,0.5817415408052857,0.0,0,False
2023-07-09,0.5817415408052857,0.5817415408052857,0.0,0,False
2023-07-10,0.5817415408052857,0.5817415408052857,0.0,0,False
2023-07-11,0.5817415408052857,0.5817415408052857,0.0,0,False
2023-07-12,0.5817415408052857,0.5806921191539837,-0.18039310891386773,1,True
2023-07-13,0.5806921191539837,0.5806921191539837,0.0,0,False
2023-07-14,0.5806921191539837,0.5806921191539837,0.0,0,False
2023-07-15,0.5806921191539837,0.5858182592960993,0.8827638559283368,5,True
2023-07-16,0.5858182592960993,0.5855907628945831,-0.038833955395922715,1,True
2023-07-17,0.5855907628945831,0.5848938942170575,-0.11900267587572344,0,True
2023-07-18,0.5848938942170575,0.5848938942170575,0.0,0,False
2023-07-19,0.5848938942170575,0.5848938942170575,0.0,0,False
2023-07-20,0.5848938942170575,0.5848938942170575,0.0,0,False
2023-07-21,0.5848938942170575,0.5848938942170575,0.0,0,False
2023-07-22,0.5848938942170575,0.5848938942170575,0.0,0,False
2023-07-23,0.5848938942170575,0.5848938942170575,0.0,0,False
2023-07-24,0.5848938942170575,0.5845974084640331,-0.05069051941828384,2,True
2023-07-25,0.5845974084640331,0.58509217552051,0.08463380940686438,0,True
2023-07-26,0.58509217552051,0.58509217552051,0.0,0,False
2023-07-27,0.58509217552051,0.58509217552051,0.0,0,False
2023-07-28,0.58509217552051,0.58509217552051,0.0,0,False
2023-07-29,0.58509217552051,0.58509217552051,0.0,0,False
2023-07-30,0.58509217552051,0.58509217552051,0.0,0,False
2023-07-31,0.58509217552051,0.5821735770909423,-0.4988271167651881,1,True
2023-08-01,0.5821735770909423,0.579654375031259,-0.4327235310594868,2,True
2023-08-02,0.579654375031259,0.579654375031259,0.0,0,False
2023-08-03,0.579654375031259,0.579654375031259,0.0,0,False
2023-08-04,0.579654375031259,0.579654375031259,0.0,0,False
2023-08-05,0.579654375031259,0.579654375031259,0.0,0,False
2023-08-06,0.579654375031259,0.579654375031259,0.0,0,False
2023-08-07,0.579654375031259,0.5798801913726601,0.03895706668113341,1,True
2023-08-08,0.5798801913726601,0.5792763566760107,-0.10413094043099091,1,True
2023-08-09,0.5792763566760107,0.5793520474325007,0.013066432906794212,0,True
2023-08-10,0.5793520474325007,0.5768421718785312,-0.43322114163443226,1,True
2023-08-11,0.5768421718785312,0.5765908039316677,-0.04357655509908964,0,True
2023-08-12,0.5765908039316677,0.5765908039316677,0.0,0,False
2023-08-13,0.5765908039316677,0.5781071828006217,0.2629904706447084,1,True
2023-08-14,0.5781071828006217,0.5776398794219799,-0.08083334588196989,0,True
2023-08-15,0.5776398794219799,0.5776398794219799,0.0,0,False
2023-08-16,0.5776398794219799,0.5795754121567295,0.33507602291698024,6,True
2023-08-17,0.5795754121567295,0.5822017720985145,0.45315240893533115,4,True
2023-08-18,0.5822017720985145,0.5959949296960946,2.369137000023791,5,True
2023-08-19,0.5959949296960946,0.5959949296960946,0.0,0,False
2023-08-20,0.5959949296960946,0.5959949296960946,0.0,0,False
2023-08-21,0.5959949296960946,0.5959949296960946,0.0,0,False
2023-08-22,0.5959949296960946,0.5968285737674147,0.13987435627098588,1,True
2023-08-23,0.5968285737674147,0.5968285737674147,0.0,0,False
2023-08-24,0.5968285737674147,0.5968285737674147,0.0,0,False
2023-08-25,0.5968285737674147,0.5856850876618622,-1.867116722513884,4,True
2023-08-26,0.5856850876618622,0.5856850876618622,0.0,0,False
2023-08-27,0.5856850876618622,0.5856850876618622,0.0,0,False
2023-08-28,0.5856850876618622,0.5841270660179092,-0.26601695634301814,1,True
2023-08-29,0.5841270660179092,0.5874801606737874,0.5740351459378124,1,True
2023-08-30,0.5874801606737874,0.5849464768098659,-0.4312799024592695,1,True
2023-08-31,0.5849464768098659,0.5865692006268849,0.27741406801333746,1,True
2023-09-01,0.5865692006268849,0.5843970275819597,-0.37031829196005894,0,True
2023-09-02,0.5843970275819597,0.5827282160973076,-0.2855612547444042,1,True
2023-09-03,0.5827282160973076,0.5821973653285027,-0.09109748835574027,0,True
2023-09-04,0.5821973653285027,0.5808022436289091,-0.23963036981564656,2,True
2023-09-05,0.5808022436289091,0.5827999886211839,0.3439630294457263,0,True
2023-09-06,0.5827999886211839,0.5829613189605893,0.027681939354029517,2,True
2023-09-07,0.5829613189605893,0.5823399261045548,-0.1065924677717045,1,True
2023-09-08,0.5823399261045548,0.581708083867265,-0.10850058685075714,1,True
2023-09-09,0.581708083867265,0.581220816768162,-0.08376488355872347,2,True
2023-09-10,0.581220816768162,0.5780647111592343,-0.5430131746617328,3,True
2023-09-11,0.5780647111592343,0.5775101095542136,-0.09594109349947422,0,True
2023-09-12,0.5775101095542136,0.5775101095542136,0.0,0,False
2023-09-13,0.5775101095542136,0.5775101095542136,0.0,0,False
2023-09-14,0.5775101095542136,0.578059223794305,0.09508305240151227,2,True
2023-09-15,0.578059223794305,0.5852598587608986,1.2456569621585922,0,True
2023-09-16,0.5852598587608986,0.5832888662477583,-0.33677220189219925,2,True
2023-09-17,0.5832888662477583,0.5836446927703741,0.06100348270057232,1,True
2023-09-18,0.5836446927703741,0.5836446927703741,0.0,0,False
2023-09-19,0.5836446927703741,0.5836446927703741,0.0,0,False
2023-09-20,0.5836446927703741,0.5846543577662909,0.17299309124603202,1,True
2023-09-21,0.5846543577662909,0.5838911134662542,-0.13054624324578823,0,True
2023-09-22,0.5838911134662542,0.5899418379139794,1.036276166596406,1,True
2023-09-23,0.5899418379139794,0.5893453937590254,-0.10110219628819417,0,True
2023-09-24,0.5893453937590254,0.5875381332880178,-0.30665556906795954,1,True
2023-09-25,0.5875381332880178,0.5872012730570321,-0.05733419022534436,1,True
2023-09-26,0.5872012730570321,0.5872012730570321,0.0,0,False
2023-09-27,0.5872012730570321,0.5872012730570321,0.0,0,False
2023-09-28,0.5872012730570321,0.5872012730570321,0.0,0,False
2023-09-29,0.5872012730570321,0.5842735063838294,-0.4985967857256912,1,True
2023-09-30,0.5842735063838294,0.5842735063838294,0.0,0,False
2023-10-01,0.5842735063838294,0.5839020055202412,-0.06358338338622316,1,True
2023-10-02,0.5839020055202412,0.5854308552765429,0.26183327713347193,0,True
2023-10-03,0.5854308552765429,0.5853122141353201,-0.02026561124230941,3,True
2023-10-04,0.5853122141353201,0.5814274438960995,-0.6637090676400059,3,True
2023-10-05,0.5814274438960995,0.5778149509059773,-0.6213144955654504,0,True
2023-10-06,0.5778149509059773,0.5778149509059773,0.0,0,False
2023-10-07,0.5778149509059773,0.5762770397673042,-0.26615980362949543,1,True
2023-10-08,0.5762770397673042,0.5744614313894381,-0.3150582536828539,1,True
2023-10-09,0.5744614313894381,0.5733879878186814,-0.18686085994674695,1,True
2023-10-10,0.5733879878186814,0.57084319244799,-0.44381734964007435,1,True
2023-10-11,0.57084319244799,0.57084319244799,0.0,0,False
2023-10-12,0.57084319244799,0.57084319244799,0.0,0,False
2023-10-13,0.57084319244799,0.57084319244799,0.0,0,False
2023-10-14,0.57084319244799,0.57084319244799,0.0,0,False
2023-10-15,0.57084319244799,0.57084319244799,0.0,0,False
2023-10-16,0.57084319244799,0.57084319244799,0.0,0,False
2023-10-17,0.57084319244799,0.57084319244799,0.0,0,False
2023-10-18,0.57084319244799,0.5677782245197873,-0.5369194147799017,3,True
2023-10-19,0.5677782245197873,0.5621773855417728,-0.9864483589083761,3,True
2023-10-20,0.5621773855417728,0.5612136976514897,-0.1714206076351532,0,True
2023-10-21,0.5612136976514897,0.5617244782617541,0.09101356798699722,2,True
2023-10-22,0.5617244782617541,0.5617244782617541,0.0,0,False
2023-10-23,0.5617244782617541,0.5617244782617541,0.0,0,False
2023-10-24,0.5617244782617541,0.5606467760747983,-0.19185601280733433,1,True
2023-10-25,0.5606467760747983,0.5615103859541439,0.15403814240972924,3,True
2023-10-26,0.5615103859541439,0.5609011645828177,-0.10849690167191728,1,True
2023-10-27,0.5609011645828177,0.5562481062934352,-0.8295683060033032,5,True
2023-10-28,0.5562481062934352,0.5570279734399975,0.14020131264067537,1,True
2023-10-29,0.5570279734399975,0.5570279734399975,0.0,0,False
2023-10-30,0.5570279734399975,0.5570279734399975,0.0,0,False
2023-10-31,0.5570279734399975,0.5557299780142513,-0.2330215873594832,1,True
2023-11-01,0.5557299780142513,0.5545567634116882,-0.21111234753885544,1,True
2023-11-02,0.5545567634116882,0.5537488086161002,-0.1456937952784898,2,True
2023-11-03,0.5537488086161002,0.5523458310300299,-0.25335992858865897,0,True
2023-11-04,0.5523458310300299,0.5520388186540255,-0.055583360778133084,1,True
2023-11-05,0.5520388186540255,0.5517145499419185,-0.0587402010781779,1,True
2023-11-06,0.5517145499419185,0.5488881952771861,-0.5122856856013547,3,True
2023-11-07,0.5488881952771861,0.5436099932246936,-0.9616169737130309,2,True
2023-11-08,0.5436099932246936,0.5436099932246936,0.0,0,False
2023-11-09,0.5436099932246936,0.5436099932246936,0.0,0,False
2023-11-10,0.5436099932246936,0.5477147684927925,0.7550956235645057,5,True
2023-11-11,0.5477147684927925,0.5477147684927925,0.0,0,False
2023-11-12,0.5477147684927925,0.5483241727977453,0.11126307706283978,1,True
2023-11-13,0.5483241727977453,0.5462849616405264,-0.3718988252540578,1,True
2023-11-14,0.5462849616405264,0.5470813688776776,0.14578604447750276,2,True
2023-11-15,0.5470813688776776,0.5464293006069736,-0.11919036322542986,1,True
2023-11-16,0.5464293006069736,0.5465197030037153,0.01654420739176654,0,True
2023-11-17,0.5465197030037153,0.5458835687049998,-0.11639732203968522,2,True
2023-11-18,0.5458835687049998,0.541579924703657,-0.7883813047445787,3,True
2023-11-19,0.541579924703657,0.5397339975667412,-0.34084113031439545,2,True
2023-11-20,0.5397339975667412,0.5407012552334474,0.179210068490554,0,True
2023-11-21,0.5407012552334474,0.5445842578320156,0.7181419612003248,2,True
2023-11-22,0.5445842578320156,0.5388352644048199,-1.0556664730050014,4,True
2023-11-23,0.5388352644048199,0.537121453584198,-0.318058400003729,2,True
2023-11-24,0.537121453584198,0.5437360043078583,1.2314813864762852,1,True
2023-11-25,0.5437360043078583,0.5412885445794909,-0.450119121959347,2,True
2023-11-26,0.5412885445794909,0.5403464861118145,-0.17403997869719356,0,True
2023-11-27,0.5403464861118145,0.5403464861118145,0.0,0,False
2023-11-28,0.5403464861118145,0.540371591798426,0.004646220019344227,1,True
2023-11-29,0.540371591798426,0.5407415561052075,0.068464795780665,1,True
2023-11-30,0.5407415561052075,0.5405708034211569,-0.03157750354538802,0,True
2023-12-01,0.5405708034211569,0.5405708034211569,0.0,0,False
2023-12-02,0.5405708034211569,0.5405708034211569,0.0,0,False
2023-12-03,0.5405708034211569,0.5412256420210783,0.1211383588934023,2,True
2023-12-04,0.5412256420210783,0.5473664640056615,1.1346140145266803,4,True
2023-12-05,0.5473664640056615,0.5472385783977542,-0.023363800363529474,0,True
2023-12-06,0.5472385783977542,0.5459843142115425,-0.22919878746197053,1,True
2023-12-07,0.5459843142115425,0.545927407882837,-0.010422703953982815,2,True
2023-12-08,0.545927407882837,0.5444686754258931,-0.2672026419411777,0,True
2023-12-09,0.5444686754258931,0.5444686754258931,0.0,0,False
2023-12-10,0.5444686754258931,0.5424583400400087,-0.3692288421022316,1,True
2023-12-11,0.5424583400400087,0.5475346854719615,0.9358037396159036,5,True
2023-12-12,0.5475346854719615,0.5475259136652549,-0.0016020549819528718,0,True
2023-12-13,0.5475259136652549,0.5467077820420434,-0.1494233611218143,3,True
2023-12-14,0.5467077820420434,0.5491030157044025,0.43811954777970286,0,True
2023-12-15,0.5491030157044025,0.5491030157044025,0.0,0,False
2023-12-16,0.5491030157044025,0.554495297243032,0.9820163766014245,3,True
2023-12-17,0.554495297243032,0.5505670350411673,-0.7084392277799556,2,True
2023-12-18,0.5505670350411673,0.549535653634391,-0.18733075922338083,2,True
2023-12-19,0.549535653634391,0.5690172028748477,3.5450928636957535,1,True
2023-12-20,0.5690172028748477,0.5705109330731459,0.26251055165844583,0,True
2023-12-21,0.5705109330731459,0.5697591621259264,-0.13177152332033426,1,True
2023-12-22,0.5697591621259264,0.5687633787238314,-0.1747726878808642,0,True
2023-12-23,0.5687633787238314,0.5685578272001155,-0.03614007712260392,1,True
2023-12-24,0.5685578272001155,0.5679065257742106,-0.11455324238736075,1,True
2023-12-25,0.5679065257742106,0.5677939716167053,-0.01981913438164895,1,True
2023-12-26,0.5677939716167053,0.5677939716167053,0.0,0,False
2023-12-27,0.5677939716167053,0.5592258461422971,-1.5090201556757998,7,True
2023-12-28,0.5592258461422971,0.5579946220597398,-0.22016580439738753,1,True
2023-12-29,0.5579946220597398,0.5579946220597398,0.0,0,False
2023-12-30,0.5579946220597398,0.5574554638278275,-0.09662427030606713,1,True
2023-12-31,0.5574554638278275,0.5578175228630424,0.06494851314735595,0,True
