day,start_equity,end_equity,return_pct,entries,active
2024-01-02,1.0103467882541273,1.0162250244680167,0.581803820453275,1,True
2024-01-03,1.0162250244680167,0.9935379350259202,-2.232486791394739,5,True
2024-01-04,0.9935379350259202,1.0119148600901626,1.8496450328052028,15,True
2024-01-05,1.0119148600901626,0.9895624086503145,-2.208926098570829,6,True
2024-01-06,0.9895624086503145,0.9921864637694892,0.26517328227471104,8,True
2024-01-07,0.9921864637694892,0.9965511921197544,0.43991008844073143,9,True
2024-01-08,0.9965511921197544,0.9762094771735478,-2.041211240030527,5,True
2024-01-09,0.9762094771735478,0.9677667476458601,-0.8648481422380949,6,True
2024-01-10,0.9677667476458601,0.9476763401798938,-2.0759555455730716,8,True
2024-01-11,0.9476763401798938,0.9450644226827684,-0.2756128212116793,6,True
2024-01-12,0.9450644226827684,0.9484929459441335,0.3627819626975892,8,True
2024-01-13,0.9484929459441335,0.9624085317389716,1.467125913201861,12,True
2024-01-14,0.9624085317389716,0.960006671522917,-0.24956763545255223,1,True
2024-01-15,0.960006671522917,0.9661016904484123,0.6348933925455436,5,True
2024-01-16,0.9661016904484123,0.9559979381554967,-1.0458269965582967,2,True
2024-01-17,0.9559979381554967,0.9559979381554967,0.0,0,False
2024-01-18,0.9559979381554967,0.9527290453611995,-0.3419351301744644,2,True
2024-01-19,0.9527290453611995,0.9491417362509531,-0.3765298358135327,1,True
2024-01-20,0.9491417362509531,0.9749907639625891,2.7234107114220807,12,True
2024-01-21,0.9749907639625891,0.9643306486915552,-1.0933555132059625,3,True
2024-01-22,0.9643306486915552,0.9478009137769752,-1.7141148564559505,4,True
2024-01-23,0.9478009137769752,0.9281725032309852,-2.0709423530486992,10,True
2024-01-24,0.9281725032309852,0.9261472036239357,-0.2182029310283884,1,True
2024-01-25,0.9261472036239357,0.9190896200794728,-0.7620369112865788,4,True
2024-01-26,0.9190896200794728,0.919044287925679,-0.004932288734782464,1,True
2024-01-27,0.919044287925679,0.919044287925679,0.0,0,False
2024-01-28,0.919044287925679,0.917533828915135,-0.16435105798363603,2,True
2024-01-29,0.917533828915135,0.917533828915135,0.0,0,False
2024-01-30,0.917533828915135,0.917533828915135,0.0,0,False
2024-01-31,0.917533828915135,0.915425307839062,-0.22980308841212826,1,True
2024-02-01,0.915425307839062,0.915425307839062,0.0,0,False
2024-02-02,0.915425307839062,0.9152113366726521,-0.023373962307748908,3,True
2024-02-03,0.9152113366726521,0.9181836408330122,0.32476697362231466,1,True
2024-02-04,0.9181836408330122,0.9181623175084505,-0.0023223376690029163,1,True
2024-02-05,0.9181623175084505,0.9181623175084505,0.0,0,False
2024-02-06,0.9181623175084505,0.9140756761281942,-0.44508920724887213,2,True
2024-02-07,0.9140756761281942,0.9136934940371778,-0.04181077136142797,5,True
2024-02-08,0.9136934940371778,0.921233886060384,0.8252649353875485,1,True
2024-02-09,0.921233886060384,0.921233886060384,0.0,0,False
2024-02-10,0.921233886060384,0.9174244187075596,-0.41351793615792554,3,True
2024-02-11,0.9174244187075596,0.9174244187075596,0.0,0,False
2024-02-12,0.9174244187075596,0.9187428010957558,0.14370474137297418,3,True
2024-02-13,0.9187428010957558,0.9187428010957558,0.0,0,False
2024-02-14,0.9187428010957558,0.919705383329208,0.1047716762846207,2,True
2024-02-15,0.919705383329208,0.9318353343252318,1.318895291458988,7,True
2024-02-16,0.9318353343252318,0.9198198368870043,-1.2894442822269925,6,True
2024-02-17,0.9198198368870043,0.9124354426655729,-0.8028087594221578,6,True
2024-02-18,0.9124354426655729,0.9122273392481081,-0.022807467546070992,4,True
2024-02-19,0.9122273392481081,0.908583422355335,-0.3994527171019224,6,True
2024-02-20,0.908583422355335,0.9048658849417083,-0.40915752171546416,13,True
2024-02-21,0.9048658849417083,0.8979756338162407,-0.7614665598660975,10,True
2024-02-22,0.8979756338162407,0.9085829081639464,1.1812430035129884,5,True
2024-02-23,0.9085829081639464,0.9008518187067551,-0.8508953214642956,7,True
2024-02-24,0.9008518187067551,0.8934873952074095,-0.8174955465947598,10,True
2024-02-25,0.8934873952074095,0.885554600378633,-0.8878463055357444,9,True
2024-02-26,0.885554600378633,0.8834889037824938,-0.2332658647198005,11,True
2024-02-27,0.8834889037824938,0.8796197236512766,-0.4379432627452329,9,True
2024-02-28,0.8796197236512766,0.9000587469209399,2.3236203918690634,11,True
2024-02-29,0.9000587469209399,0.8846501829609925,-1.7119509157218271,20,True
2024-03-01,0.8846501829609925,0.8752136828617294,-1.0666928330561598,11,True
2024-03-02,0.8752136828617294,0.868130946483901,-0.8092579579731529,8,True
2024-03-03,0.868130946483901,0.868130946483901,0.0,0,False
2024-03-04,0.868130946483901,0.868130946483901,0.0,0,False
2024-03-05,0.868130946483901,0.868130946483901,0.0,0,False
2024-03-06,0.868130946483901,0.868130946483901,0.0,0,False
2024-03-07,0.868130946483901,0.868130946483901,0.0,0,False
2024-03-08,0.868130946483901,0.868130946483901,0.0,0,False
2024-03-09,0.868130946483901,0.868130946483901,0.0,0,False
2024-03-10,0.868130946483901,0.868130946483901,0.0,0,False
2024-03-11,0.868130946483901,0.868130946483901,0.0,0,False
2024-03-12,0.868130946483901,0.868130946483901,0.0,0,False
2024-03-13,0.868130946483901,0.868130946483901,0.0,0,False
2024-03-14,0.868130946483901,0.868130946483901,0.0,0,False
2024-03-15,0.868130946483901,0.868130946483901,0.0,0,False
2024-03-16,0.868130946483901,0.868130946483901,0.0,0,False
2024-03-17,0.868130946483901,0.868130946483901,0.0,0,False
2024-03-18,0.868130946483901,0.868130946483901,0.0,0,False
2024-03-19,0.868130946483901,0.868130946483901,0.0,0,False
2024-03-20,0.868130946483901,0.868130946483901,0.0,0,False
2024-03-21,0.868130946483901,0.868130946483901,0.0,0,False
2024-03-22,0.868130946483901,0.868130946483901,0.0,0,False
2024-03-23,0.868130946483901,0.868130946483901,0.0,0,False
2024-03-24,0.868130946483901,0.868130946483901,0.0,0,False
2024-03-25,0.868130946483901,0.868130946483901,0.0,0,False
2024-03-26,0.868130946483901,0.868130946483901,0.0,0,False
2024-03-27,0.868130946483901,0.868130946483901,0.0,0,False
2024-03-28,0.868130946483901,0.868130946483901,0.0,0,False
2024-03-29,0.868130946483901,0.868130946483901,0.0,0,False
2024-03-30,0.868130946483901,0.868130946483901,0.0,0,False
2024-03-31,0.868130946483901,0.868130946483901,0.0,0,False
2024-04-01,0.868130946483901,0.868130946483901,0.0,0,False
2024-04-02,0.868130946483901,0.868130946483901,0.0,0,False
2024-04-03,0.868130946483901,0.868130946483901,0.0,0,False
2024-04-04,0.868130946483901,0.868130946483901,0.0,0,False
2024-04-05,0.868130946483901,0.868130946483901,0.0,0,False
2024-04-06,0.868130946483901,0.868130946483901,0.0,0,False
2024-04-07,0.868130946483901,0.868130946483901,0.0,0,False
2024-04-08,0.868130946483901,0.868130946483901,0.0,0,False
2024-04-09,0.868130946483901,0.868130946483901,0.0,0,False
2024-04-10,0.868130946483901,0.868130946483901,0.0,0,False
2024-04-11,0.868130946483901,0.868130946483901,0.0,0,False
2024-04-12,0.868130946483901,0.868130946483901,0.0,0,False
2024-04-13,0.868130946483901,0.868130946483901,0.0,0,False
2024-04-14,0.868130946483901,0.868130946483901,0.0,0,False
2024-04-15,0.868130946483901,0.868130946483901,0.0,0,False
2024-04-16,0.868130946483901,0.868130946483901,0.0,0,False
2024-04-17,0.868130946483901,0.868130946483901,0.0,0,False
2024-04-18,0.868130946483901,0.868130946483901,0.0,0,False
2024-04-19,0.868130946483901,0.868130946483901,0.0,0,False
2024-04-20,0.868130946483901,0.868130946483901,0.0,0,False
2024-04-21,0.868130946483901,0.868130946483901,0.0,0,False
2024-04-22,0.868130946483901,0.868130946483901,0.0,0,False
2024-04-23,0.868130946483901,0.868130946483901,0.0,0,False
2024-04-24,0.868130946483901,0.868130946483901,0.0,0,False
2024-04-25,0.868130946483901,0.868130946483901,0.0,0,False
2024-04-26,0.868130946483901,0.868130946483901,0.0,0,False
2024-04-27,0.868130946483901,0.868130946483901,0.0,0,False
2024-04-28,0.868130946483901,0.868130946483901,0.0,0,False
2024-04-29,0.868130946483901,0.868130946483901,0.0,0,False
2024-04-30,0.868130946483901,0.868130946483901,0.0,0,False
2024-05-01,0.868130946483901,0.868130946483901,0.0,0,False
2024-05-02,0.868130946483901,0.868130946483901,0.0,0,False
2024-05-03,0.868130946483901,0.868130946483901,0.0,0,False
2024-05-04,0.868130946483901,0.868130946483901,0.0,0,False
2024-05-05,0.868130946483901,0.868130946483901,0.0,0,False
2024-05-06,0.868130946483901,0.868130946483901,0.0,0,False
2024-05-07,0.868130946483901,0.868130946483901,0.0,0,False
2024-05-08,0.868130946483901,0.868130946483901,0.0,0,False
2024-05-09,0.868130946483901,0.868130946483901,0.0,0,False
2024-05-10,0.868130946483901,0.868130946483901,0.0,0,False
2024-05-11,0.868130946483901,0.868130946483901,0.0,0,False
2024-05-12,0.868130946483901,0.868130946483901,0.0,0,False
2024-05-13,0.868130946483901,0.868130946483901,0.0,0,False
2024-05-14,0.868130946483901,0.868130946483901,0.0,0,False
2024-05-15,0.868130946483901,0.868130946483901,0.0,0,False
2024-05-16,0.868130946483901,0.868130946483901,0.0,0,False
2024-05-17,0.868130946483901,0.868130946483901,0.0,0,False
2024-05-18,0.868130946483901,0.868130946483901,0.0,0,False
2024-05-19,0.868130946483901,0.868130946483901,0.0,0,False
2024-05-20,0.868130946483901,0.868130946483901,0.0,0,False
2024-05-21,0.868130946483901,0.868130946483901,0.0,0,False
2024-05-22,0.868130946483901,0.868130946483901,0.0,0,False
2024-05-23,0.868130946483901,0.868130946483901,0.0,0,False
2024-05-24,0.868130946483901,0.868130946483901,0.0,0,False
2024-05-25,0.868130946483901,0.868130946483901,0.0,0,False
2024-05-26,0.868130946483901,0.868130946483901,0.0,0,False
2024-05-27,0.868130946483901,0.868130946483901,0.0,0,False
2024-05-28,0.868130946483901,0.868130946483901,0.0,0,False
2024-05-29,0.868130946483901,0.868130946483901,0.0,0,False
2024-05-30,0.868130946483901,0.868130946483901,0.0,0,False
2024-05-31,0.868130946483901,0.868130946483901,0.0,0,False
2024-06-01,0.868130946483901,0.868130946483901,0.0,0,False
2024-06-02,0.868130946483901,0.868130946483901,0.0,0,False
2024-06-03,0.868130946483901,0.868130946483901,0.0,0,False
2024-06-04,0.868130946483901,0.868130946483901,0.0,0,False
2024-06-05,0.868130946483901,0.868130946483901,0.0,0,False
2024-06-06,0.868130946483901,0.868130946483901,0.0,0,False
2024-06-07,0.868130946483901,0.868130946483901,0.0,0,False
2024-06-08,0.868130946483901,0.868130946483901,0.0,0,False
2024-06-09,0.868130946483901,0.868130946483901,0.0,0,False
2024-06-10,0.868130946483901,0.868130946483901,0.0,0,False
2024-06-11,0.868130946483901,0.868130946483901,0.0,0,False
2024-06-12,0.868130946483901,0.868130946483901,0.0,0,False
2024-06-13,0.868130946483901,0.868130946483901,0.0,0,False
2024-06-14,0.868130946483901,0.868130946483901,0.0,0,False
2024-06-15,0.868130946483901,0.868130946483901,0.0,0,False
2024-06-16,0.868130946483901,0.868130946483901,0.0,0,False
2024-06-17,0.868130946483901,0.868130946483901,0.0,0,False
2024-06-18,0.868130946483901,0.868130946483901,0.0,0,False
2024-06-19,0.868130946483901,0.868130946483901,0.0,0,False
2024-06-20,0.868130946483901,0.868130946483901,0.0,0,False
2024-06-21,0.868130946483901,0.868130946483901,0.0,0,False
2024-06-22,0.868130946483901,0.868130946483901,0.0,0,False
2024-06-23,0.868130946483901,0.868130946483901,0.0,0,False
2024-06-24,0.868130946483901,0.868130946483901,0.0,0,False
2024-06-25,0.868130946483901,0.868130946483901,0.0,0,False
2024-06-26,0.868130946483901,0.868130946483901,0.0,0,False
2024-06-27,0.868130946483901,0.868130946483901,0.0,0,False
2024-06-28,0.868130946483901,0.868130946483901,0.0,0,False
2024-06-29,0.868130946483901,0.868130946483901,0.0,0,False
2024-06-30,0.868130946483901,0.868130946483901,0.0,0,False
2024-07-01,0.868130946483901,0.868130946483901,0.0,0,False
2024-07-02,0.868130946483901,0.868130946483901,0.0,0,False
2024-07-03,0.868130946483901,0.868130946483901,0.0,0,False
2024-07-04,0.868130946483901,0.868130946483901,0.0,0,False
2024-07-05,0.868130946483901,0.868130946483901,0.0,0,False
2024-07-06,0.868130946483901,0.868130946483901,0.0,0,False
2024-07-07,0.868130946483901,0.868130946483901,0.0,0,False
2024-07-08,0.868130946483901,0.868130946483901,0.0,0,False
2024-07-09,0.868130946483901,0.868130946483901,0.0,0,False
2024-07-10,0.868130946483901,0.868130946483901,0.0,0,False
2024-07-11,0.868130946483901,0.868130946483901,0.0,0,False
2024-07-12,0.868130946483901,0.868130946483901,0.0,0,False
2024-07-13,0.868130946483901,0.868130946483901,0.0,0,False
2024-07-14,0.868130946483901,0.868130946483901,0.0,0,False
2024-07-15,0.868130946483901,0.868130946483901,0.0,0,False
2024-07-16,0.868130946483901,0.868130946483901,0.0,0,False
2024-07-17,0.868130946483901,0.868130946483901,0.0,0,False
2024-07-18,0.868130946483901,0.868130946483901,0.0,0,False
2024-07-19,0.868130946483901,0.868130946483901,0.0,0,False
2024-07-20,0.868130946483901,0.868130946483901,0.0,0,False
2024-07-21,0.868130946483901,0.868130946483901,0.0,0,False
2024-07-22,0.868130946483901,0.868130946483901,0.0,0,False
2024-07-23,0.868130946483901,0.868130946483901,0.0,0,False
2024-07-24,0.868130946483901,0.868130946483901,0.0,0,False
2024-07-25,0.868130946483901,0.868130946483901,0.0,0,False
2024-07-26,0.868130946483901,0.868130946483901,0.0,0,False
2024-07-27,0.868130946483901,0.868130946483901,0.0,0,False
2024-07-28,0.868130946483901,0.868130946483901,0.0,0,False
2024-07-29,0.868130946483901,0.868130946483901,0.0,0,False
2024-07-30,0.868130946483901,0.868130946483901,0.0,0,False
2024-07-31,0.868130946483901,0.868130946483901,0.0,0,False
2024-08-01,0.868130946483901,0.868130946483901,0.0,0,False
2024-08-02,0.868130946483901,0.868130946483901,0.0,0,False
2024-08-03,0.868130946483901,0.868130946483901,0.0,0,False
2024-08-04,0.868130946483901,0.868130946483901,0.0,0,False
2024-08-05,0.868130946483901,0.868130946483901,0.0,0,False
2024-08-06,0.868130946483901,0.868130946483901,0.0,0,False
2024-08-07,0.868130946483901,0.868130946483901,0.0,0,False
2024-08-08,0.868130946483901,0.868130946483901,0.0,0,False
2024-08-09,0.868130946483901,0.868130946483901,0.0,0,False
2024-08-10,0.868130946483901,0.868130946483901,0.0,0,False
2024-08-11,0.868130946483901,0.868130946483901,0.0,0,False
2024-08-12,0.868130946483901,0.868130946483901,0.0,0,False
2024-08-13,0.868130946483901,0.868130946483901,0.0,0,False
2024-08-14,0.868130946483901,0.868130946483901,0.0,0,False
2024-08-15,0.868130946483901,0.868130946483901,0.0,0,False
2024-08-16,0.868130946483901,0.868130946483901,0.0,0,False
2024-08-17,0.868130946483901,0.868130946483901,0.0,0,False
2024-08-18,0.868130946483901,0.868130946483901,0.0,0,False
2024-08-19,0.868130946483901,0.868130946483901,0.0,0,False
2024-08-20,0.868130946483901,0.868130946483901,0.0,0,False
2024-08-21,0.868130946483901,0.868130946483901,0.0,0,False
2024-08-22,0.868130946483901,0.868130946483901,0.0,0,False
2024-08-23,0.868130946483901,0.868130946483901,0.0,0,False
2024-08-24,0.868130946483901,0.868130946483901,0.0,0,False
2024-08-25,0.868130946483901,0.868130946483901,0.0,0,False
2024-08-26,0.868130946483901,0.868130946483901,0.0,0,False
2024-08-27,0.868130946483901,0.868130946483901,0.0,0,False
2024-08-28,0.868130946483901,0.868130946483901,0.0,0,False
2024-08-29,0.868130946483901,0.868130946483901,0.0,0,False
2024-08-30,0.868130946483901,0.868130946483901,0.0,0,False
2024-08-31,0.868130946483901,0.868130946483901,0.0,0,False
2024-09-01,0.868130946483901,0.868130946483901,0.0,0,False
2024-09-02,0.868130946483901,0.868130946483901,0.0,0,False
2024-09-03,0.868130946483901,0.868130946483901,0.0,0,False
2024-09-04,0.868130946483901,0.868130946483901,0.0,0,False
2024-09-05,0.868130946483901,0.868130946483901,0.0,0,False
2024-09-06,0.868130946483901,0.868130946483901,0.0,0,False
2024-09-07,0.868130946483901,0.868130946483901,0.0,0,False
2024-09-08,0.868130946483901,0.868130946483901,0.0,0,False
2024-09-09,0.868130946483901,0.868130946483901,0.0,0,False
2024-09-10,0.868130946483901,0.868130946483901,0.0,0,False
2024-09-11,0.868130946483901,0.868130946483901,0.0,0,False
2024-09-12,0.868130946483901,0.868130946483901,0.0,0,False
2024-09-13,0.868130946483901,0.868130946483901,0.0,0,False
2024-09-14,0.868130946483901,0.868130946483901,0.0,0,False
2024-09-15,0.868130946483901,0.868130946483901,0.0,0,False
2024-09-16,0.868130946483901,0.868130946483901,0.0,0,False
2024-09-17,0.868130946483901,0.868130946483901,0.0,0,False
2024-09-18,0.868130946483901,0.868130946483901,0.0,0,False
2024-09-19,0.868130946483901,0.868130946483901,0.0,0,False
2024-09-20,0.868130946483901,0.868130946483901,0.0,0,False
2024-09-21,0.868130946483901,0.868130946483901,0.0,0,False
2024-09-22,0.868130946483901,0.868130946483901,0.0,0,False
2024-09-23,0.868130946483901,0.868130946483901,0.0,0,False
2024-09-24,0.868130946483901,0.868130946483901,0.0,0,False
2024-09-25,0.868130946483901,0.868130946483901,0.0,0,False
2024-09-26,0.868130946483901,0.868130946483901,0.0,0,False
2024-09-27,0.868130946483901,0.868130946483901,0.0,0,False
2024-09-28,0.868130946483901,0.868130946483901,0.0,0,False
2024-09-29,0.868130946483901,0.868130946483901,0.0,0,False
2024-09-30,0.868130946483901,0.868130946483901,0.0,0,False
2024-10-01,0.868130946483901,0.868130946483901,0.0,0,False
2024-10-02,0.868130946483901,0.868130946483901,0.0,0,False
2024-10-03,0.868130946483901,0.868130946483901,0.0,0,False
2024-10-04,0.868130946483901,0.868130946483901,0.0,0,False
2024-10-05,0.868130946483901,0.868130946483901,0.0,0,False
2024-10-06,0.868130946483901,0.868130946483901,0.0,0,False
2024-10-07,0.868130946483901,0.868130946483901,0.0,0,False
2024-10-08,0.868130946483901,0.868130946483901,0.0,0,False
2024-10-09,0.868130946483901,0.868130946483901,0.0,0,False
2024-10-10,0.868130946483901,0.868130946483901,0.0,0,False
2024-10-11,0.868130946483901,0.868130946483901,0.0,0,False
2024-10-12,0.868130946483901,0.868130946483901,0.0,0,False
2024-10-13,0.868130946483901,0.868130946483901,0.0,0,False
2024-10-14,0.868130946483901,0.868130946483901,0.0,0,False
2024-10-15,0.868130946483901,0.868130946483901,0.0,0,False
2024-10-16,0.868130946483901,0.868130946483901,0.0,0,False
2024-10-17,0.868130946483901,0.868130946483901,0.0,0,False
2024-10-18,0.868130946483901,0.868130946483901,0.0,0,False
2024-10-19,0.868130946483901,0.868130946483901,0.0,0,False
2024-10-20,0.868130946483901,0.868130946483901,0.0,0,False
2024-10-21,0.868130946483901,0.868130946483901,0.0,0,False
2024-10-22,0.868130946483901,0.868130946483901,0.0,0,False
2024-10-23,0.868130946483901,0.868130946483901,0.0,0,False
2024-10-24,0.868130946483901,0.868130946483901,0.0,0,False
2024-10-25,0.868130946483901,0.868130946483901,0.0,0,False
2024-10-26,0.868130946483901,0.868130946483901,0.0,0,False
2024-10-27,0.868130946483901,0.868130946483901,0.0,0,False
2024-10-28,0.868130946483901,0.868130946483901,0.0,0,False
2024-10-29,0.868130946483901,0.868130946483901,0.0,0,False
2024-10-30,0.868130946483901,0.868130946483901,0.0,0,False
2024-10-31,0.868130946483901,0.868130946483901,0.0,0,False
2024-11-01,0.868130946483901,0.868130946483901,0.0,0,False
2024-11-02,0.868130946483901,0.868130946483901,0.0,0,False
2024-11-03,0.868130946483901,0.868130946483901,0.0,0,False
2024-11-04,0.868130946483901,0.868130946483901,0.0,0,False
2024-11-05,0.868130946483901,0.868130946483901,0.0,0,False
2024-11-06,0.868130946483901,0.868130946483901,0.0,0,False
2024-11-07,0.868130946483901,0.868130946483901,0.0,0,False
2024-11-08,0.868130946483901,0.868130946483901,0.0,0,False
2024-11-09,0.868130946483901,0.868130946483901,0.0,0,False
2024-11-10,0.868130946483901,0.868130946483901,0.0,0,False
2024-11-11,0.868130946483901,0.868130946483901,0.0,0,False
2024-11-12,0.868130946483901,0.868130946483901,0.0,0,False
2024-11-13,0.868130946483901,0.868130946483901,0.0,0,False
2024-11-14,0.868130946483901,0.868130946483901,0.0,0,False
2024-11-15,0.868130946483901,0.868130946483901,0.0,0,False
2024-11-16,0.868130946483901,0.868130946483901,0.0,0,False
2024-11-17,0.868130946483901,0.868130946483901,0.0,0,False
2024-11-18,0.868130946483901,0.868130946483901,0.0,0,False
2024-11-19,0.868130946483901,0.868130946483901,0.0,0,False
2024-11-20,0.868130946483901,0.868130946483901,0.0,0,False
2024-11-21,0.868130946483901,0.868130946483901,0.0,0,False
2024-11-22,0.868130946483901,0.868130946483901,0.0,0,False
2024-11-23,0.868130946483901,0.868130946483901,0.0,0,False
2024-11-24,0.868130946483901,0.868130946483901,0.0,0,False
2024-11-25,0.868130946483901,0.868130946483901,0.0,0,False
2024-11-26,0.868130946483901,0.868130946483901,0.0,0,False
2024-11-27,0.868130946483901,0.868130946483901,0.0,0,False
2024-11-28,0.868130946483901,0.868130946483901,0.0,0,False
2024-11-29,0.868130946483901,0.868130946483901,0.0,0,False
2024-11-30,0.868130946483901,0.868130946483901,0.0,0,False
2024-12-01,0.868130946483901,0.868130946483901,0.0,0,False
2024-12-02,0.868130946483901,0.868130946483901,0.0,0,False
2024-12-03,0.868130946483901,0.868130946483901,0.0,0,False
2024-12-04,0.868130946483901,0.868130946483901,0.0,0,False
2024-12-05,0.868130946483901,0.868130946483901,0.0,0,False
2024-12-06,0.868130946483901,0.868130946483901,0.0,0,False
2024-12-07,0.868130946483901,0.868130946483901,0.0,0,False
2024-12-08,0.868130946483901,0.868130946483901,0.0,0,False
2024-12-09,0.868130946483901,0.868130946483901,0.0,0,False
2024-12-10,0.868130946483901,0.868130946483901,0.0,0,False
2024-12-11,0.868130946483901,0.868130946483901,0.0,0,False
2024-12-12,0.868130946483901,0.868130946483901,0.0,0,False
2024-12-13,0.868130946483901,0.868130946483901,0.0,0,False
2024-12-14,0.868130946483901,0.868130946483901,0.0,0,False
2024-12-15,0.868130946483901,0.868130946483901,0.0,0,False
2024-12-16,0.868130946483901,0.868130946483901,0.0,0,False
2024-12-17,0.868130946483901,0.868130946483901,0.0,0,False
2024-12-18,0.868130946483901,0.868130946483901,0.0,0,False
2024-12-19,0.868130946483901,0.868130946483901,0.0,0,False
2024-12-20,0.868130946483901,0.868130946483901,0.0,0,False
2024-12-21,0.868130946483901,0.868130946483901,0.0,0,False
2024-12-22,0.868130946483901,0.868130946483901,0.0,0,False
2024-12-23,0.868130946483901,0.868130946483901,0.0,0,False
2024-12-24,0.868130946483901,0.868130946483901,0.0,0,False
2024-12-25,0.868130946483901,0.868130946483901,0.0,0,False
2024-12-26,0.868130946483901,0.868130946483901,0.0,0,False
2024-12-27,0.868130946483901,0.868130946483901,0.0,0,False
2024-12-28,0.868130946483901,0.868130946483901,0.0,0,False
2024-12-29,0.868130946483901,0.868130946483901,0.0,0,False
2024-12-30,0.868130946483901,0.868130946483901,0.0,0,False
2024-12-31,0.868130946483901,0.868130946483901,0.0,0,False
