day,start_equity,end_equity,return_pct,entries,active
2024-01-02,1.0111757462734035,1.017450248842126,0.6205155327198675,1,True
2024-01-03,1.017450248842126,0.9948177279341529,-2.2244351440013133,5,True
2024-01-04,0.9948177279341529,1.01629733712084,2.159150222552997,15,True
2024-01-05,1.01629733712084,0.9941161419648672,-2.1825497662733007,6,True
2024-01-06,0.9941161419648672,0.9981743014824026,0.4082178476163323,8,True
2024-01-07,0.9981743014824026,1.0041425408829907,0.5979155535986713,9,True
2024-01-08,1.0041425408829907,0.9837757012825581,-2.0282817200955483,5,True
2024-01-09,0.9837757012825581,0.9759247415559937,-0.7980436715736117,6,True
2024-01-10,0.9759247415559937,0.9563374739119175,-2.007046938152912,8,True
2024-01-11,0.9563374739119175,0.9546835970718868,-0.1729386210565953,6,True
2024-01-12,0.9546835970718868,0.9594275069739548,0.49690912430235823,8,True
2024-01-13,0.9594275069739548,0.97669130311325,1.7993851556065366,12,True
2024-01-14,0.97669130311325,0.9743307584367231,-0.24168789759901887,1,True
2024-01-15,0.9743307584367231,0.9815128740823797,0.7371332151291377,5,True
2024-01-16,0.9815128740823797,0.9712793878390322,-1.0426237407140326,2,True
2024-01-17,0.9712793878390322,0.9712793878390322,0.0,0,False
2024-01-18,0.9712793878390322,0.9681887399079122,-0.31820380107070445,2,True
2024-01-19,0.9681887399079122,0.9645881820079149,-0.37188595070211106,1,True
2024-01-20,0.9645881820079149,0.9949676743703976,3.149477977145021,12,True
2024-01-21,0.9949676743703976,0.9842205112635282,-1.0801519872160714,3,True
2024-01-22,0.9842205112635282,0.9674572056554314,-1.7032062852029295,4,True
2024-01-23,0.9674572056554314,0.9463424583355948,-2.182499359807011,11,True
2024-01-24,0.9463424583355948,0.944400107630445,-0.2052481834711295,1,True
2024-01-25,0.944400107630445,0.9376576271316199,-0.7139432158412617,4,True
2024-01-26,0.9376576271316199,0.9404490264158974,0.2976992031533676,1,True
2024-01-27,0.9404490264158974,0.9404490264158974,0.0,0,False
2024-01-28,0.9404490264158974,0.9376534671349529,-0.2972579270562492,2,True
2024-01-29,0.9376534671349529,0.9376534671349529,0.0,0,False
2024-01-30,0.9376534671349529,0.9376534671349529,0.0,0,False
2024-01-31,0.9376534671349529,0.9333627099629458,-0.4576058557238305,1,True
2024-02-01,0.9333627099629458,0.9333627099629458,0.0,0,False
2024-02-02,0.9333627099629458,0.9335389993428765,0.018887553364721477,3,True
2024-02-03,0.9335389993428765,0.9402209802492029,0.7157688014137298,1,True
2024-02-04,0.9402209802492029,0.9404131665217261,0.020440542868160883,1,True
2024-02-05,0.9404131665217261,0.9404131665217261,0.0,0,False
2024-02-06,0.9404131665217261,0.9320886210891135,-0.8852008594692817,2,True
2024-02-07,0.9320886210891135,0.9326413192743462,0.05929674204014912,5,True
2024-02-08,0.9326413192743462,0.9491563753852158,1.7707832335499996,1,True
2024-02-09,0.9491563753852158,0.9491563753852158,0.0,0,False
2024-02-10,0.9491563753852158,0.9415213446402452,-0.8044017764587963,3,True
2024-02-11,0.9415213446402452,0.9415213446402452,0.0,0,False
2024-02-12,0.9415213446402452,0.9448575957002986,0.35434683228856567,3,True
2024-02-13,0.9448575957002986,0.9448575957002986,0.0,0,False
2024-02-14,0.9448575957002986,0.9474018210608123,0.26927077393370524,2,True
2024-02-15,0.9474018210608123,0.9741497532357554,2.8232933038901287,7,True
2024-02-16,0.9741497532357554,0.9541264797103945,-2.0554615405743437,3,True
2024-02-17,0.9541264797103945,0.9404586418908192,-1.4324974843716642,6,True
2024-02-18,0.9404586418908192,0.9407616278812936,0.032216833040665804,4,True
2024-02-19,0.9407616278812936,0.9339528172932772,-0.7237551347997306,6,True
2024-02-20,0.9339528172932772,0.928899059612911,-0.5411148814789879,13,True
2024-02-21,0.928899059612911,0.9159859510238676,-1.3901519713481525,10,True
2024-02-22,0.9159859510238676,0.9276405290903843,1.2723533645346397,5,True
2024-02-23,0.9276405290903843,0.9201973328732747,-0.8023793682676028,7,True
2024-02-24,0.9201973328732747,0.9131765924952213,-0.7629603050610223,10,True
2024-02-25,0.9131765924952213,0.9054579685632121,-0.8452498668322539,9,True
2024-02-26,0.9054579685632121,0.9040603522523154,-0.1543546315147526,11,True
2024-02-27,0.9040603522523154,0.9005500302459347,-0.38828403409520984,9,True
2024-02-28,0.9005500302459347,0.9232878605628533,2.524882522152483,11,True
2024-02-29,0.9232878605628533,0.9083577351513504,-1.6170607292942396,20,True
2024-03-01,0.9083577351513504,0.899202410518933,-1.0078985710285093,11,True
2024-03-02,0.899202410518933,0.8871351625229745,-1.3419946226561397,17,True
2024-03-03,0.8871351625229745,0.9071711950304897,2.258509565840394,17,True
2024-03-04,0.9071711950304897,0.9193691819783315,1.3446179744972975,4,True
2024-03-05,0.9193691819783315,0.929986714526514,1.1548714875710075,22,True
2024-03-06,0.929986714526514,0.9033994182907563,-2.8588898981523836,11,True
2024-03-07,0.9033994182907563,0.9012634667510357,-0.23643490315300442,11,True
2024-03-08,0.9012634667510357,0.9012656905614495,0.00024674365439736334,9,True
2024-03-09,0.9012656905614495,0.903471249390333,0.24471793966878153,13,True
2024-03-10,0.903471249390333,0.9134162292706781,1.1007522250493285,13,True
2024-03-11,0.9134162292706781,0.9200747488007232,0.7289688223912627,13,True
2024-03-12,0.9200747488007232,0.924208243732502,0.44925642586830516,11,True
2024-03-13,0.924208243732502,0.9218934095051805,-0.25046673658447594,8,True
2024-03-14,0.9218934095051805,0.9285435482016352,0.7213565720167292,6,True
2024-03-15,0.9285435482016352,0.9090527560831814,-2.0990714066349225,17,True
2024-03-16,0.9090527560831814,0.9077870215333284,-0.13923664401026548,4,True
2024-03-17,0.9077870215333284,0.9000057652119783,-0.8571676105488812,9,True
2024-03-18,0.9000057652119783,0.90044995628619,0.049354247648292215,5,True
2024-03-19,0.90044995628619,0.8820595080632657,-2.0423620540528042,15,True
2024-03-20,0.8820595080632657,0.8726374769194162,-1.0681854294091186,8,True
2024-03-21,0.8726374769194162,0.8697224890351904,-0.33404339847014075,6,True
2024-03-22,0.8697224890351904,0.8685917096611322,-0.13001611299170435,1,True
2024-03-23,0.8685917096611322,0.8685917096611322,0.0,0,False
2024-03-24,0.8685917096611322,0.8685917096611322,0.0,0,False
2024-03-25,0.8685917096611322,0.8685917096611322,0.0,0,False
2024-03-26,0.8685917096611322,0.8685917096611322,0.0,0,False
2024-03-27,0.8685917096611322,0.8685917096611322,0.0,0,False
2024-03-28,0.8685917096611322,0.8685917096611322,0.0,0,False
2024-03-29,0.8685917096611322,0.8685917096611322,0.0,0,False
2024-03-30,0.8685917096611322,0.8685917096611322,0.0,0,False
2024-03-31,0.8685917096611322,0.8685917096611322,0.0,0,False
2024-04-01,0.8685917096611322,0.8685917096611322,0.0,0,False
2024-04-02,0.8685917096611322,0.8685917096611322,0.0,0,False
2024-04-03,0.8685917096611322,0.8685917096611322,0.0,0,False
2024-04-04,0.8685917096611322,0.8685917096611322,0.0,0,False
2024-04-05,0.8685917096611322,0.8685917096611322,0.0,0,False
2024-04-06,0.8685917096611322,0.8685917096611322,0.0,0,False
2024-04-07,0.8685917096611322,0.8685917096611322,0.0,0,False
2024-04-08,0.8685917096611322,0.8685917096611322,0.0,0,False
2024-04-09,0.8685917096611322,0.8685917096611322,0.0,0,False
2024-04-10,0.8685917096611322,0.8685917096611322,0.0,0,False
2024-04-11,0.8685917096611322,0.8685917096611322,0.0,0,False
2024-04-12,0.8685917096611322,0.8685917096611322,0.0,0,False
2024-04-13,0.8685917096611322,0.8685917096611322,0.0,0,False
2024-04-14,0.8685917096611322,0.8685917096611322,0.0,0,False
2024-04-15,0.8685917096611322,0.8685917096611322,0.0,0,False
2024-04-16,0.8685917096611322,0.8685917096611322,0.0,0,False
2024-04-17,0.8685917096611322,0.8685917096611322,0.0,0,False
2024-04-18,0.8685917096611322,0.8685917096611322,0.0,0,False
2024-04-19,0.8685917096611322,0.8685917096611322,0.0,0,False
2024-04-20,0.8685917096611322,0.8685917096611322,0.0,0,False
2024-04-21,0.8685917096611322,0.8685917096611322,0.0,0,False
2024-04-22,0.8685917096611322,0.8685917096611322,0.0,0,False
2024-04-23,0.8685917096611322,0.8685917096611322,0.0,0,False
2024-04-24,0.8685917096611322,0.8685917096611322,0.0,0,False
2024-04-25,0.8685917096611322,0.8685917096611322,0.0,0,False
2024-04-26,0.8685917096611322,0.8685917096611322,0.0,0,False
2024-04-27,0.8685917096611322,0.8685917096611322,0.0,0,False
2024-04-28,0.8685917096611322,0.8685917096611322,0.0,0,False
2024-04-29,0.8685917096611322,0.8685917096611322,0.0,0,False
2024-04-30,0.8685917096611322,0.8685917096611322,0.0,0,False
2024-05-01,0.8685917096611322,0.8685917096611322,0.0,0,False
2024-05-02,0.8685917096611322,0.8685917096611322,0.0,0,False
2024-05-03,0.8685917096611322,0.8685917096611322,0.0,0,False
2024-05-04,0.8685917096611322,0.8685917096611322,0.0,0,False
2024-05-05,0.8685917096611322,0.8685917096611322,0.0,0,False
2024-05-06,0.8685917096611322,0.8685917096611322,0.0,0,False
2024-05-07,0.8685917096611322,0.8685917096611322,0.0,0,False
2024-05-08,0.8685917096611322,0.8685917096611322,0.0,0,False
2024-05-09,0.8685917096611322,0.8685917096611322,0.0,0,False
2024-05-10,0.8685917096611322,0.8685917096611322,0.0,0,False
2024-05-11,0.8685917096611322,0.8685917096611322,0.0,0,False
2024-05-12,0.8685917096611322,0.8685917096611322,0.0,0,False
2024-05-13,0.8685917096611322,0.8685917096611322,0.0,0,False
2024-05-14,0.8685917096611322,0.8685917096611322,0.0,0,False
2024-05-15,0.8685917096611322,0.8685917096611322,0.0,0,False
2024-05-16,0.8685917096611322,0.8685917096611322,0.0,0,False
2024-05-17,0.8685917096611322,0.8685917096611322,0.0,0,False
2024-05-18,0.8685917096611322,0.8685917096611322,0.0,0,False
2024-05-19,0.8685917096611322,0.8685917096611322,0.0,0,False
2024-05-20,0.8685917096611322,0.8685917096611322,0.0,0,False
2024-05-21,0.8685917096611322,0.8685917096611322,0.0,0,False
2024-05-22,0.8685917096611322,0.8685917096611322,0.0,0,False
2024-05-23,0.8685917096611322,0.8685917096611322,0.0,0,False
2024-05-24,0.8685917096611322,0.8685917096611322,0.0,0,False
2024-05-25,0.8685917096611322,0.8685917096611322,0.0,0,False
2024-05-26,0.8685917096611322,0.8685917096611322,0.0,0,False
2024-05-27,0.8685917096611322,0.8685917096611322,0.0,0,False
2024-05-28,0.8685917096611322,0.8685917096611322,0.0,0,False
2024-05-29,0.8685917096611322,0.8685917096611322,0.0,0,False
2024-05-30,0.8685917096611322,0.8685917096611322,0.0,0,False
2024-05-31,0.8685917096611322,0.8685917096611322,0.0,0,False
2024-06-01,0.8685917096611322,0.8685917096611322,0.0,0,False
2024-06-02,0.8685917096611322,0.8685917096611322,0.0,0,False
2024-06-03,0.8685917096611322,0.8685917096611322,0.0,0,False
2024-06-04,0.8685917096611322,0.8685917096611322,0.0,0,False
2024-06-05,0.8685917096611322,0.8685917096611322,0.0,0,False
2024-06-06,0.8685917096611322,0.8685917096611322,0.0,0,False
2024-06-07,0.8685917096611322,0.8685917096611322,0.0,0,False
2024-06-08,0.8685917096611322,0.8685917096611322,0.0,0,False
2024-06-09,0.8685917096611322,0.8685917096611322,0.0,0,False
2024-06-10,0.8685917096611322,0.8685917096611322,0.0,0,False
2024-06-11,0.8685917096611322,0.8685917096611322,0.0,0,False
2024-06-12,0.8685917096611322,0.8685917096611322,0.0,0,False
2024-06-13,0.8685917096611322,0.8685917096611322,0.0,0,False
2024-06-14,0.8685917096611322,0.8685917096611322,0.0,0,False
2024-06-15,0.8685917096611322,0.8685917096611322,0.0,0,False
2024-06-16,0.8685917096611322,0.8685917096611322,0.0,0,False
2024-06-17,0.8685917096611322,0.8685917096611322,0.0,0,False
2024-06-18,0.8685917096611322,0.8685917096611322,0.0,0,False
2024-06-19,0.8685917096611322,0.8685917096611322,0.0,0,False
2024-06-20,0.8685917096611322,0.8685917096611322,0.0,0,False
2024-06-21,0.8685917096611322,0.8685917096611322,0.0,0,False
2024-06-22,0.8685917096611322,0.8685917096611322,0.0,0,False
2024-06-23,0.8685917096611322,0.8685917096611322,0.0,0,False
2024-06-24,0.8685917096611322,0.8685917096611322,0.0,0,False
2024-06-25,0.8685917096611322,0.8685917096611322,0.0,0,False
2024-06-26,0.8685917096611322,0.8685917096611322,0.0,0,False
2024-06-27,0.8685917096611322,0.8685917096611322,0.0,0,False
2024-06-28,0.8685917096611322,0.8685917096611322,0.0,0,False
2024-06-29,0.8685917096611322,0.8685917096611322,0.0,0,False
2024-06-30,0.8685917096611322,0.8685917096611322,0.0,0,False
2024-07-01,0.8685917096611322,0.8685917096611322,0.0,0,False
2024-07-02,0.8685917096611322,0.8685917096611322,0.0,0,False
2024-07-03,0.8685917096611322,0.8685917096611322,0.0,0,False
2024-07-04,0.8685917096611322,0.8685917096611322,0.0,0,False
2024-07-05,0.8685917096611322,0.8685917096611322,0.0,0,False
2024-07-06,0.8685917096611322,0.8685917096611322,0.0,0,False
2024-07-07,0.8685917096611322,0.8685917096611322,0.0,0,False
2024-07-08,0.8685917096611322,0.8685917096611322,0.0,0,False
2024-07-09,0.8685917096611322,0.8685917096611322,0.0,0,False
2024-07-10,0.8685917096611322,0.8685917096611322,0.0,0,False
2024-07-11,0.8685917096611322,0.8685917096611322,0.0,0,False
2024-07-12,0.8685917096611322,0.8685917096611322,0.0,0,False
2024-07-13,0.8685917096611322,0.8685917096611322,0.0,0,False
2024-07-14,0.8685917096611322,0.8685917096611322,0.0,0,False
2024-07-15,0.8685917096611322,0.8685917096611322,0.0,0,False
2024-07-16,0.8685917096611322,0.8685917096611322,0.0,0,False
2024-07-17,0.8685917096611322,0.8685917096611322,0.0,0,False
2024-07-18,0.8685917096611322,0.8685917096611322,0.0,0,False
2024-07-19,0.8685917096611322,0.8685917096611322,0.0,0,False
2024-07-20,0.8685917096611322,0.8685917096611322,0.0,0,False
2024-07-21,0.8685917096611322,0.8685917096611322,0.0,0,False
2024-07-22,0.8685917096611322,0.8685917096611322,0.0,0,False
2024-07-23,0.8685917096611322,0.8685917096611322,0.0,0,False
2024-07-24,0.8685917096611322,0.8685917096611322,0.0,0,False
2024-07-25,0.8685917096611322,0.8685917096611322,0.0,0,False
2024-07-26,0.8685917096611322,0.8685917096611322,0.0,0,False
2024-07-27,0.8685917096611322,0.8685917096611322,0.0,0,False
2024-07-28,0.8685917096611322,0.8685917096611322,0.0,0,False
2024-07-29,0.8685917096611322,0.8685917096611322,0.0,0,False
2024-07-30,0.8685917096611322,0.8685917096611322,0.0,0,False
2024-07-31,0.8685917096611322,0.8685917096611322,0.0,0,False
2024-08-01,0.8685917096611322,0.8685917096611322,0.0,0,False
2024-08-02,0.8685917096611322,0.8685917096611322,0.0,0,False
2024-08-03,0.8685917096611322,0.8685917096611322,0.0,0,False
2024-08-04,0.8685917096611322,0.8685917096611322,0.0,0,False
2024-08-05,0.8685917096611322,0.8685917096611322,0.0,0,False
2024-08-06,0.8685917096611322,0.8685917096611322,0.0,0,False
2024-08-07,0.8685917096611322,0.8685917096611322,0.0,0,False
2024-08-08,0.8685917096611322,0.8685917096611322,0.0,0,False
2024-08-09,0.8685917096611322,0.8685917096611322,0.0,0,False
2024-08-10,0.8685917096611322,0.8685917096611322,0.0,0,False
2024-08-11,0.8685917096611322,0.8685917096611322,0.0,0,False
2024-08-12,0.8685917096611322,0.8685917096611322,0.0,0,False
2024-08-13,0.8685917096611322,0.8685917096611322,0.0,0,False
2024-08-14,0.8685917096611322,0.8685917096611322,0.0,0,False
2024-08-15,0.8685917096611322,0.8685917096611322,0.0,0,False
2024-08-16,0.8685917096611322,0.8685917096611322,0.0,0,False
2024-08-17,0.8685917096611322,0.8685917096611322,0.0,0,False
2024-08-18,0.8685917096611322,0.8685917096611322,0.0,0,False
2024-08-19,0.8685917096611322,0.8685917096611322,0.0,0,False
2024-08-20,0.8685917096611322,0.8685917096611322,0.0,0,False
2024-08-21,0.8685917096611322,0.8685917096611322,0.0,0,False
2024-08-22,0.8685917096611322,0.8685917096611322,0.0,0,False
2024-08-23,0.8685917096611322,0.8685917096611322,0.0,0,False
2024-08-24,0.8685917096611322,0.8685917096611322,0.0,0,False
2024-08-25,0.8685917096611322,0.8685917096611322,0.0,0,False
2024-08-26,0.8685917096611322,0.8685917096611322,0.0,0,False
2024-08-27,0.8685917096611322,0.8685917096611322,0.0,0,False
2024-08-28,0.8685917096611322,0.8685917096611322,0.0,0,False
2024-08-29,0.8685917096611322,0.8685917096611322,0.0,0,False
2024-08-30,0.8685917096611322,0.8685917096611322,0.0,0,False
2024-08-31,0.8685917096611322,0.8685917096611322,0.0,0,False
2024-09-01,0.8685917096611322,0.8685917096611322,0.0,0,False
2024-09-02,0.8685917096611322,0.8685917096611322,0.0,0,False
2024-09-03,0.8685917096611322,0.8685917096611322,0.0,0,False
2024-09-04,0.8685917096611322,0.8685917096611322,0.0,0,False
2024-09-05,0.8685917096611322,0.8685917096611322,0.0,0,False
2024-09-06,0.8685917096611322,0.8685917096611322,0.0,0,False
2024-09-07,0.8685917096611322,0.8685917096611322,0.0,0,False
2024-09-08,0.8685917096611322,0.8685917096611322,0.0,0,False
2024-09-09,0.8685917096611322,0.8685917096611322,0.0,0,False
2024-09-10,0.8685917096611322,0.8685917096611322,0.0,0,False
2024-09-11,0.8685917096611322,0.8685917096611322,0.0,0,False
2024-09-12,0.8685917096611322,0.8685917096611322,0.0,0,False
2024-09-13,0.8685917096611322,0.8685917096611322,0.0,0,False
2024-09-14,0.8685917096611322,0.8685917096611322,0.0,0,False
2024-09-15,0.8685917096611322,0.8685917096611322,0.0,0,False
2024-09-16,0.8685917096611322,0.8685917096611322,0.0,0,False
2024-09-17,0.8685917096611322,0.8685917096611322,0.0,0,False
2024-09-18,0.8685917096611322,0.8685917096611322,0.0,0,False
2024-09-19,0.8685917096611322,0.8685917096611322,0.0,0,False
2024-09-20,0.8685917096611322,0.8685917096611322,0.0,0,False
2024-09-21,0.8685917096611322,0.8685917096611322,0.0,0,False
2024-09-22,0.8685917096611322,0.8685917096611322,0.0,0,False
2024-09-23,0.8685917096611322,0.8685917096611322,0.0,0,False
2024-09-24,0.8685917096611322,0.8685917096611322,0.0,0,False
2024-09-25,0.8685917096611322,0.8685917096611322,0.0,0,False
2024-09-26,0.8685917096611322,0.8685917096611322,0.0,0,False
2024-09-27,0.8685917096611322,0.8685917096611322,0.0,0,False
2024-09-28,0.8685917096611322,0.8685917096611322,0.0,0,False
2024-09-29,0.8685917096611322,0.8685917096611322,0.0,0,False
2024-09-30,0.8685917096611322,0.8685917096611322,0.0,0,False
2024-10-01,0.8685917096611322,0.8685917096611322,0.0,0,False
2024-10-02,0.8685917096611322,0.8685917096611322,0.0,0,False
2024-10-03,0.8685917096611322,0.8685917096611322,0.0,0,False
2024-10-04,0.8685917096611322,0.8685917096611322,0.0,0,False
2024-10-05,0.8685917096611322,0.8685917096611322,0.0,0,False
2024-10-06,0.8685917096611322,0.8685917096611322,0.0,0,False
2024-10-07,0.8685917096611322,0.8685917096611322,0.0,0,False
2024-10-08,0.8685917096611322,0.8685917096611322,0.0,0,False
2024-10-09,0.8685917096611322,0.8685917096611322,0.0,0,False
2024-10-10,0.8685917096611322,0.8685917096611322,0.0,0,False
2024-10-11,0.8685917096611322,0.8685917096611322,0.0,0,False
2024-10-12,0.8685917096611322,0.8685917096611322,0.0,0,False
2024-10-13,0.8685917096611322,0.8685917096611322,0.0,0,False
2024-10-14,0.8685917096611322,0.8685917096611322,0.0,0,False
2024-10-15,0.8685917096611322,0.8685917096611322,0.0,0,False
2024-10-16,0.8685917096611322,0.8685917096611322,0.0,0,False
2024-10-17,0.8685917096611322,0.8685917096611322,0.0,0,False
2024-10-18,0.8685917096611322,0.8685917096611322,0.0,0,False
2024-10-19,0.8685917096611322,0.8685917096611322,0.0,0,False
2024-10-20,0.8685917096611322,0.8685917096611322,0.0,0,False
2024-10-21,0.8685917096611322,0.8685917096611322,0.0,0,False
2024-10-22,0.8685917096611322,0.8685917096611322,0.0,0,False
2024-10-23,0.8685917096611322,0.8685917096611322,0.0,0,False
2024-10-24,0.8685917096611322,0.8685917096611322,0.0,0,False
2024-10-25,0.8685917096611322,0.8685917096611322,0.0,0,False
2024-10-26,0.8685917096611322,0.8685917096611322,0.0,0,False
2024-10-27,0.8685917096611322,0.8685917096611322,0.0,0,False
2024-10-28,0.8685917096611322,0.8685917096611322,0.0,0,False
2024-10-29,0.8685917096611322,0.8685917096611322,0.0,0,False
2024-10-30,0.8685917096611322,0.8685917096611322,0.0,0,False
2024-10-31,0.8685917096611322,0.8685917096611322,0.0,0,False
2024-11-01,0.8685917096611322,0.8685917096611322,0.0,0,False
2024-11-02,0.8685917096611322,0.8685917096611322,0.0,0,False
2024-11-03,0.8685917096611322,0.8685917096611322,0.0,0,False
2024-11-04,0.8685917096611322,0.8685917096611322,0.0,0,False
2024-11-05,0.8685917096611322,0.8685917096611322,0.0,0,False
2024-11-06,0.8685917096611322,0.8685917096611322,0.0,0,False
2024-11-07,0.8685917096611322,0.8685917096611322,0.0,0,False
2024-11-08,0.8685917096611322,0.8685917096611322,0.0,0,False
2024-11-09,0.8685917096611322,0.8685917096611322,0.0,0,False
2024-11-10,0.8685917096611322,0.8685917096611322,0.0,0,False
2024-11-11,0.8685917096611322,0.8685917096611322,0.0,0,False
2024-11-12,0.8685917096611322,0.8685917096611322,0.0,0,False
2024-11-13,0.8685917096611322,0.8685917096611322,0.0,0,False
2024-11-14,0.8685917096611322,0.8685917096611322,0.0,0,False
2024-11-15,0.8685917096611322,0.8685917096611322,0.0,0,False
2024-11-16,0.8685917096611322,0.8685917096611322,0.0,0,False
2024-11-17,0.8685917096611322,0.8685917096611322,0.0,0,False
2024-11-18,0.8685917096611322,0.8685917096611322,0.0,0,False
2024-11-19,0.8685917096611322,0.8685917096611322,0.0,0,False
2024-11-20,0.8685917096611322,0.8685917096611322,0.0,0,False
2024-11-21,0.8685917096611322,0.8685917096611322,0.0,0,False
2024-11-22,0.8685917096611322,0.8685917096611322,0.0,0,False
2024-11-23,0.8685917096611322,0.8685917096611322,0.0,0,False
2024-11-24,0.8685917096611322,0.8685917096611322,0.0,0,False
2024-11-25,0.8685917096611322,0.8685917096611322,0.0,0,False
2024-11-26,0.8685917096611322,0.8685917096611322,0.0,0,False
2024-11-27,0.8685917096611322,0.8685917096611322,0.0,0,False
2024-11-28,0.8685917096611322,0.8685917096611322,0.0,0,False
2024-11-29,0.8685917096611322,0.8685917096611322,0.0,0,False
2024-11-30,0.8685917096611322,0.8685917096611322,0.0,0,False
2024-12-01,0.8685917096611322,0.8685917096611322,0.0,0,False
2024-12-02,0.8685917096611322,0.8685917096611322,0.0,0,False
2024-12-03,0.8685917096611322,0.8685917096611322,0.0,0,False
2024-12-04,0.8685917096611322,0.8685917096611322,0.0,0,False
2024-12-05,0.8685917096611322,0.8685917096611322,0.0,0,False
2024-12-06,0.8685917096611322,0.8685917096611322,0.0,0,False
2024-12-07,0.8685917096611322,0.8685917096611322,0.0,0,False
2024-12-08,0.8685917096611322,0.8685917096611322,0.0,0,False
2024-12-09,0.8685917096611322,0.8685917096611322,0.0,0,False
2024-12-10,0.8685917096611322,0.8685917096611322,0.0,0,False
2024-12-11,0.8685917096611322,0.8685917096611322,0.0,0,False
2024-12-12,0.8685917096611322,0.8685917096611322,0.0,0,False
2024-12-13,0.8685917096611322,0.8685917096611322,0.0,0,False
2024-12-14,0.8685917096611322,0.8685917096611322,0.0,0,False
2024-12-15,0.8685917096611322,0.8685917096611322,0.0,0,False
2024-12-16,0.8685917096611322,0.8685917096611322,0.0,0,False
2024-12-17,0.8685917096611322,0.8685917096611322,0.0,0,False
2024-12-18,0.8685917096611322,0.8685917096611322,0.0,0,False
2024-12-19,0.8685917096611322,0.8685917096611322,0.0,0,False
2024-12-20,0.8685917096611322,0.8685917096611322,0.0,0,False
2024-12-21,0.8685917096611322,0.8685917096611322,0.0,0,False
2024-12-22,0.8685917096611322,0.8685917096611322,0.0,0,False
2024-12-23,0.8685917096611322,0.8685917096611322,0.0,0,False
2024-12-24,0.8685917096611322,0.8685917096611322,0.0,0,False
2024-12-25,0.8685917096611322,0.8685917096611322,0.0,0,False
2024-12-26,0.8685917096611322,0.8685917096611322,0.0,0,False
2024-12-27,0.8685917096611322,0.8685917096611322,0.0,0,False
2024-12-28,0.8685917096611322,0.8685917096611322,0.0,0,False
2024-12-29,0.8685917096611322,0.8685917096611322,0.0,0,False
2024-12-30,0.8685917096611322,0.8685917096611322,0.0,0,False
2024-12-31,0.8685917096611322,0.8685917096611322,0.0,0,False
