day,start_equity,end_equity,return_pct,entries,active
2024-01-02,1.012400299899122,1.0062690123227749,-0.6056189016299229,1,True
2024-01-03,1.0062690123227749,0.9828934708471211,-2.3229912865642133,4,True
2024-01-04,0.9828934708471211,0.9965741196969311,1.3918750358590914,10,True
2024-01-05,0.9965741196969311,0.9873043308340749,-0.9301655220261273,7,True
2024-01-06,0.9873043308340749,0.9809476405693301,-0.6438430447656018,7,True
2024-01-07,0.9809476405693301,0.9852865796694107,0.4423211719600362,9,True
2024-01-08,0.9852865796694107,0.9622847222920646,-2.3345347284709606,3,True
2024-01-09,0.9622847222920646,0.9527350483084037,-0.99239588475587,5,True
2024-01-10,0.9527350483084037,0.9346958203598037,-1.8934149615497997,7,True
2024-01-11,0.9346958203598037,0.9457351088996498,1.1810567993763676,6,True
2024-01-12,0.9457351088996498,0.9264101637391057,-2.0433782122172173,1,True
2024-01-13,0.9264101637391057,0.9350913538664347,0.9370784634195495,8,True
2024-01-14,0.9350913538664347,0.9343606547294941,-0.07814200547564543,1,True
2024-01-15,0.9343606547294941,0.9408011450063875,0.68929382292513,5,True
2024-01-16,0.9408011450063875,0.9383794164059076,-0.25741131516835436,1,True
2024-01-17,0.9383794164059076,0.9456945154305898,0.7795459807398375,0,True
2024-01-18,0.9456945154305898,0.9397354661402295,-0.6301241249820566,2,True
2024-01-19,0.9397354661402295,0.9316005445866934,-0.8656607999428467,1,True
2024-01-20,0.9316005445866934,0.9664535206910463,3.7411931870236836,11,True
2024-01-21,0.9664535206910463,0.9631487888643967,-0.3419442069274692,3,True
2024-01-22,0.9631487888643967,0.9438593350588961,-2.0027491108870032,3,True
2024-01-23,0.9438593350588961,0.9234035410817725,-2.167250268902321,11,True
2024-01-24,0.9234035410817725,0.9187981379161385,-0.4987422032450395,1,True
2024-01-25,0.9187981379161385,0.9049349085177436,-1.5088438718255492,4,True
2024-01-26,0.9049349085177436,0.9028055274412758,-0.23530765101720252,0,True
2024-01-27,0.9028055274412758,0.9028055274412758,0.0,0,False
2024-01-28,0.9028055274412758,0.900591236489982,-0.24526776631170755,2,True
2024-01-29,0.900591236489982,0.9005430408350258,-0.005351557177479815,0,True
2024-01-30,0.9005430408350258,0.9005430408350258,0.0,0,False
2024-01-31,0.9005430408350258,0.898299870466922,-0.24909085589334135,1,True
2024-02-01,0.898299870466922,0.898299870466922,0.0,0,False
2024-02-02,0.898299870466922,0.8981136355908973,-0.020731927293704544,3,True
2024-02-03,0.8981136355908973,0.90030302936988,0.24377692223125358,1,True
2024-02-04,0.90030302936988,0.8983800718199995,-0.21359003437170232,1,True
2024-02-05,0.8983800718199995,0.8983800718199995,0.0,0,False
2024-02-06,0.8983800718199995,0.8949623613435833,-0.38043035276732473,2,True
2024-02-07,0.8949623613435833,0.8911722566509883,-0.42349319438473865,5,True
2024-02-08,0.8911722566509883,0.9022740959551889,1.2457568356000204,1,True
2024-02-09,0.9022740959551889,0.9022740959551889,0.0,0,False
2024-02-10,0.9022740959551889,0.8993462411226771,-0.3244972725734985,2,True
2024-02-11,0.8993462411226771,0.8980966553993296,-0.13894378674309538,0,True
2024-02-12,0.8980966553993296,0.9011380168200904,0.3386452229251935,3,True
2024-02-13,0.9011380168200904,0.9011857586358504,0.0052979471367065045,0,True
2024-02-14,0.9011857586358504,0.9021299460616113,0.1047716762846207,2,True
2024-02-15,0.9021299460616113,0.905659406190459,0.39123633399558155,7,True
2024-02-16,0.905659406190459,0.9082000217978248,0.2805266074641155,7,True
2024-02-17,0.9082000217978248,0.903361677882259,-0.5327399030433888,6,True
2024-02-18,0.903361677882259,0.9028220913764549,-0.05973094929918599,4,True
2024-02-19,0.9028220913764549,0.898153202688124,-0.5171438241185045,6,True
2024-02-20,0.898153202688124,0.8885029538560008,-1.0744546479643624,12,True
2024-02-21,0.8885029538560008,0.8824857674458579,-0.677227507689071,9,True
2024-02-22,0.8824857674458579,0.8983971129698829,1.8030144066885745,5,True
2024-02-23,0.8983971129698829,0.8877590606271799,-1.184114707084949,7,True
2024-02-24,0.8877590606271799,0.8927325334631723,0.5602277753694596,9,True
2024-02-25,0.8927325334631723,0.890531675279712,-0.24653052296890188,7,True
2024-02-26,0.890531675279712,0.892524648535064,0.2237958862862488,8,True
2024-02-27,0.892524648535064,0.8850961170272755,-0.8323054741380176,7,True
2024-02-28,0.8850961170272755,0.882963509460214,-0.2409464380235038,7,True
2024-02-29,0.882963509460214,0.873312496685528,-1.0930250991443513,17,True
2024-03-01,0.873312496685528,0.8783339188772635,0.5749857251319934,9,True
2024-03-02,0.8783339188772635,0.8744365575445141,-0.4437220570658651,10,True
2024-03-03,0.8744365575445141,0.8857545536829146,1.2943187291005076,13,True
2024-03-04,0.8857545536829146,0.8907759320764891,0.5669040449971074,4,True
2024-03-05,0.8907759320764891,0.8975478339079981,0.7602250563419455,15,True
2024-03-06,0.8975478339079981,0.8743137427689152,-2.5886187076982536,9,True
2024-03-07,0.8743137427689152,0.8748202089373224,0.057927279834735224,10,True
2024-03-08,0.8748202089373224,0.8751233896151899,0.03465634135679796,6,True
2024-03-09,0.8751233896151899,0.8768020546489015,0.19182038254625944,8,True
2024-03-10,0.8768020546489015,0.8682068030821352,-0.9802955548739112,9,True
2024-03-11,0.8682068030821352,0.8701506995044154,0.22389785652212613,10,True
2024-03-12,0.8701506995044154,0.8830674663719206,1.4844287173315873,10,True
2024-03-13,0.8830674663719206,0.8868986087312755,0.433844808607331,9,True
2024-03-14,0.8868986087312755,0.8890443454531586,0.24193709413442566,6,True
2024-03-15,0.8890443454531586,0.8707949877932204,-2.0526937439364956,11,True
2024-03-16,0.8707949877932204,0.8686118575644446,-0.25070541968877924,4,True
2024-03-17,0.8686118575644446,0.8608242502090833,-0.8965577993832019,6,True
2024-03-18,0.8608242502090833,0.8608242502090833,0.0,0,False
2024-03-19,0.8608242502090833,0.8608242502090833,0.0,0,False
2024-03-20,0.8608242502090833,0.8608242502090833,0.0,0,False
2024-03-21,0.8608242502090833,0.8608242502090833,0.0,0,False
2024-03-22,0.8608242502090833,0.8608242502090833,0.0,0,False
2024-03-23,0.8608242502090833,0.8608242502090833,0.0,0,False
2024-03-24,0.8608242502090833,0.8608242502090833,0.0,0,False
2024-03-25,0.8608242502090833,0.8608242502090833,0.0,0,False
2024-03-26,0.8608242502090833,0.8608242502090833,0.0,0,False
2024-03-27,0.8608242502090833,0.8608242502090833,0.0,0,False
2024-03-28,0.8608242502090833,0.8608242502090833,0.0,0,False
2024-03-29,0.8608242502090833,0.8608242502090833,0.0,0,False
2024-03-30,0.8608242502090833,0.8608242502090833,0.0,0,False
2024-03-31,0.8608242502090833,0.8608242502090833,0.0,0,False
2024-04-01,0.8608242502090833,0.8608242502090833,0.0,0,False
2024-04-02,0.8608242502090833,0.8608242502090833,0.0,0,False
2024-04-03,0.8608242502090833,0.8608242502090833,0.0,0,False
2024-04-04,0.8608242502090833,0.8608242502090833,0.0,0,False
2024-04-05,0.8608242502090833,0.8608242502090833,0.0,0,False
2024-04-06,0.8608242502090833,0.8608242502090833,0.0,0,False
2024-04-07,0.8608242502090833,0.8608242502090833,0.0,0,False
2024-04-08,0.8608242502090833,0.8608242502090833,0.0,0,False
2024-04-09,0.8608242502090833,0.8608242502090833,0.0,0,False
2024-04-10,0.8608242502090833,0.8608242502090833,0.0,0,False
2024-04-11,0.8608242502090833,0.8608242502090833,0.0,0,False
2024-04-12,0.8608242502090833,0.8608242502090833,0.0,0,False
2024-04-13,0.8608242502090833,0.8608242502090833,0.0,0,False
2024-04-14,0.8608242502090833,0.8608242502090833,0.0,0,False
2024-04-15,0.8608242502090833,0.8608242502090833,0.0,0,False
2024-04-16,0.8608242502090833,0.8608242502090833,0.0,0,False
2024-04-17,0.8608242502090833,0.8608242502090833,0.0,0,False
2024-04-18,0.8608242502090833,0.8608242502090833,0.0,0,False
2024-04-19,0.8608242502090833,0.8608242502090833,0.0,0,False
2024-04-20,0.8608242502090833,0.8608242502090833,0.0,0,False
2024-04-21,0.8608242502090833,0.8608242502090833,0.0,0,False
2024-04-22,0.8608242502090833,0.8608242502090833,0.0,0,False
2024-04-23,0.8608242502090833,0.8608242502090833,0.0,0,False
2024-04-24,0.8608242502090833,0.8608242502090833,0.0,0,False
2024-04-25,0.8608242502090833,0.8608242502090833,0.0,0,False
2024-04-26,0.8608242502090833,0.8608242502090833,0.0,0,False
2024-04-27,0.8608242502090833,0.8608242502090833,0.0,0,False
2024-04-28,0.8608242502090833,0.8608242502090833,0.0,0,False
2024-04-29,0.8608242502090833,0.8608242502090833,0.0,0,False
2024-04-30,0.8608242502090833,0.8608242502090833,0.0,0,False
2024-05-01,0.8608242502090833,0.8608242502090833,0.0,0,False
2024-05-02,0.8608242502090833,0.8608242502090833,0.0,0,False
2024-05-03,0.8608242502090833,0.8608242502090833,0.0,0,False
2024-05-04,0.8608242502090833,0.8608242502090833,0.0,0,False
2024-05-05,0.8608242502090833,0.8608242502090833,0.0,0,False
2024-05-06,0.8608242502090833,0.8608242502090833,0.0,0,False
2024-05-07,0.8608242502090833,0.8608242502090833,0.0,0,False
2024-05-08,0.8608242502090833,0.8608242502090833,0.0,0,False
2024-05-09,0.8608242502090833,0.8608242502090833,0.0,0,False
2024-05-10,0.8608242502090833,0.8608242502090833,0.0,0,False
2024-05-11,0.8608242502090833,0.8608242502090833,0.0,0,False
2024-05-12,0.8608242502090833,0.8608242502090833,0.0,0,False
2024-05-13,0.8608242502090833,0.8608242502090833,0.0,0,False
2024-05-14,0.8608242502090833,0.8608242502090833,0.0,0,False
2024-05-15,0.8608242502090833,0.8608242502090833,0.0,0,False
2024-05-16,0.8608242502090833,0.8608242502090833,0.0,0,False
2024-05-17,0.8608242502090833,0.8608242502090833,0.0,0,False
2024-05-18,0.8608242502090833,0.8608242502090833,0.0,0,False
2024-05-19,0.8608242502090833,0.8608242502090833,0.0,0,False
2024-05-20,0.8608242502090833,0.8608242502090833,0.0,0,False
2024-05-21,0.8608242502090833,0.8608242502090833,0.0,0,False
2024-05-22,0.8608242502090833,0.8608242502090833,0.0,0,False
2024-05-23,0.8608242502090833,0.8608242502090833,0.0,0,False
2024-05-24,0.8608242502090833,0.8608242502090833,0.0,0,False
2024-05-25,0.8608242502090833,0.8608242502090833,0.0,0,False
2024-05-26,0.8608242502090833,0.8608242502090833,0.0,0,False
2024-05-27,0.8608242502090833,0.8608242502090833,0.0,0,False
2024-05-28,0.8608242502090833,0.8608242502090833,0.0,0,False
2024-05-29,0.8608242502090833,0.8608242502090833,0.0,0,False
2024-05-30,0.8608242502090833,0.8608242502090833,0.0,0,False
2024-05-31,0.8608242502090833,0.8608242502090833,0.0,0,False
2024-06-01,0.8608242502090833,0.8608242502090833,0.0,0,False
2024-06-02,0.8608242502090833,0.8608242502090833,0.0,0,False
2024-06-03,0.8608242502090833,0.8608242502090833,0.0,0,False
2024-06-04,0.8608242502090833,0.8608242502090833,0.0,0,False
2024-06-05,0.8608242502090833,0.8608242502090833,0.0,0,False
2024-06-06,0.8608242502090833,0.8608242502090833,0.0,0,False
2024-06-07,0.8608242502090833,0.8608242502090833,0.0,0,False
2024-06-08,0.8608242502090833,0.8608242502090833,0.0,0,False
2024-06-09,0.8608242502090833,0.8608242502090833,0.0,0,False
2024-06-10,0.8608242502090833,0.8608242502090833,0.0,0,False
2024-06-11,0.8608242502090833,0.8608242502090833,0.0,0,False
2024-06-12,0.8608242502090833,0.8608242502090833,0.0,0,False
2024-06-13,0.8608242502090833,0.8608242502090833,0.0,0,False
2024-06-14,0.8608242502090833,0.8608242502090833,0.0,0,False
2024-06-15,0.8608242502090833,0.8608242502090833,0.0,0,False
2024-06-16,0.8608242502090833,0.8608242502090833,0.0,0,False
2024-06-17,0.8608242502090833,0.8608242502090833,0.0,0,False
2024-06-18,0.8608242502090833,0.8608242502090833,0.0,0,False
2024-06-19,0.8608242502090833,0.8608242502090833,0.0,0,False
2024-06-20,0.8608242502090833,0.8608242502090833,0.0,0,False
2024-06-21,0.8608242502090833,0.8608242502090833,0.0,0,False
2024-06-22,0.8608242502090833,0.8608242502090833,0.0,0,False
2024-06-23,0.8608242502090833,0.8608242502090833,0.0,0,False
2024-06-24,0.8608242502090833,0.8608242502090833,0.0,0,False
2024-06-25,0.8608242502090833,0.8608242502090833,0.0,0,False
2024-06-26,0.8608242502090833,0.8608242502090833,0.0,0,False
2024-06-27,0.8608242502090833,0.8608242502090833,0.0,0,False
2024-06-28,0.8608242502090833,0.8608242502090833,0.0,0,False
2024-06-29,0.8608242502090833,0.8608242502090833,0.0,0,False
2024-06-30,0.8608242502090833,0.8608242502090833,0.0,0,False
2024-07-01,0.8608242502090833,0.8608242502090833,0.0,0,False
2024-07-02,0.8608242502090833,0.8608242502090833,0.0,0,False
2024-07-03,0.8608242502090833,0.8608242502090833,0.0,0,False
2024-07-04,0.8608242502090833,0.8608242502090833,0.0,0,False
2024-07-05,0.8608242502090833,0.8608242502090833,0.0,0,False
2024-07-06,0.8608242502090833,0.8608242502090833,0.0,0,False
2024-07-07,0.8608242502090833,0.8608242502090833,0.0,0,False
2024-07-08,0.8608242502090833,0.8608242502090833,0.0,0,False
2024-07-09,0.8608242502090833,0.8608242502090833,0.0,0,False
2024-07-10,0.8608242502090833,0.8608242502090833,0.0,0,False
2024-07-11,0.8608242502090833,0.8608242502090833,0.0,0,False
2024-07-12,0.8608242502090833,0.8608242502090833,0.0,0,False
2024-07-13,0.8608242502090833,0.8608242502090833,0.0,0,False
2024-07-14,0.8608242502090833,0.8608242502090833,0.0,0,False
2024-07-15,0.8608242502090833,0.8608242502090833,0.0,0,False
2024-07-16,0.8608242502090833,0.8608242502090833,0.0,0,False
2024-07-17,0.8608242502090833,0.8608242502090833,0.0,0,False
2024-07-18,0.8608242502090833,0.8608242502090833,0.0,0,False
2024-07-19,0.8608242502090833,0.8608242502090833,0.0,0,False
2024-07-20,0.8608242502090833,0.8608242502090833,0.0,0,False
2024-07-21,0.8608242502090833,0.8608242502090833,0.0,0,False
2024-07-22,0.8608242502090833,0.8608242502090833,0.0,0,False
2024-07-23,0.8608242502090833,0.8608242502090833,0.0,0,False
2024-07-24,0.8608242502090833,0.8608242502090833,0.0,0,False
2024-07-25,0.8608242502090833,0.8608242502090833,0.0,0,False
2024-07-26,0.8608242502090833,0.8608242502090833,0.0,0,False
2024-07-27,0.8608242502090833,0.8608242502090833,0.0,0,False
2024-07-28,0.8608242502090833,0.8608242502090833,0.0,0,False
2024-07-29,0.8608242502090833,0.8608242502090833,0.0,0,False
2024-07-30,0.8608242502090833,0.8608242502090833,0.0,0,False
2024-07-31,0.8608242502090833,0.8608242502090833,0.0,0,False
2024-08-01,0.8608242502090833,0.8608242502090833,0.0,0,False
2024-08-02,0.8608242502090833,0.8608242502090833,0.0,0,False
2024-08-03,0.8608242502090833,0.8608242502090833,0.0,0,False
2024-08-04,0.8608242502090833,0.8608242502090833,0.0,0,False
2024-08-05,0.8608242502090833,0.8608242502090833,0.0,0,False
2024-08-06,0.8608242502090833,0.8608242502090833,0.0,0,False
2024-08-07,0.8608242502090833,0.8608242502090833,0.0,0,False
2024-08-08,0.8608242502090833,0.8608242502090833,0.0,0,False
2024-08-09,0.8608242502090833,0.8608242502090833,0.0,0,False
2024-08-10,0.8608242502090833,0.8608242502090833,0.0,0,False
2024-08-11,0.8608242502090833,0.8608242502090833,0.0,0,False
2024-08-12,0.8608242502090833,0.8608242502090833,0.0,0,False
2024-08-13,0.8608242502090833,0.8608242502090833,0.0,0,False
2024-08-14,0.8608242502090833,0.8608242502090833,0.0,0,False
2024-08-15,0.8608242502090833,0.8608242502090833,0.0,0,False
2024-08-16,0.8608242502090833,0.8608242502090833,0.0,0,False
2024-08-17,0.8608242502090833,0.8608242502090833,0.0,0,False
2024-08-18,0.8608242502090833,0.8608242502090833,0.0,0,False
2024-08-19,0.8608242502090833,0.8608242502090833,0.0,0,False
2024-08-20,0.8608242502090833,0.8608242502090833,0.0,0,False
2024-08-21,0.8608242502090833,0.8608242502090833,0.0,0,False
2024-08-22,0.8608242502090833,0.8608242502090833,0.0,0,False
2024-08-23,0.8608242502090833,0.8608242502090833,0.0,0,False
2024-08-24,0.8608242502090833,0.8608242502090833,0.0,0,False
2024-08-25,0.8608242502090833,0.8608242502090833,0.0,0,False
2024-08-26,0.8608242502090833,0.8608242502090833,0.0,0,False
2024-08-27,0.8608242502090833,0.8608242502090833,0.0,0,False
2024-08-28,0.8608242502090833,0.8608242502090833,0.0,0,False
2024-08-29,0.8608242502090833,0.8608242502090833,0.0,0,False
2024-08-30,0.8608242502090833,0.8608242502090833,0.0,0,False
2024-08-31,0.8608242502090833,0.8608242502090833,0.0,0,False
2024-09-01,0.8608242502090833,0.8608242502090833,0.0,0,False
2024-09-02,0.8608242502090833,0.8608242502090833,0.0,0,False
2024-09-03,0.8608242502090833,0.8608242502090833,0.0,0,False
2024-09-04,0.8608242502090833,0.8608242502090833,0.0,0,False
2024-09-05,0.8608242502090833,0.8608242502090833,0.0,0,False
2024-09-06,0.8608242502090833,0.8608242502090833,0.0,0,False
2024-09-07,0.8608242502090833,0.8608242502090833,0.0,0,False
2024-09-08,0.8608242502090833,0.8608242502090833,0.0,0,False
2024-09-09,0.8608242502090833,0.8608242502090833,0.0,0,False
2024-09-10,0.8608242502090833,0.8608242502090833,0.0,0,False
2024-09-11,0.8608242502090833,0.8608242502090833,0.0,0,False
2024-09-12,0.8608242502090833,0.8608242502090833,0.0,0,False
2024-09-13,0.8608242502090833,0.8608242502090833,0.0,0,False
2024-09-14,0.8608242502090833,0.8608242502090833,0.0,0,False
2024-09-15,0.8608242502090833,0.8608242502090833,0.0,0,False
2024-09-16,0.8608242502090833,0.8608242502090833,0.0,0,False
2024-09-17,0.8608242502090833,0.8608242502090833,0.0,0,False
2024-09-18,0.8608242502090833,0.8608242502090833,0.0,0,False
2024-09-19,0.8608242502090833,0.8608242502090833,0.0,0,False
2024-09-20,0.8608242502090833,0.8608242502090833,0.0,0,False
2024-09-21,0.8608242502090833,0.8608242502090833,0.0,0,False
2024-09-22,0.8608242502090833,0.8608242502090833,0.0,0,False
2024-09-23,0.8608242502090833,0.8608242502090833,0.0,0,False
2024-09-24,0.8608242502090833,0.8608242502090833,0.0,0,False
2024-09-25,0.8608242502090833,0.8608242502090833,0.0,0,False
2024-09-26,0.8608242502090833,0.8608242502090833,0.0,0,False
2024-09-27,0.8608242502090833,0.8608242502090833,0.0,0,False
2024-09-28,0.8608242502090833,0.8608242502090833,0.0,0,False
2024-09-29,0.8608242502090833,0.8608242502090833,0.0,0,False
2024-09-30,0.8608242502090833,0.8608242502090833,0.0,0,False
2024-10-01,0.8608242502090833,0.8608242502090833,0.0,0,False
2024-10-02,0.8608242502090833,0.8608242502090833,0.0,0,False
2024-10-03,0.8608242502090833,0.8608242502090833,0.0,0,False
2024-10-04,0.8608242502090833,0.8608242502090833,0.0,0,False
2024-10-05,0.8608242502090833,0.8608242502090833,0.0,0,False
2024-10-06,0.8608242502090833,0.8608242502090833,0.0,0,False
2024-10-07,0.8608242502090833,0.8608242502090833,0.0,0,False
2024-10-08,0.8608242502090833,0.8608242502090833,0.0,0,False
2024-10-09,0.8608242502090833,0.8608242502090833,0.0,0,False
2024-10-10,0.8608242502090833,0.8608242502090833,0.0,0,False
2024-10-11,0.8608242502090833,0.8608242502090833,0.0,0,False
2024-10-12,0.8608242502090833,0.8608242502090833,0.0,0,False
2024-10-13,0.8608242502090833,0.8608242502090833,0.0,0,False
2024-10-14,0.8608242502090833,0.8608242502090833,0.0,0,False
2024-10-15,0.8608242502090833,0.8608242502090833,0.0,0,False
2024-10-16,0.8608242502090833,0.8608242502090833,0.0,0,False
2024-10-17,0.8608242502090833,0.8608242502090833,0.0,0,False
2024-10-18,0.8608242502090833,0.8608242502090833,0.0,0,False
2024-10-19,0.8608242502090833,0.8608242502090833,0.0,0,False
2024-10-20,0.8608242502090833,0.8608242502090833,0.0,0,False
2024-10-21,0.8608242502090833,0.8608242502090833,0.0,0,False
2024-10-22,0.8608242502090833,0.8608242502090833,0.0,0,False
2024-10-23,0.8608242502090833,0.8608242502090833,0.0,0,False
2024-10-24,0.8608242502090833,0.8608242502090833,0.0,0,False
2024-10-25,0.8608242502090833,0.8608242502090833,0.0,0,False
2024-10-26,0.8608242502090833,0.8608242502090833,0.0,0,False
2024-10-27,0.8608242502090833,0.8608242502090833,0.0,0,False
2024-10-28,0.8608242502090833,0.8608242502090833,0.0,0,False
2024-10-29,0.8608242502090833,0.8608242502090833,0.0,0,False
2024-10-30,0.8608242502090833,0.8608242502090833,0.0,0,False
2024-10-31,0.8608242502090833,0.8608242502090833,0.0,0,False
2024-11-01,0.8608242502090833,0.8608242502090833,0.0,0,False
2024-11-02,0.8608242502090833,0.8608242502090833,0.0,0,False
2024-11-03,0.8608242502090833,0.8608242502090833,0.0,0,False
2024-11-04,0.8608242502090833,0.8608242502090833,0.0,0,False
2024-11-05,0.8608242502090833,0.8608242502090833,0.0,0,False
2024-11-06,0.8608242502090833,0.8608242502090833,0.0,0,False
2024-11-07,0.8608242502090833,0.8608242502090833,0.0,0,False
2024-11-08,0.8608242502090833,0.8608242502090833,0.0,0,False
2024-11-09,0.8608242502090833,0.8608242502090833,0.0,0,False
2024-11-10,0.8608242502090833,0.8608242502090833,0.0,0,False
2024-11-11,0.8608242502090833,0.8608242502090833,0.0,0,False
2024-11-12,0.8608242502090833,0.8608242502090833,0.0,0,False
2024-11-13,0.8608242502090833,0.8608242502090833,0.0,0,False
2024-11-14,0.8608242502090833,0.8608242502090833,0.0,0,False
2024-11-15,0.8608242502090833,0.8608242502090833,0.0,0,False
2024-11-16,0.8608242502090833,0.8608242502090833,0.0,0,False
2024-11-17,0.8608242502090833,0.8608242502090833,0.0,0,False
2024-11-18,0.8608242502090833,0.8608242502090833,0.0,0,False
2024-11-19,0.8608242502090833,0.8608242502090833,0.0,0,False
2024-11-20,0.8608242502090833,0.8608242502090833,0.0,0,False
2024-11-21,0.8608242502090833,0.8608242502090833,0.0,0,False
2024-11-22,0.8608242502090833,0.8608242502090833,0.0,0,False
2024-11-23,0.8608242502090833,0.8608242502090833,0.0,0,False
2024-11-24,0.8608242502090833,0.8608242502090833,0.0,0,False
2024-11-25,0.8608242502090833,0.8608242502090833,0.0,0,False
2024-11-26,0.8608242502090833,0.8608242502090833,0.0,0,False
2024-11-27,0.8608242502090833,0.8608242502090833,0.0,0,False
2024-11-28,0.8608242502090833,0.8608242502090833,0.0,0,False
2024-11-29,0.8608242502090833,0.8608242502090833,0.0,0,False
2024-11-30,0.8608242502090833,0.8608242502090833,0.0,0,False
2024-12-01,0.8608242502090833,0.8608242502090833,0.0,0,False
2024-12-02,0.8608242502090833,0.8608242502090833,0.0,0,False
2024-12-03,0.8608242502090833,0.8608242502090833,0.0,0,False
2024-12-04,0.8608242502090833,0.8608242502090833,0.0,0,False
2024-12-05,0.8608242502090833,0.8608242502090833,0.0,0,False
2024-12-06,0.8608242502090833,0.8608242502090833,0.0,0,False
2024-12-07,0.8608242502090833,0.8608242502090833,0.0,0,False
2024-12-08,0.8608242502090833,0.8608242502090833,0.0,0,False
2024-12-09,0.8608242502090833,0.8608242502090833,0.0,0,False
2024-12-10,0.8608242502090833,0.8608242502090833,0.0,0,False
2024-12-11,0.8608242502090833,0.8608242502090833,0.0,0,False
2024-12-12,0.8608242502090833,0.8608242502090833,0.0,0,False
2024-12-13,0.8608242502090833,0.8608242502090833,0.0,0,False
2024-12-14,0.8608242502090833,0.8608242502090833,0.0,0,False
2024-12-15,0.8608242502090833,0.8608242502090833,0.0,0,False
2024-12-16,0.8608242502090833,0.8608242502090833,0.0,0,False
2024-12-17,0.8608242502090833,0.8608242502090833,0.0,0,False
2024-12-18,0.8608242502090833,0.8608242502090833,0.0,0,False
2024-12-19,0.8608242502090833,0.8608242502090833,0.0,0,False
2024-12-20,0.8608242502090833,0.8608242502090833,0.0,0,False
2024-12-21,0.8608242502090833,0.8608242502090833,0.0,0,False
2024-12-22,0.8608242502090833,0.8608242502090833,0.0,0,False
2024-12-23,0.8608242502090833,0.8608242502090833,0.0,0,False
2024-12-24,0.8608242502090833,0.8608242502090833,0.0,0,False
2024-12-25,0.8608242502090833,0.8608242502090833,0.0,0,False
2024-12-26,0.8608242502090833,0.8608242502090833,0.0,0,False
2024-12-27,0.8608242502090833,0.8608242502090833,0.0,0,False
2024-12-28,0.8608242502090833,0.8608242502090833,0.0,0,False
2024-12-29,0.8608242502090833,0.8608242502090833,0.0,0,False
2024-12-30,0.8608242502090833,0.8608242502090833,0.0,0,False
2024-12-31,0.8608242502090833,0.8608242502090833,0.0,0,False
