day,start_equity,end_equity,return_pct,entries,active
2021-09-02,1.0,1.0,0.0,0,False
2021-09-03,1.0,1.0,0.0,0,False
2021-09-04,1.0,1.0,0.0,0,False
2021-09-05,1.0,1.0,0.0,0,False
2021-09-06,1.0,1.0,0.0,0,False
2021-09-07,1.0,1.0,0.0,0,False
2021-09-08,1.0,1.0,0.0,0,False
2021-09-09,1.0,1.0,0.0,0,False
2021-09-10,1.0,1.0,0.0,0,False
2021-09-11,1.0,1.0,0.0,0,False
2021-09-12,1.0,1.0,0.0,0,False
2021-09-13,1.0,1.0,0.0,0,False
2021-09-14,1.0,1.0,0.0,0,False
2021-09-15,1.0,1.0,0.0,0,False
2021-09-16,1.0,1.0,0.0,0,False
2021-09-17,1.0,1.0,0.0,0,False
2021-09-18,1.0,1.0,0.0,0,False
2021-09-19,1.0,1.0,0.0,0,False
2021-09-20,1.0,1.0,0.0,0,False
2021-09-21,1.0,1.0,0.0,0,False
2021-09-22,1.0,1.0,0.0,0,False
2021-09-23,1.0,1.0,0.0,0,False
2021-09-24,1.0,1.0,0.0,0,False
2021-09-25,1.0,1.0,0.0,0,False
2021-09-26,1.0,1.0,0.0,0,False
2021-09-27,1.0,1.0,0.0,0,False
2021-09-28,1.0,1.0,0.0,0,False
2021-09-29,1.0,1.0,0.0,0,False
2021-09-30,1.0,1.0,0.0,0,False
2021-10-01,1.0,1.0,0.0,0,False
2021-10-02,1.0,1.0,0.0,0,False
2021-10-03,1.0,1.0,0.0,0,False
2021-10-04,1.0,1.0,0.0,0,False
2021-10-05,1.0,1.0,0.0,0,False
2021-10-06,1.0,1.0013367622167146,0.13367622167146376,1,True
2021-10-07,1.0013367622167146,1.0004939772081831,-0.08416599093653554,0,True
2021-10-08,1.0004939772081831,1.0004939772081831,0.0,0,False
2021-10-09,1.0004939772081831,0.9981469044963843,-0.2345913883807782,3,True
2021-10-10,0.9981469044963843,1.000300551514583,0.21576453410787622,1,True
2021-10-11,1.000300551514583,0.9966563313634399,-0.3643125204345177,0,True
2021-10-12,0.9966563313634399,0.9966563313634399,0.0,0,False
2021-10-13,0.9966563313634399,1.0093351271265074,1.27213316808239,4,True
2021-10-14,1.0093351271265074,1.0222462302479358,1.2791691059227395,0,True
2021-10-15,1.0222462302479358,1.025202631890334,0.2892064118134474,1,True
2021-10-16,1.025202631890334,1.0408565661164488,1.5269112406833374,0,True
2021-10-17,1.0408565661164488,1.0408565661164488,0.0,0,False
2021-10-18,1.0408565661164488,1.0397556360502,-0.10577154452283688,1,True
2021-10-19,1.0397556360502,1.0418095259165334,0.1975358242957581,0,True
2021-10-20,1.0418095259165334,1.0418095259165334,0.0,0,False
2021-10-21,1.0418095259165334,1.0418095259165334,0.0,0,False
2021-10-22,1.0418095259165334,1.0418095259165334,0.0,0,False
2021-10-23,1.0418095259165334,1.0418095259165334,0.0,0,False
2021-10-24,1.0418095259165334,1.0418095259165334,0.0,0,False
2021-10-25,1.0418095259165334,1.0452346928507752,0.3287709364366176,1,True
2021-10-26,1.0452346928507752,1.0452346928507752,0.0,0,False
2021-10-27,1.0452346928507752,1.038605731784386,-0.6342079067725326,6,True
2021-10-28,1.038605731784386,1.0418300070039404,0.31044265604185384,0,True
2021-10-29,1.0418300070039404,1.0418300070039404,0.0,0,False
2021-10-30,1.0418300070039404,1.0418300070039404,0.0,0,False
2021-10-31,1.0418300070039404,1.0418300070039404,0.0,0,False
2021-11-01,1.0418300070039404,1.0430315461948583,0.11532967785918835,1,True
2021-11-02,1.0430315461948583,1.0425788077755722,-0.043406014030711315,0,True
2021-11-03,1.0425788077755722,1.0425678526963047,-0.0010507674993776028,1,True
2021-11-04,1.0425678526963047,1.0614839981197493,1.8143802702647482,1,True
2021-11-05,1.0614839981197493,1.0545779724152575,-0.6506010186422606,0,True
2021-11-06,1.0545779724152575,1.0514396066619924,-0.2975944724198487,1,True
2021-11-07,1.0514396066619924,1.0516135440076386,0.01654278044540547,0,True
2021-11-08,1.0516135440076386,1.0516135440076386,0.0,0,False
2021-11-09,1.0516135440076386,1.0516135440076386,0.0,0,False
2021-11-10,1.0516135440076386,1.0516135440076386,0.0,0,False
2021-11-11,1.0516135440076386,1.0255027484413681,-2.482926899815663,5,True
2021-11-12,1.0255027484413681,1.0255027484413681,0.0,0,False
2021-11-13,1.0255027484413681,1.0243364814129563,-0.11372636788974377,1,True
2021-11-14,1.0243364814129563,1.0246625868893233,0.03183577684524597,0,True
2021-11-15,1.0246625868893233,1.0246625868893233,0.0,0,False
2021-11-16,1.0246625868893233,1.0393432370813194,1.4327301864864195,5,True
2021-11-17,1.0393432370813194,1.0251956893646146,-1.3612007286864958,0,True
2021-11-18,1.0251956893646146,1.0222984672179611,-0.2826018658397822,2,True
2021-11-19,1.0222984672179611,1.0258419242659094,0.34661668402879986,1,True
2021-11-20,1.0258419242659094,1.0263557910278258,0.05009219741960447,0,True
2021-11-21,1.0263557910278258,1.0263557910278258,0.0,0,False
2021-11-22,1.0263557910278258,1.0212321416816077,-0.49920791513117235,1,True
2021-11-23,1.0212321416816077,1.0212321416816077,0.0,0,False
2021-11-24,1.0212321416816077,1.0212321416816077,0.0,0,False
2021-11-25,1.0212321416816077,1.0234654869335476,0.21869124176432386,2,True
2021-11-26,1.0234654869335476,1.0008458740518753,-2.210100210554622,2,True
2021-11-27,1.0008458740518753,1.0008458740518753,0.0,0,False
2021-11-28,1.0008458740518753,0.9958500949901316,-0.49915568333399607,1,True
2021-11-29,0.9958500949901316,0.9958500949901316,0.0,0,False
2021-11-30,0.9958500949901316,0.9958500949901316,0.0,0,False
2021-12-01,0.9958500949901316,0.9937880457185923,-0.2070642240145304,1,True
2021-12-02,0.9937880457185923,0.9916384821561912,-0.2163000019633654,2,True
2021-12-03,0.9916384821561912,0.9865809451113678,-0.5100182310216916,1,True
2021-12-04,0.9865809451113678,0.9525184326919993,-3.452581624260287,8,True
2021-12-05,0.9525184326919993,0.9511042413374782,-0.14846866013126236,1,True
2021-12-06,0.9511042413374782,0.9448555435185468,-0.656994002060618,7,True
2021-12-07,0.9448555435185468,0.9533797832433945,0.9021738596255879,0,True
2021-12-08,0.9533797832433945,0.9549890474039348,0.16879570857539772,1,True
2021-12-09,0.9549890474039348,0.9538673561249608,-0.1174559312510648,0,True
2021-12-10,0.9538673561249608,0.9514846469501893,-0.24979460293631517,1,True
2021-12-11,0.9514846469501893,0.9512925381413991,-0.020190426551380813,1,True
2021-12-12,0.9512925381413991,0.9520334069801802,0.07788023232355723,0,True
2021-12-13,0.9520334069801802,0.9503605652802477,-0.1757124999676951,1,True
2021-12-14,0.9503605652802477,0.9496559880088545,-0.07413789009494964,0,True
2021-12-15,0.9496559880088545,0.9496559880088545,0.0,0,False
2021-12-16,0.9496559880088545,0.9496559880088545,0.0,0,False
2021-12-17,0.9496559880088545,0.9497761584793252,0.012654105485365719,2,True
2021-12-18,0.9497761584793252,0.9525094713737865,0.28778495544019567,0,True
2021-12-19,0.9525094713737865,0.9510232466829363,-0.15603253673758255,1,True
2021-12-20,0.9510232466829363,0.9501298670779998,-0.0939387767914579,0,True
2021-12-21,0.9501298670779998,0.9488512683385818,-0.13457094484885523,1,True
2021-12-22,0.9488512683385818,0.9490653278538075,0.022559859734450072,0,True
2021-12-23,0.9490653278538075,0.9490653278538075,0.0,0,False
2021-12-24,0.9490653278538075,0.9490653278538075,0.0,0,False
2021-12-25,0.9490653278538075,0.9498339230310431,0.08098443328170557,1,True
2021-12-26,0.9498339230310431,0.9496753217483744,-0.01669779093197432,0,True
2021-12-27,0.9496753217483744,0.9496753217483744,0.0,0,False
2021-12-28,0.9496753217483744,0.9496753217483744,0.0,0,False
2021-12-29,0.9496753217483744,0.9496753217483744,0.0,0,False
2021-12-30,0.9496753217483744,0.9496753217483744,0.0,0,False
2021-12-31,0.9496753217483744,0.9496753217483744,0.0,0,False
2022-01-01,0.9496753217483744,0.9496753217483744,0.0,0,False
2022-01-02,0.9496753217483744,0.9496753217483744,0.0,0,False
2022-01-03,0.9496753217483744,0.9496753217483744,0.0,0,False
2022-01-04,0.9496753217483744,0.9496753217483744,0.0,0,False
2022-01-05,0.9496753217483744,0.9502848146229509,0.06417907895661656,1,True
2022-01-06,0.9502848146229509,0.9422250006721511,-0.8481471898504123,9,True
2022-01-07,0.9422250006721511,0.9475006605571697,0.5599150819873389,4,True
2022-01-08,0.9475006605571697,0.9479264625969909,0.0449394979388007,0,True
2022-01-09,0.9479264625969909,0.9481724802170836,0.02595323896947832,1,True
2022-01-10,0.9481724802170836,0.9488739322976291,0.07397937560738033,0,True
2022-01-11,0.9488739322976291,0.9488739322976291,0.0,0,False
2022-01-12,0.9488739322976291,0.9488739322976291,0.0,0,False
2022-01-13,0.9488739322976291,0.9488739322976291,0.0,0,False
2022-01-14,0.9488739322976291,0.9488739322976291,0.0,0,False
2022-01-15,0.9488739322976291,0.949040070685637,0.017509005396076915,1,True
2022-01-16,0.949040070685637,0.948558424510456,-0.05075087870979322,0,True
2022-01-17,0.948558424510456,0.9495347631355466,0.1029286757528336,1,True
2022-01-18,0.9495347631355466,0.9524243358304652,0.3043145766856048,0,True
2022-01-19,0.9524243358304652,0.9524243358304652,0.0,0,False
2022-01-20,0.9524243358304652,0.9524243358304652,0.0,0,False
2022-01-21,0.9524243358304652,0.9369653413324156,-1.6231204849013081,7,True
2022-01-22,0.9369653413324156,0.9257352483658965,-1.1985601250254718,8,True
2022-01-23,0.9257352483658965,0.9302205838680958,0.4845160114748559,0,True
2022-01-24,0.9302205838680958,0.9274007628469363,-0.30313466182763094,2,True
2022-01-25,0.9274007628469363,0.9348657713638365,0.8049387940963326,0,True
2022-01-26,0.9348657713638365,0.9348657713638365,0.0,0,False
2022-01-27,0.9348657713638365,0.9411706595223627,0.6744164083928528,4,True
2022-01-28,0.9411706595223627,0.9350590964640166,-0.6493575842501986,0,True
2022-01-29,0.9350590964640166,0.9350590964640166,0.0,0,False
2022-01-30,0.9350590964640166,0.9382694049632142,0.3433268026948877,1,True
2022-01-31,0.9382694049632142,0.9376629672616866,-0.06463364342049749,0,True
2022-02-01,0.9376629672616866,0.9376629672616866,0.0,0,False
2022-02-02,0.9376629672616866,0.9376629672616866,0.0,0,False
2022-02-03,0.9376629672616866,0.9362952756310261,-0.14586175186748207,3,True
2022-02-04,0.9362952756310261,0.939200383270034,0.31027686613605,0,True
2022-02-05,0.939200383270034,0.939200383270034,0.0,0,False
2022-02-06,0.939200383270034,0.939200383270034,0.0,0,False
2022-02-07,0.939200383270034,0.939200383270034,0.0,0,False
2022-02-08,0.939200383270034,0.939200383270034,0.0,0,False
2022-02-09,0.939200383270034,0.9403108550119766,0.1182358697593644,2,True
2022-02-10,0.9403108550119766,0.9407635815707042,0.04814647797741767,5,True
2022-02-11,0.9407635815707042,0.9364254274591858,-0.4611311700943421,0,True
2022-02-12,0.9364254274591858,0.9270884440210374,-0.9970877727533023,4,True
2022-02-13,0.9270884440210374,0.9270884440210374,0.0,0,False
2022-02-14,0.9270884440210374,0.9270884440210374,0.0,0,False
2022-02-15,0.9270884440210374,0.9270884440210374,0.0,0,False
2022-02-16,0.9270884440210374,0.9270884440210374,0.0,0,False
2022-02-17,0.9270884440210374,0.9270884440210374,0.0,0,False
2022-02-18,0.9270884440210374,0.9270884440210374,0.0,0,False
2022-02-19,0.9270884440210374,0.9270884440210374,0.0,0,False
2022-02-20,0.9270884440210374,0.9270884440210374,0.0,0,False
2022-02-21,0.9270884440210374,0.9270884440210374,0.0,0,False
2022-02-22,0.9270884440210374,0.9262789839320594,-0.08731206760242971,2,True
2022-02-23,0.9262789839320594,0.9258965395969666,-0.04128824487298344,0,True
2022-02-24,0.9258965395969666,0.9166694881071094,-0.9965531887475954,4,True
2022-02-25,0.9166694881071094,0.9166694881071094,0.0,0,False
2022-02-26,0.9166694881071094,0.9166694881071094,0.0,0,False
2022-02-27,0.9166694881071094,0.9166694881071094,0.0,0,False
2022-02-28,0.9166694881071094,0.9177276863742156,0.11543945564189695,1,True
2022-03-01,0.9177276863742156,0.919078821374549,0.14722613476678692,0,True
2022-03-02,0.919078821374549,0.919078821374549,0.0,0,False
2022-03-03,0.919078821374549,0.919078821374549,0.0,0,False
2022-03-04,0.919078821374549,0.9181939802888657,-0.0962747769946426,1,True
2022-03-05,0.9181939802888657,0.9178890980846566,-0.033204552714793945,0,True
2022-03-06,0.9178890980846566,0.9148263904669223,-0.33366859069632326,3,True
2022-03-07,0.9148263904669223,0.9123248359091375,-0.2734458235849502,0,True
2022-03-08,0.9123248359091375,0.9127929894063486,0.051314343179598154,1,True
2022-03-09,0.9127929894063486,0.9168551262267335,0.4450227891240388,1,True
2022-03-10,0.9168551262267335,0.9155756584441802,-0.13954961323267012,3,True
2022-03-11,0.9155756584441802,0.9135580706666396,-0.22036275854788734,0,True
2022-03-12,0.9135580706666396,0.9135580706666396,0.0,0,False
2022-03-13,0.9135580706666396,0.9135580706666396,0.0,0,False
2022-03-14,0.9135580706666396,0.9112783603663669,-0.24954191457245978,1,True
2022-03-15,0.9112783603663669,0.9116559248019345,0.041432393436369175,1,True
2022-03-16,0.9116559248019345,0.9131932395540067,0.16862883355979186,1,True
2022-03-17,0.9131932395540067,0.9137785009621756,0.06408954674859135,1,True
2022-03-18,0.9137785009621756,0.9133448940117411,-0.047452084939392236,0,True
2022-03-19,0.9133448940117411,0.9133448940117411,0.0,0,False
2022-03-20,0.9133448940117411,0.9110637164010267,-0.24976081058434296,1,True
2022-03-21,0.9110637164010267,0.910908833314041,-0.017000247534548762,3,True
2022-03-22,0.910908833314041,0.9091003991973171,-0.1985307475990239,0,True
2022-03-23,0.9091003991973171,0.9091003991973171,0.0,0,False
2022-03-24,0.9091003991973171,0.9091003991973171,0.0,0,False
2022-03-25,0.9091003991973171,0.9091003991973171,0.0,0,False
2022-03-26,0.9091003991973171,0.9091003991973171,0.0,0,False
2022-03-27,0.9091003991973171,0.9091003991973171,0.0,0,False
2022-03-28,0.9091003991973171,0.9091003991973171,0.0,0,False
2022-03-29,0.9091003991973171,0.9091003991973171,0.0,0,False
2022-03-30,0.9091003991973171,0.9124532886431025,0.36881398894399453,4,True
2022-03-31,0.9124532886431025,0.9151936464491528,0.30032855820218973,5,True
2022-04-01,0.9151936464491528,0.9049810030523512,-1.1158997264049564,0,True
2022-04-02,0.9049810030523512,0.9049810030523512,0.0,0,False
2022-04-03,0.9049810030523512,0.9027222309809325,-0.24959331342869762,1,True
2022-04-04,0.9027222309809325,0.9027222309809325,0.0,0,False
2022-04-05,0.9027222309809325,0.9023693944549216,-0.03908583547649336,1,True
2022-04-06,0.9023693944549216,0.9023693944549216,0.0,0,False
2022-04-07,0.9023693944549216,0.9023693944549216,0.0,0,False
2022-04-08,0.9023693944549216,0.9023693944549216,0.0,0,False
2022-04-09,0.9023693944549216,0.9023693944549216,0.0,0,False
2022-04-10,0.9023693944549216,0.9023693944549216,0.0,0,False
2022-04-11,0.9023693944549216,0.9023693944549216,0.0,0,False
2022-04-12,0.9023693944549216,0.9023693944549216,0.0,0,False
2022-04-13,0.9023693944549216,0.9023693944549216,0.0,0,False
2022-04-14,0.9023693944549216,0.9023693944549216,0.0,0,False
2022-04-15,0.9023693944549216,0.9023693944549216,0.0,0,False
2022-04-16,0.9023693944549216,0.9023693944549216,0.0,0,False
2022-04-17,0.9023693944549216,0.9023693944549216,0.0,0,False
2022-04-18,0.9023693944549216,0.9023693944549216,0.0,0,False
2022-04-19,0.9023693944549216,0.9023693944549216,0.0,0,False
2022-04-20,0.9023693944549216,0.9023693944549216,0.0,0,False
2022-04-21,0.9023693944549216,0.9023693944549216,0.0,0,False
2022-04-22,0.9023693944549216,0.9023693944549216,0.0,0,False
2022-04-23,0.9023693944549216,0.9023693944549216,0.0,0,False
2022-04-24,0.9023693944549216,0.9023693944549216,0.0,0,False
2022-04-25,0.9023693944549216,0.9023693944549216,0.0,0,False
2022-04-26,0.9023693944549216,0.9023693944549216,0.0,0,False
2022-04-27,0.9023693944549216,0.9023693944549216,0.0,0,False
2022-04-28,0.9023693944549216,0.9023693944549216,0.0,0,False
2022-04-29,0.9023693944549216,0.9023693944549216,0.0,0,False
2022-04-30,0.9023693944549216,0.9023693944549216,0.0,0,False
2022-05-01,0.9023693944549216,0.9023693944549216,0.0,0,False
2022-05-02,0.9023693944549216,0.9023693944549216,0.0,0,False
2022-05-03,0.9023693944549216,0.9023693944549216,0.0,0,False
2022-05-04,0.9023693944549216,0.9023693944549216,0.0,0,False
2022-05-05,0.9023693944549216,0.9023693944549216,0.0,0,False
2022-05-06,0.9023693944549216,0.9023693944549216,0.0,0,False
2022-05-07,0.9023693944549216,0.9023693944549216,0.0,0,False
2022-05-08,0.9023693944549216,0.9023693944549216,0.0,0,False
2022-05-09,0.9023693944549216,0.9023693944549216,0.0,0,False
2022-05-10,0.9023693944549216,0.9023693944549216,0.0,0,False
2022-05-11,0.9023693944549216,0.9023693944549216,0.0,0,False
2022-05-12,0.9023693944549216,0.9023693944549216,0.0,0,False
2022-05-13,0.9023693944549216,0.9023693944549216,0.0,0,False
2022-05-14,0.9023693944549216,0.9023693944549216,0.0,0,False
2022-05-15,0.9023693944549216,0.9023693944549216,0.0,0,False
2022-05-16,0.9023693944549216,0.9023693944549216,0.0,0,False
2022-05-17,0.9023693944549216,0.9023693944549216,0.0,0,False
2022-05-18,0.9023693944549216,0.9023693944549216,0.0,0,False
2022-05-19,0.9023693944549216,0.9023693944549216,0.0,0,False
2022-05-20,0.9023693944549216,0.9023693944549216,0.0,0,False
2022-05-21,0.9023693944549216,0.9023693944549216,0.0,0,False
2022-05-22,0.9023693944549216,0.9023693944549216,0.0,0,False
2022-05-23,0.9023693944549216,0.9023693944549216,0.0,0,False
2022-05-24,0.9023693944549216,0.9023693944549216,0.0,0,False
2022-05-25,0.9023693944549216,0.9023693944549216,0.0,0,False
2022-05-26,0.9023693944549216,0.9023693944549216,0.0,0,False
2022-05-27,0.9023693944549216,0.9023693944549216,0.0,0,False
2022-05-28,0.9023693944549216,0.9023693944549216,0.0,0,False
2022-05-29,0.9023693944549216,0.9023693944549216,0.0,0,False
2022-05-30,0.9023693944549216,0.9023693944549216,0.0,0,False
2022-05-31,0.9023693944549216,0.9023693944549216,0.0,0,False
2022-06-01,0.9023693944549216,0.9023693944549216,0.0,0,False
2022-06-02,0.9023693944549216,0.9023693944549216,0.0,0,False
2022-06-03,0.9023693944549216,0.9023693944549216,0.0,0,False
2022-06-04,0.9023693944549216,0.9023693944549216,0.0,0,False
2022-06-05,0.9023693944549216,0.9023693944549216,0.0,0,False
2022-06-06,0.9023693944549216,0.9023693944549216,0.0,0,False
2022-06-07,0.9023693944549216,0.9023693944549216,0.0,0,False
2022-06-08,0.9023693944549216,0.9023693944549216,0.0,0,False
2022-06-09,0.9023693944549216,0.9023693944549216,0.0,0,False
2022-06-10,0.9023693944549216,0.9023693944549216,0.0,0,False
2022-06-11,0.9023693944549216,0.9023693944549216,0.0,0,False
2022-06-12,0.9023693944549216,0.9023693944549216,0.0,0,False
2022-06-13,0.9023693944549216,0.9023693944549216,0.0,0,False
2022-06-14,0.9023693944549216,0.9023693944549216,0.0,0,False
2022-06-15,0.9023693944549216,0.9023693944549216,0.0,0,False
2022-06-16,0.9023693944549216,0.9023693944549216,0.0,0,False
2022-06-17,0.9023693944549216,0.9023693944549216,0.0,0,False
2022-06-18,0.9023693944549216,0.9023693944549216,0.0,0,False
2022-06-19,0.9023693944549216,0.9023693944549216,0.0,0,False
2022-06-20,0.9023693944549216,0.9023693944549216,0.0,0,False
2022-06-21,0.9023693944549216,0.9023693944549216,0.0,0,False
2022-06-22,0.9023693944549216,0.9023693944549216,0.0,0,False
2022-06-23,0.9023693944549216,0.9023693944549216,0.0,0,False
2022-06-24,0.9023693944549216,0.9023693944549216,0.0,0,False
2022-06-25,0.9023693944549216,0.9023693944549216,0.0,0,False
2022-06-26,0.9023693944549216,0.9023693944549216,0.0,0,False
2022-06-27,0.9023693944549216,0.9023693944549216,0.0,0,False
2022-06-28,0.9023693944549216,0.9023693944549216,0.0,0,False
2022-06-29,0.9023693944549216,0.9023693944549216,0.0,0,False
2022-06-30,0.9023693944549216,0.9023693944549216,0.0,0,False
2022-07-01,0.9023693944549216,0.9023693944549216,0.0,0,False
2022-07-02,0.9023693944549216,0.9023693944549216,0.0,0,False
2022-07-03,0.9023693944549216,0.9023693944549216,0.0,0,False
2022-07-04,0.9023693944549216,0.9023693944549216,0.0,0,False
2022-07-05,0.9023693944549216,0.9023693944549216,0.0,0,False
2022-07-06,0.9023693944549216,0.9023693944549216,0.0,0,False
2022-07-07,0.9023693944549216,0.9023693944549216,0.0,0,False
2022-07-08,0.9023693944549216,0.9023693944549216,0.0,0,False
2022-07-09,0.9023693944549216,0.9023693944549216,0.0,0,False
2022-07-10,0.9023693944549216,0.9023693944549216,0.0,0,False
2022-07-11,0.9023693944549216,0.9023693944549216,0.0,0,False
2022-07-12,0.9023693944549216,0.9023693944549216,0.0,0,False
2022-07-13,0.9023693944549216,0.9023693944549216,0.0,0,False
2022-07-14,0.9023693944549216,0.9023693944549216,0.0,0,False
2022-07-15,0.9023693944549216,0.9023693944549216,0.0,0,False
2022-07-16,0.9023693944549216,0.9023693944549216,0.0,0,False
2022-07-17,0.9023693944549216,0.9023693944549216,0.0,0,False
2022-07-18,0.9023693944549216,0.9023693944549216,0.0,0,False
2022-07-19,0.9023693944549216,0.9023693944549216,0.0,0,False
2022-07-20,0.9023693944549216,0.9023693944549216,0.0,0,False
2022-07-21,0.9023693944549216,0.9023693944549216,0.0,0,False
2022-07-22,0.9023693944549216,0.9023693944549216,0.0,0,False
2022-07-23,0.9023693944549216,0.9023693944549216,0.0,0,False
2022-07-24,0.9023693944549216,0.9023693944549216,0.0,0,False
2022-07-25,0.9023693944549216,0.9023693944549216,0.0,0,False
2022-07-26,0.9023693944549216,0.9023693944549216,0.0,0,False
2022-07-27,0.9023693944549216,0.9023693944549216,0.0,0,False
2022-07-28,0.9023693944549216,0.9023693944549216,0.0,0,False
2022-07-29,0.9023693944549216,0.9023693944549216,0.0,0,False
2022-07-30,0.9023693944549216,0.9023693944549216,0.0,0,False
2022-07-31,0.9023693944549216,0.9023693944549216,0.0,0,False
2022-08-01,0.9023693944549216,0.9023693944549216,0.0,0,False
2022-08-02,0.9023693944549216,0.9023693944549216,0.0,0,False
2022-08-03,0.9023693944549216,0.9023693944549216,0.0,0,False
2022-08-04,0.9023693944549216,0.9023693944549216,0.0,0,False
2022-08-05,0.9023693944549216,0.9023693944549216,0.0,0,False
2022-08-06,0.9023693944549216,0.9023693944549216,0.0,0,False
2022-08-07,0.9023693944549216,0.9023693944549216,0.0,0,False
2022-08-08,0.9023693944549216,0.9023693944549216,0.0,0,False
2022-08-09,0.9023693944549216,0.9023693944549216,0.0,0,False
2022-08-10,0.9023693944549216,0.9023693944549216,0.0,0,False
2022-08-11,0.9023693944549216,0.9023693944549216,0.0,0,False
2022-08-12,0.9023693944549216,0.9023693944549216,0.0,0,False
2022-08-13,0.9023693944549216,0.9023693944549216,0.0,0,False
2022-08-14,0.9023693944549216,0.9023693944549216,0.0,0,False
2022-08-15,0.9023693944549216,0.9023693944549216,0.0,0,False
2022-08-16,0.9023693944549216,0.9023693944549216,0.0,0,False
2022-08-17,0.9023693944549216,0.9023693944549216,0.0,0,False
2022-08-18,0.9023693944549216,0.9023693944549216,0.0,0,False
2022-08-19,0.9023693944549216,0.9023693944549216,0.0,0,False
2022-08-20,0.9023693944549216,0.9023693944549216,0.0,0,False
2022-08-21,0.9023693944549216,0.9023693944549216,0.0,0,False
2022-08-22,0.9023693944549216,0.9023693944549216,0.0,0,False
2022-08-23,0.9023693944549216,0.9023693944549216,0.0,0,False
2022-08-24,0.9023693944549216,0.9023693944549216,0.0,0,False
2022-08-25,0.9023693944549216,0.9023693944549216,0.0,0,False
2022-08-26,0.9023693944549216,0.9023693944549216,0.0,0,False
2022-08-27,0.9023693944549216,0.9023693944549216,0.0,0,False
2022-08-28,0.9023693944549216,0.9023693944549216,0.0,0,False
2022-08-29,0.9023693944549216,0.9023693944549216,0.0,0,False
2022-08-30,0.9023693944549216,0.9023693944549216,0.0,0,False
2022-08-31,0.9023693944549216,0.9023693944549216,0.0,0,False
2022-09-01,0.9023693944549216,0.9023693944549216,0.0,0,False
2022-09-02,0.9023693944549216,0.9023693944549216,0.0,0,False
2022-09-03,0.9023693944549216,0.9023693944549216,0.0,0,False
2022-09-04,0.9023693944549216,0.9023693944549216,0.0,0,False
2022-09-05,0.9023693944549216,0.9023693944549216,0.0,0,False
2022-09-06,0.9023693944549216,0.9023693944549216,0.0,0,False
2022-09-07,0.9023693944549216,0.9023693944549216,0.0,0,False
2022-09-08,0.9023693944549216,0.9023693944549216,0.0,0,False
2022-09-09,0.9023693944549216,0.9023693944549216,0.0,0,False
2022-09-10,0.9023693944549216,0.9023693944549216,0.0,0,False
2022-09-11,0.9023693944549216,0.9023693944549216,0.0,0,False
2022-09-12,0.9023693944549216,0.9023693944549216,0.0,0,False
2022-09-13,0.9023693944549216,0.9023693944549216,0.0,0,False
2022-09-14,0.9023693944549216,0.9023693944549216,0.0,0,False
2022-09-15,0.9023693944549216,0.9023693944549216,0.0,0,False
2022-09-16,0.9023693944549216,0.9023693944549216,0.0,0,False
2022-09-17,0.9023693944549216,0.9023693944549216,0.0,0,False
2022-09-18,0.9023693944549216,0.9023693944549216,0.0,0,False
2022-09-19,0.9023693944549216,0.9023693944549216,0.0,0,False
2022-09-20,0.9023693944549216,0.9023693944549216,0.0,0,False
2022-09-21,0.9023693944549216,0.9023693944549216,0.0,0,False
2022-09-22,0.9023693944549216,0.9023693944549216,0.0,0,False
2022-09-23,0.9023693944549216,0.9023693944549216,0.0,0,False
2022-09-24,0.9023693944549216,0.9023693944549216,0.0,0,False
2022-09-25,0.9023693944549216,0.9023693944549216,0.0,0,False
2022-09-26,0.9023693944549216,0.9023693944549216,0.0,0,False
2022-09-27,0.9023693944549216,0.9023693944549216,0.0,0,False
2022-09-28,0.9023693944549216,0.9023693944549216,0.0,0,False
2022-09-29,0.9023693944549216,0.9023693944549216,0.0,0,False
2022-09-30,0.9023693944549216,0.9023693944549216,0.0,0,False
2022-10-01,0.9023693944549216,0.9023693944549216,0.0,0,False
2022-10-02,0.9023693944549216,0.9023693944549216,0.0,0,False
2022-10-03,0.9023693944549216,0.9023693944549216,0.0,0,False
2022-10-04,0.9023693944549216,0.9023693944549216,0.0,0,False
2022-10-05,0.9023693944549216,0.9023693944549216,0.0,0,False
2022-10-06,0.9023693944549216,0.9023693944549216,0.0,0,False
2022-10-07,0.9023693944549216,0.9023693944549216,0.0,0,False
2022-10-08,0.9023693944549216,0.9023693944549216,0.0,0,False
2022-10-09,0.9023693944549216,0.9023693944549216,0.0,0,False
2022-10-10,0.9023693944549216,0.9023693944549216,0.0,0,False
2022-10-11,0.9023693944549216,0.9023693944549216,0.0,0,False
2022-10-12,0.9023693944549216,0.9023693944549216,0.0,0,False
2022-10-13,0.9023693944549216,0.9023693944549216,0.0,0,False
2022-10-14,0.9023693944549216,0.9023693944549216,0.0,0,False
2022-10-15,0.9023693944549216,0.9023693944549216,0.0,0,False
2022-10-16,0.9023693944549216,0.9023693944549216,0.0,0,False
2022-10-17,0.9023693944549216,0.9023693944549216,0.0,0,False
2022-10-18,0.9023693944549216,0.9023693944549216,0.0,0,False
2022-10-19,0.9023693944549216,0.9023693944549216,0.0,0,False
2022-10-20,0.9023693944549216,0.9023693944549216,0.0,0,False
2022-10-21,0.9023693944549216,0.9023693944549216,0.0,0,False
2022-10-22,0.9023693944549216,0.9023693944549216,0.0,0,False
2022-10-23,0.9023693944549216,0.9023693944549216,0.0,0,False
2022-10-24,0.9023693944549216,0.9023693944549216,0.0,0,False
2022-10-25,0.9023693944549216,0.9023693944549216,0.0,0,False
2022-10-26,0.9023693944549216,0.9023693944549216,0.0,0,False
2022-10-27,0.9023693944549216,0.9023693944549216,0.0,0,False
2022-10-28,0.9023693944549216,0.9023693944549216,0.0,0,False
2022-10-29,0.9023693944549216,0.9023693944549216,0.0,0,False
2022-10-30,0.9023693944549216,0.9023693944549216,0.0,0,False
2022-10-31,0.9023693944549216,0.9023693944549216,0.0,0,False
2022-11-01,0.9023693944549216,0.9023693944549216,0.0,0,False
2022-11-02,0.9023693944549216,0.9023693944549216,0.0,0,False
2022-11-03,0.9023693944549216,0.9023693944549216,0.0,0,False
2022-11-04,0.9023693944549216,0.9023693944549216,0.0,0,False
2022-11-05,0.9023693944549216,0.9023693944549216,0.0,0,False
2022-11-06,0.9023693944549216,0.9023693944549216,0.0,0,False
2022-11-07,0.9023693944549216,0.9023693944549216,0.0,0,False
2022-11-08,0.9023693944549216,0.9023693944549216,0.0,0,False
2022-11-09,0.9023693944549216,0.9023693944549216,0.0,0,False
2022-11-10,0.9023693944549216,0.9023693944549216,0.0,0,False
2022-11-11,0.9023693944549216,0.9023693944549216,0.0,0,False
2022-11-12,0.9023693944549216,0.9023693944549216,0.0,0,False
2022-11-13,0.9023693944549216,0.9023693944549216,0.0,0,False
2022-11-14,0.9023693944549216,0.9023693944549216,0.0,0,False
2022-11-15,0.9023693944549216,0.9023693944549216,0.0,0,False
2022-11-16,0.9023693944549216,0.9023693944549216,0.0,0,False
2022-11-17,0.9023693944549216,0.9023693944549216,0.0,0,False
2022-11-18,0.9023693944549216,0.9023693944549216,0.0,0,False
2022-11-19,0.9023693944549216,0.9023693944549216,0.0,0,False
2022-11-20,0.9023693944549216,0.9023693944549216,0.0,0,False
2022-11-21,0.9023693944549216,0.9023693944549216,0.0,0,False
2022-11-22,0.9023693944549216,0.9023693944549216,0.0,0,False
2022-11-23,0.9023693944549216,0.9023693944549216,0.0,0,False
2022-11-24,0.9023693944549216,0.9023693944549216,0.0,0,False
2022-11-25,0.9023693944549216,0.9023693944549216,0.0,0,False
2022-11-26,0.9023693944549216,0.9023693944549216,0.0,0,False
2022-11-27,0.9023693944549216,0.9023693944549216,0.0,0,False
2022-11-28,0.9023693944549216,0.9023693944549216,0.0,0,False
2022-11-29,0.9023693944549216,0.9023693944549216,0.0,0,False
2022-11-30,0.9023693944549216,0.9023693944549216,0.0,0,False
2022-12-01,0.9023693944549216,0.9023693944549216,0.0,0,False
2022-12-02,0.9023693944549216,0.9023693944549216,0.0,0,False
2022-12-03,0.9023693944549216,0.9023693944549216,0.0,0,False
2022-12-04,0.9023693944549216,0.9023693944549216,0.0,0,False
2022-12-05,0.9023693944549216,0.9023693944549216,0.0,0,False
2022-12-06,0.9023693944549216,0.9023693944549216,0.0,0,False
2022-12-07,0.9023693944549216,0.9023693944549216,0.0,0,False
2022-12-08,0.9023693944549216,0.9023693944549216,0.0,0,False
2022-12-09,0.9023693944549216,0.9023693944549216,0.0,0,False
2022-12-10,0.9023693944549216,0.9023693944549216,0.0,0,False
2022-12-11,0.9023693944549216,0.9023693944549216,0.0,0,False
2022-12-12,0.9023693944549216,0.9023693944549216,0.0,0,False
2022-12-13,0.9023693944549216,0.9023693944549216,0.0,0,False
2022-12-14,0.9023693944549216,0.9023693944549216,0.0,0,False
2022-12-15,0.9023693944549216,0.9023693944549216,0.0,0,False
2022-12-16,0.9023693944549216,0.9023693944549216,0.0,0,False
2022-12-17,0.9023693944549216,0.9023693944549216,0.0,0,False
2022-12-18,0.9023693944549216,0.9023693944549216,0.0,0,False
2022-12-19,0.9023693944549216,0.9023693944549216,0.0,0,False
2022-12-20,0.9023693944549216,0.9023693944549216,0.0,0,False
2022-12-21,0.9023693944549216,0.9023693944549216,0.0,0,False
2022-12-22,0.9023693944549216,0.9023693944549216,0.0,0,False
2022-12-23,0.9023693944549216,0.9023693944549216,0.0,0,False
2022-12-24,0.9023693944549216,0.9023693944549216,0.0,0,False
2022-12-25,0.9023693944549216,0.9023693944549216,0.0,0,False
2022-12-26,0.9023693944549216,0.9023693944549216,0.0,0,False
2022-12-27,0.9023693944549216,0.9023693944549216,0.0,0,False
2022-12-28,0.9023693944549216,0.9023693944549216,0.0,0,False
2022-12-29,0.9023693944549216,0.9023693944549216,0.0,0,False
2022-12-30,0.9023693944549216,0.9023693944549216,0.0,0,False
2022-12-31,0.9023693944549216,0.9023693944549216,0.0,0,False
2023-01-01,0.9023693944549216,0.9023693944549216,0.0,0,False
2023-01-02,0.9023693944549216,0.9023693944549216,0.0,0,False
2023-01-03,0.9023693944549216,0.9023693944549216,0.0,0,False
2023-01-04,0.9023693944549216,0.9023693944549216,0.0,0,False
2023-01-05,0.9023693944549216,0.9023693944549216,0.0,0,False
2023-01-06,0.9023693944549216,0.9023693944549216,0.0,0,False
2023-01-07,0.9023693944549216,0.9023693944549216,0.0,0,False
2023-01-08,0.9023693944549216,0.9023693944549216,0.0,0,False
2023-01-09,0.9023693944549216,0.9023693944549216,0.0,0,False
2023-01-10,0.9023693944549216,0.9023693944549216,0.0,0,False
2023-01-11,0.9023693944549216,0.9023693944549216,0.0,0,False
2023-01-12,0.9023693944549216,0.9023693944549216,0.0,0,False
2023-01-13,0.9023693944549216,0.9023693944549216,0.0,0,False
2023-01-14,0.9023693944549216,0.9023693944549216,0.0,0,False
2023-01-15,0.9023693944549216,0.9023693944549216,0.0,0,False
2023-01-16,0.9023693944549216,0.9023693944549216,0.0,0,False
2023-01-17,0.9023693944549216,0.9023693944549216,0.0,0,False
2023-01-18,0.9023693944549216,0.9023693944549216,0.0,0,False
2023-01-19,0.9023693944549216,0.9023693944549216,0.0,0,False
2023-01-20,0.9023693944549216,0.9023693944549216,0.0,0,False
2023-01-21,0.9023693944549216,0.9023693944549216,0.0,0,False
2023-01-22,0.9023693944549216,0.9023693944549216,0.0,0,False
2023-01-23,0.9023693944549216,0.9023693944549216,0.0,0,False
2023-01-24,0.9023693944549216,0.9023693944549216,0.0,0,False
2023-01-25,0.9023693944549216,0.9023693944549216,0.0,0,False
2023-01-26,0.9023693944549216,0.9023693944549216,0.0,0,False
2023-01-27,0.9023693944549216,0.9023693944549216,0.0,0,False
2023-01-28,0.9023693944549216,0.9023693944549216,0.0,0,False
2023-01-29,0.9023693944549216,0.9023693944549216,0.0,0,False
2023-01-30,0.9023693944549216,0.9023693944549216,0.0,0,False
2023-01-31,0.9023693944549216,0.9023693944549216,0.0,0,False
2023-02-01,0.9023693944549216,0.9023693944549216,0.0,0,False
2023-02-02,0.9023693944549216,0.9023693944549216,0.0,0,False
2023-02-03,0.9023693944549216,0.9023693944549216,0.0,0,False
2023-02-04,0.9023693944549216,0.9023693944549216,0.0,0,False
2023-02-05,0.9023693944549216,0.9023693944549216,0.0,0,False
2023-02-06,0.9023693944549216,0.9023693944549216,0.0,0,False
2023-02-07,0.9023693944549216,0.9023693944549216,0.0,0,False
2023-02-08,0.9023693944549216,0.9023693944549216,0.0,0,False
2023-02-09,0.9023693944549216,0.9023693944549216,0.0,0,False
2023-02-10,0.9023693944549216,0.9023693944549216,0.0,0,False
2023-02-11,0.9023693944549216,0.9023693944549216,0.0,0,False
2023-02-12,0.9023693944549216,0.9023693944549216,0.0,0,False
2023-02-13,0.9023693944549216,0.9023693944549216,0.0,0,False
2023-02-14,0.9023693944549216,0.9023693944549216,0.0,0,False
2023-02-15,0.9023693944549216,0.9023693944549216,0.0,0,False
2023-02-16,0.9023693944549216,0.9023693944549216,0.0,0,False
2023-02-17,0.9023693944549216,0.9023693944549216,0.0,0,False
2023-02-18,0.9023693944549216,0.9023693944549216,0.0,0,False
2023-02-19,0.9023693944549216,0.9023693944549216,0.0,0,False
2023-02-20,0.9023693944549216,0.9023693944549216,0.0,0,False
2023-02-21,0.9023693944549216,0.9023693944549216,0.0,0,False
2023-02-22,0.9023693944549216,0.9023693944549216,0.0,0,False
2023-02-23,0.9023693944549216,0.9023693944549216,0.0,0,False
2023-02-24,0.9023693944549216,0.9023693944549216,0.0,0,False
2023-02-25,0.9023693944549216,0.9023693944549216,0.0,0,False
2023-02-26,0.9023693944549216,0.9023693944549216,0.0,0,False
2023-02-27,0.9023693944549216,0.9023693944549216,0.0,0,False
2023-02-28,0.9023693944549216,0.9023693944549216,0.0,0,False
2023-03-01,0.9023693944549216,0.9023693944549216,0.0,0,False
2023-03-02,0.9023693944549216,0.9023693944549216,0.0,0,False
2023-03-03,0.9023693944549216,0.9023693944549216,0.0,0,False
2023-03-04,0.9023693944549216,0.9023693944549216,0.0,0,False
2023-03-05,0.9023693944549216,0.9023693944549216,0.0,0,False
2023-03-06,0.9023693944549216,0.9023693944549216,0.0,0,False
2023-03-07,0.9023693944549216,0.9023693944549216,0.0,0,False
2023-03-08,0.9023693944549216,0.9023693944549216,0.0,0,False
2023-03-09,0.9023693944549216,0.9023693944549216,0.0,0,False
2023-03-10,0.9023693944549216,0.9023693944549216,0.0,0,False
2023-03-11,0.9023693944549216,0.9023693944549216,0.0,0,False
2023-03-12,0.9023693944549216,0.9023693944549216,0.0,0,False
2023-03-13,0.9023693944549216,0.9023693944549216,0.0,0,False
2023-03-14,0.9023693944549216,0.9023693944549216,0.0,0,False
2023-03-15,0.9023693944549216,0.9023693944549216,0.0,0,False
2023-03-16,0.9023693944549216,0.9023693944549216,0.0,0,False
2023-03-17,0.9023693944549216,0.9023693944549216,0.0,0,False
2023-03-18,0.9023693944549216,0.9023693944549216,0.0,0,False
2023-03-19,0.9023693944549216,0.9023693944549216,0.0,0,False
2023-03-20,0.9023693944549216,0.9023693944549216,0.0,0,False
2023-03-21,0.9023693944549216,0.9023693944549216,0.0,0,False
2023-03-22,0.9023693944549216,0.9023693944549216,0.0,0,False
2023-03-23,0.9023693944549216,0.9023693944549216,0.0,0,False
2023-03-24,0.9023693944549216,0.9023693944549216,0.0,0,False
2023-03-25,0.9023693944549216,0.9023693944549216,0.0,0,False
2023-03-26,0.9023693944549216,0.9023693944549216,0.0,0,False
2023-03-27,0.9023693944549216,0.9023693944549216,0.0,0,False
2023-03-28,0.9023693944549216,0.9023693944549216,0.0,0,False
2023-03-29,0.9023693944549216,0.9023693944549216,0.0,0,False
2023-03-30,0.9023693944549216,0.9023693944549216,0.0,0,False
2023-03-31,0.9023693944549216,0.9023693944549216,0.0,0,False
2023-04-01,0.9023693944549216,0.9023693944549216,0.0,0,False
2023-04-02,0.9023693944549216,0.9023693944549216,0.0,0,False
2023-04-03,0.9023693944549216,0.9023693944549216,0.0,0,False
2023-04-04,0.9023693944549216,0.9023693944549216,0.0,0,False
2023-04-05,0.9023693944549216,0.9023693944549216,0.0,0,False
2023-04-06,0.9023693944549216,0.9023693944549216,0.0,0,False
2023-04-07,0.9023693944549216,0.9023693944549216,0.0,0,False
2023-04-08,0.9023693944549216,0.9023693944549216,0.0,0,False
2023-04-09,0.9023693944549216,0.9023693944549216,0.0,0,False
2023-04-10,0.9023693944549216,0.9023693944549216,0.0,0,False
2023-04-11,0.9023693944549216,0.9023693944549216,0.0,0,False
2023-04-12,0.9023693944549216,0.9023693944549216,0.0,0,False
2023-04-13,0.9023693944549216,0.9023693944549216,0.0,0,False
2023-04-14,0.9023693944549216,0.9023693944549216,0.0,0,False
2023-04-15,0.9023693944549216,0.9023693944549216,0.0,0,False
2023-04-16,0.9023693944549216,0.9023693944549216,0.0,0,False
2023-04-17,0.9023693944549216,0.9023693944549216,0.0,0,False
2023-04-18,0.9023693944549216,0.9023693944549216,0.0,0,False
2023-04-19,0.9023693944549216,0.9023693944549216,0.0,0,False
2023-04-20,0.9023693944549216,0.9023693944549216,0.0,0,False
2023-04-21,0.9023693944549216,0.9023693944549216,0.0,0,False
2023-04-22,0.9023693944549216,0.9023693944549216,0.0,0,False
2023-04-23,0.9023693944549216,0.9023693944549216,0.0,0,False
2023-04-24,0.9023693944549216,0.9023693944549216,0.0,0,False
2023-04-25,0.9023693944549216,0.9023693944549216,0.0,0,False
2023-04-26,0.9023693944549216,0.9023693944549216,0.0,0,False
2023-04-27,0.9023693944549216,0.9023693944549216,0.0,0,False
2023-04-28,0.9023693944549216,0.9023693944549216,0.0,0,False
2023-04-29,0.9023693944549216,0.9023693944549216,0.0,0,False
2023-04-30,0.9023693944549216,0.9023693944549216,0.0,0,False
2023-05-01,0.9023693944549216,0.9023693944549216,0.0,0,False
2023-05-02,0.9023693944549216,0.9023693944549216,0.0,0,False
2023-05-03,0.9023693944549216,0.9023693944549216,0.0,0,False
2023-05-04,0.9023693944549216,0.9023693944549216,0.0,0,False
2023-05-05,0.9023693944549216,0.9023693944549216,0.0,0,False
2023-05-06,0.9023693944549216,0.9023693944549216,0.0,0,False
2023-05-07,0.9023693944549216,0.9023693944549216,0.0,0,False
2023-05-08,0.9023693944549216,0.9023693944549216,0.0,0,False
2023-05-09,0.9023693944549216,0.9023693944549216,0.0,0,False
2023-05-10,0.9023693944549216,0.9023693944549216,0.0,0,False
2023-05-11,0.9023693944549216,0.9023693944549216,0.0,0,False
2023-05-12,0.9023693944549216,0.9023693944549216,0.0,0,False
2023-05-13,0.9023693944549216,0.9023693944549216,0.0,0,False
2023-05-14,0.9023693944549216,0.9023693944549216,0.0,0,False
2023-05-15,0.9023693944549216,0.9023693944549216,0.0,0,False
2023-05-16,0.9023693944549216,0.9023693944549216,0.0,0,False
2023-05-17,0.9023693944549216,0.9023693944549216,0.0,0,False
2023-05-18,0.9023693944549216,0.9023693944549216,0.0,0,False
2023-05-19,0.9023693944549216,0.9023693944549216,0.0,0,False
2023-05-20,0.9023693944549216,0.9023693944549216,0.0,0,False
2023-05-21,0.9023693944549216,0.9023693944549216,0.0,0,False
2023-05-22,0.9023693944549216,0.9023693944549216,0.0,0,False
2023-05-23,0.9023693944549216,0.9023693944549216,0.0,0,False
2023-05-24,0.9023693944549216,0.9023693944549216,0.0,0,False
2023-05-25,0.9023693944549216,0.9023693944549216,0.0,0,False
2023-05-26,0.9023693944549216,0.9023693944549216,0.0,0,False
2023-05-27,0.9023693944549216,0.9023693944549216,0.0,0,False
2023-05-28,0.9023693944549216,0.9023693944549216,0.0,0,False
2023-05-29,0.9023693944549216,0.9023693944549216,0.0,0,False
2023-05-30,0.9023693944549216,0.9023693944549216,0.0,0,False
2023-05-31,0.9023693944549216,0.9023693944549216,0.0,0,False
2023-06-01,0.9023693944549216,0.9023693944549216,0.0,0,False
2023-06-02,0.9023693944549216,0.9023693944549216,0.0,0,False
2023-06-03,0.9023693944549216,0.9023693944549216,0.0,0,False
2023-06-04,0.9023693944549216,0.9023693944549216,0.0,0,False
2023-06-05,0.9023693944549216,0.9023693944549216,0.0,0,False
2023-06-06,0.9023693944549216,0.9023693944549216,0.0,0,False
2023-06-07,0.9023693944549216,0.9023693944549216,0.0,0,False
2023-06-08,0.9023693944549216,0.9023693944549216,0.0,0,False
2023-06-09,0.9023693944549216,0.9023693944549216,0.0,0,False
2023-06-10,0.9023693944549216,0.9023693944549216,0.0,0,False
2023-06-11,0.9023693944549216,0.9023693944549216,0.0,0,False
2023-06-12,0.9023693944549216,0.9023693944549216,0.0,0,False
2023-06-13,0.9023693944549216,0.9023693944549216,0.0,0,False
2023-06-14,0.9023693944549216,0.9023693944549216,0.0,0,False
2023-06-15,0.9023693944549216,0.9023693944549216,0.0,0,False
2023-06-16,0.9023693944549216,0.9023693944549216,0.0,0,False
2023-06-17,0.9023693944549216,0.9023693944549216,0.0,0,False
2023-06-18,0.9023693944549216,0.9023693944549216,0.0,0,False
2023-06-19,0.9023693944549216,0.9023693944549216,0.0,0,False
2023-06-20,0.9023693944549216,0.9023693944549216,0.0,0,False
2023-06-21,0.9023693944549216,0.9023693944549216,0.0,0,False
2023-06-22,0.9023693944549216,0.9023693944549216,0.0,0,False
2023-06-23,0.9023693944549216,0.9023693944549216,0.0,0,False
2023-06-24,0.9023693944549216,0.9023693944549216,0.0,0,False
2023-06-25,0.9023693944549216,0.9023693944549216,0.0,0,False
2023-06-26,0.9023693944549216,0.9023693944549216,0.0,0,False
2023-06-27,0.9023693944549216,0.9023693944549216,0.0,0,False
2023-06-28,0.9023693944549216,0.9023693944549216,0.0,0,False
2023-06-29,0.9023693944549216,0.9023693944549216,0.0,0,False
2023-06-30,0.9023693944549216,0.9023693944549216,0.0,0,False
2023-07-01,0.9023693944549216,0.9023693944549216,0.0,0,False
2023-07-02,0.9023693944549216,0.9023693944549216,0.0,0,False
2023-07-03,0.9023693944549216,0.9023693944549216,0.0,0,False
2023-07-04,0.9023693944549216,0.9023693944549216,0.0,0,False
2023-07-05,0.9023693944549216,0.9023693944549216,0.0,0,False
2023-07-06,0.9023693944549216,0.9023693944549216,0.0,0,False
2023-07-07,0.9023693944549216,0.9023693944549216,0.0,0,False
2023-07-08,0.9023693944549216,0.9023693944549216,0.0,0,False
2023-07-09,0.9023693944549216,0.9023693944549216,0.0,0,False
2023-07-10,0.9023693944549216,0.9023693944549216,0.0,0,False
2023-07-11,0.9023693944549216,0.9023693944549216,0.0,0,False
2023-07-12,0.9023693944549216,0.9023693944549216,0.0,0,False
2023-07-13,0.9023693944549216,0.9023693944549216,0.0,0,False
2023-07-14,0.9023693944549216,0.9023693944549216,0.0,0,False
2023-07-15,0.9023693944549216,0.9023693944549216,0.0,0,False
2023-07-16,0.9023693944549216,0.9023693944549216,0.0,0,False
2023-07-17,0.9023693944549216,0.9023693944549216,0.0,0,False
2023-07-18,0.9023693944549216,0.9023693944549216,0.0,0,False
2023-07-19,0.9023693944549216,0.9023693944549216,0.0,0,False
2023-07-20,0.9023693944549216,0.9023693944549216,0.0,0,False
2023-07-21,0.9023693944549216,0.9023693944549216,0.0,0,False
2023-07-22,0.9023693944549216,0.9023693944549216,0.0,0,False
2023-07-23,0.9023693944549216,0.9023693944549216,0.0,0,False
2023-07-24,0.9023693944549216,0.9023693944549216,0.0,0,False
2023-07-25,0.9023693944549216,0.9023693944549216,0.0,0,False
2023-07-26,0.9023693944549216,0.9023693944549216,0.0,0,False
2023-07-27,0.9023693944549216,0.9023693944549216,0.0,0,False
2023-07-28,0.9023693944549216,0.9023693944549216,0.0,0,False
2023-07-29,0.9023693944549216,0.9023693944549216,0.0,0,False
2023-07-30,0.9023693944549216,0.9023693944549216,0.0,0,False
2023-07-31,0.9023693944549216,0.9023693944549216,0.0,0,False
2023-08-01,0.9023693944549216,0.9023693944549216,0.0,0,False
2023-08-02,0.9023693944549216,0.9023693944549216,0.0,0,False
2023-08-03,0.9023693944549216,0.9023693944549216,0.0,0,False
2023-08-04,0.9023693944549216,0.9023693944549216,0.0,0,False
2023-08-05,0.9023693944549216,0.9023693944549216,0.0,0,False
2023-08-06,0.9023693944549216,0.9023693944549216,0.0,0,False
2023-08-07,0.9023693944549216,0.9023693944549216,0.0,0,False
2023-08-08,0.9023693944549216,0.9023693944549216,0.0,0,False
2023-08-09,0.9023693944549216,0.9023693944549216,0.0,0,False
2023-08-10,0.9023693944549216,0.9023693944549216,0.0,0,False
2023-08-11,0.9023693944549216,0.9023693944549216,0.0,0,False
2023-08-12,0.9023693944549216,0.9023693944549216,0.0,0,False
2023-08-13,0.9023693944549216,0.9023693944549216,0.0,0,False
2023-08-14,0.9023693944549216,0.9023693944549216,0.0,0,False
2023-08-15,0.9023693944549216,0.9023693944549216,0.0,0,False
2023-08-16,0.9023693944549216,0.9023693944549216,0.0,0,False
2023-08-17,0.9023693944549216,0.9023693944549216,0.0,0,False
2023-08-18,0.9023693944549216,0.9023693944549216,0.0,0,False
2023-08-19,0.9023693944549216,0.9023693944549216,0.0,0,False
2023-08-20,0.9023693944549216,0.9023693944549216,0.0,0,False
2023-08-21,0.9023693944549216,0.9023693944549216,0.0,0,False
2023-08-22,0.9023693944549216,0.9023693944549216,0.0,0,False
2023-08-23,0.9023693944549216,0.9023693944549216,0.0,0,False
2023-08-24,0.9023693944549216,0.9023693944549216,0.0,0,False
2023-08-25,0.9023693944549216,0.9023693944549216,0.0,0,False
2023-08-26,0.9023693944549216,0.9023693944549216,0.0,0,False
2023-08-27,0.9023693944549216,0.9023693944549216,0.0,0,False
2023-08-28,0.9023693944549216,0.9023693944549216,0.0,0,False
2023-08-29,0.9023693944549216,0.9023693944549216,0.0,0,False
2023-08-30,0.9023693944549216,0.9023693944549216,0.0,0,False
2023-08-31,0.9023693944549216,0.9023693944549216,0.0,0,False
2023-09-01,0.9023693944549216,0.9023693944549216,0.0,0,False
2023-09-02,0.9023693944549216,0.9023693944549216,0.0,0,False
2023-09-03,0.9023693944549216,0.9023693944549216,0.0,0,False
2023-09-04,0.9023693944549216,0.9023693944549216,0.0,0,False
2023-09-05,0.9023693944549216,0.9023693944549216,0.0,0,False
2023-09-06,0.9023693944549216,0.9023693944549216,0.0,0,False
2023-09-07,0.9023693944549216,0.9023693944549216,0.0,0,False
2023-09-08,0.9023693944549216,0.9023693944549216,0.0,0,False
2023-09-09,0.9023693944549216,0.9023693944549216,0.0,0,False
2023-09-10,0.9023693944549216,0.9023693944549216,0.0,0,False
2023-09-11,0.9023693944549216,0.9023693944549216,0.0,0,False
2023-09-12,0.9023693944549216,0.9023693944549216,0.0,0,False
2023-09-13,0.9023693944549216,0.9023693944549216,0.0,0,False
2023-09-14,0.9023693944549216,0.9023693944549216,0.0,0,False
2023-09-15,0.9023693944549216,0.9023693944549216,0.0,0,False
2023-09-16,0.9023693944549216,0.9023693944549216,0.0,0,False
2023-09-17,0.9023693944549216,0.9023693944549216,0.0,0,False
2023-09-18,0.9023693944549216,0.9023693944549216,0.0,0,False
2023-09-19,0.9023693944549216,0.9023693944549216,0.0,0,False
2023-09-20,0.9023693944549216,0.9023693944549216,0.0,0,False
2023-09-21,0.9023693944549216,0.9023693944549216,0.0,0,False
2023-09-22,0.9023693944549216,0.9023693944549216,0.0,0,False
2023-09-23,0.9023693944549216,0.9023693944549216,0.0,0,False
2023-09-24,0.9023693944549216,0.9023693944549216,0.0,0,False
2023-09-25,0.9023693944549216,0.9023693944549216,0.0,0,False
2023-09-26,0.9023693944549216,0.9023693944549216,0.0,0,False
2023-09-27,0.9023693944549216,0.9023693944549216,0.0,0,False
2023-09-28,0.9023693944549216,0.9023693944549216,0.0,0,False
2023-09-29,0.9023693944549216,0.9023693944549216,0.0,0,False
2023-09-30,0.9023693944549216,0.9023693944549216,0.0,0,False
2023-10-01,0.9023693944549216,0.9023693944549216,0.0,0,False
2023-10-02,0.9023693944549216,0.9023693944549216,0.0,0,False
2023-10-03,0.9023693944549216,0.9023693944549216,0.0,0,False
2023-10-04,0.9023693944549216,0.9023693944549216,0.0,0,False
2023-10-05,0.9023693944549216,0.9023693944549216,0.0,0,False
2023-10-06,0.9023693944549216,0.9023693944549216,0.0,0,False
2023-10-07,0.9023693944549216,0.9023693944549216,0.0,0,False
2023-10-08,0.9023693944549216,0.9023693944549216,0.0,0,False
2023-10-09,0.9023693944549216,0.9023693944549216,0.0,0,False
2023-10-10,0.9023693944549216,0.9023693944549216,0.0,0,False
2023-10-11,0.9023693944549216,0.9023693944549216,0.0,0,False
2023-10-12,0.9023693944549216,0.9023693944549216,0.0,0,False
2023-10-13,0.9023693944549216,0.9023693944549216,0.0,0,False
2023-10-14,0.9023693944549216,0.9023693944549216,0.0,0,False
2023-10-15,0.9023693944549216,0.9023693944549216,0.0,0,False
2023-10-16,0.9023693944549216,0.9023693944549216,0.0,0,False
2023-10-17,0.9023693944549216,0.9023693944549216,0.0,0,False
2023-10-18,0.9023693944549216,0.9023693944549216,0.0,0,False
2023-10-19,0.9023693944549216,0.9023693944549216,0.0,0,False
2023-10-20,0.9023693944549216,0.9023693944549216,0.0,0,False
2023-10-21,0.9023693944549216,0.9023693944549216,0.0,0,False
2023-10-22,0.9023693944549216,0.9023693944549216,0.0,0,False
2023-10-23,0.9023693944549216,0.9023693944549216,0.0,0,False
2023-10-24,0.9023693944549216,0.9023693944549216,0.0,0,False
2023-10-25,0.9023693944549216,0.9023693944549216,0.0,0,False
2023-10-26,0.9023693944549216,0.9023693944549216,0.0,0,False
2023-10-27,0.9023693944549216,0.9023693944549216,0.0,0,False
2023-10-28,0.9023693944549216,0.9023693944549216,0.0,0,False
2023-10-29,0.9023693944549216,0.9023693944549216,0.0,0,False
2023-10-30,0.9023693944549216,0.9023693944549216,0.0,0,False
2023-10-31,0.9023693944549216,0.9023693944549216,0.0,0,False
2023-11-01,0.9023693944549216,0.9023693944549216,0.0,0,False
2023-11-02,0.9023693944549216,0.9023693944549216,0.0,0,False
2023-11-03,0.9023693944549216,0.9023693944549216,0.0,0,False
2023-11-04,0.9023693944549216,0.9023693944549216,0.0,0,False
2023-11-05,0.9023693944549216,0.9023693944549216,0.0,0,False
2023-11-06,0.9023693944549216,0.9023693944549216,0.0,0,False
2023-11-07,0.9023693944549216,0.9023693944549216,0.0,0,False
2023-11-08,0.9023693944549216,0.9023693944549216,0.0,0,False
2023-11-09,0.9023693944549216,0.9023693944549216,0.0,0,False
2023-11-10,0.9023693944549216,0.9023693944549216,0.0,0,False
2023-11-11,0.9023693944549216,0.9023693944549216,0.0,0,False
2023-11-12,0.9023693944549216,0.9023693944549216,0.0,0,False
2023-11-13,0.9023693944549216,0.9023693944549216,0.0,0,False
2023-11-14,0.9023693944549216,0.9023693944549216,0.0,0,False
2023-11-15,0.9023693944549216,0.9023693944549216,0.0,0,False
2023-11-16,0.9023693944549216,0.9023693944549216,0.0,0,False
2023-11-17,0.9023693944549216,0.9023693944549216,0.0,0,False
2023-11-18,0.9023693944549216,0.9023693944549216,0.0,0,False
2023-11-19,0.9023693944549216,0.9023693944549216,0.0,0,False
2023-11-20,0.9023693944549216,0.9023693944549216,0.0,0,False
2023-11-21,0.9023693944549216,0.9023693944549216,0.0,0,False
2023-11-22,0.9023693944549216,0.9023693944549216,0.0,0,False
2023-11-23,0.9023693944549216,0.9023693944549216,0.0,0,False
2023-11-24,0.9023693944549216,0.9023693944549216,0.0,0,False
2023-11-25,0.9023693944549216,0.9023693944549216,0.0,0,False
2023-11-26,0.9023693944549216,0.9023693944549216,0.0,0,False
2023-11-27,0.9023693944549216,0.9023693944549216,0.0,0,False
2023-11-28,0.9023693944549216,0.9023693944549216,0.0,0,False
2023-11-29,0.9023693944549216,0.9023693944549216,0.0,0,False
2023-11-30,0.9023693944549216,0.9023693944549216,0.0,0,False
2023-12-01,0.9023693944549216,0.9023693944549216,0.0,0,False
2023-12-02,0.9023693944549216,0.9023693944549216,0.0,0,False
2023-12-03,0.9023693944549216,0.9023693944549216,0.0,0,False
2023-12-04,0.9023693944549216,0.9023693944549216,0.0,0,False
2023-12-05,0.9023693944549216,0.9023693944549216,0.0,0,False
2023-12-06,0.9023693944549216,0.9023693944549216,0.0,0,False
2023-12-07,0.9023693944549216,0.9023693944549216,0.0,0,False
2023-12-08,0.9023693944549216,0.9023693944549216,0.0,0,False
2023-12-09,0.9023693944549216,0.9023693944549216,0.0,0,False
2023-12-10,0.9023693944549216,0.9023693944549216,0.0,0,False
2023-12-11,0.9023693944549216,0.9023693944549216,0.0,0,False
2023-12-12,0.9023693944549216,0.9023693944549216,0.0,0,False
2023-12-13,0.9023693944549216,0.9023693944549216,0.0,0,False
2023-12-14,0.9023693944549216,0.9023693944549216,0.0,0,False
2023-12-15,0.9023693944549216,0.9023693944549216,0.0,0,False
2023-12-16,0.9023693944549216,0.9023693944549216,0.0,0,False
2023-12-17,0.9023693944549216,0.9023693944549216,0.0,0,False
2023-12-18,0.9023693944549216,0.9023693944549216,0.0,0,False
2023-12-19,0.9023693944549216,0.9023693944549216,0.0,0,False
2023-12-20,0.9023693944549216,0.9023693944549216,0.0,0,False
2023-12-21,0.9023693944549216,0.9023693944549216,0.0,0,False
2023-12-22,0.9023693944549216,0.9023693944549216,0.0,0,False
2023-12-23,0.9023693944549216,0.9023693944549216,0.0,0,False
2023-12-24,0.9023693944549216,0.9023693944549216,0.0,0,False
2023-12-25,0.9023693944549216,0.9023693944549216,0.0,0,False
2023-12-26,0.9023693944549216,0.9023693944549216,0.0,0,False
2023-12-27,0.9023693944549216,0.9023693944549216,0.0,0,False
2023-12-28,0.9023693944549216,0.9023693944549216,0.0,0,False
2023-12-29,0.9023693944549216,0.9023693944549216,0.0,0,False
2023-12-30,0.9023693944549216,0.9023693944549216,0.0,0,False
2023-12-31,0.9023693944549216,0.9023693944549216,0.0,0,False
