day,start_equity,end_equity,return_pct,entries,active
2021-09-02,1.0,1.0,0.0,0,False
2021-09-03,1.0,1.0,0.0,0,False
2021-09-04,1.0,1.0,0.0,0,False
2021-09-05,1.0,1.0,0.0,0,False
2021-09-06,1.0,1.0,0.0,0,False
2021-09-07,1.0,1.0,0.0,0,False
2021-09-08,1.0,1.0,0.0,0,False
2021-09-09,1.0,1.0,0.0,0,False
2021-09-10,1.0,1.0,0.0,0,False
2021-09-11,1.0,1.0,0.0,0,False
2021-09-12,1.0,1.0,0.0,0,False
2021-09-13,1.0,1.0,0.0,0,False
2021-09-14,1.0,1.0,0.0,0,False
2021-09-15,1.0,1.0,0.0,0,False
2021-09-16,1.0,1.0,0.0,0,False
2021-09-17,1.0,1.0,0.0,0,False
2021-09-18,1.0,1.0,0.0,0,False
2021-09-19,1.0,1.0,0.0,0,False
2021-09-20,1.0,1.0,0.0,0,False
2021-09-21,1.0,1.0,0.0,0,False
2021-09-22,1.0,1.0,0.0,0,False
2021-09-23,1.0,1.0,0.0,0,False
2021-09-24,1.0,1.0,0.0,0,False
2021-09-25,1.0,1.0,0.0,0,False
2021-09-26,1.0,1.0,0.0,0,False
2021-09-27,1.0,1.0,0.0,0,False
2021-09-28,1.0,1.0,0.0,0,False
2021-09-29,1.0,1.0,0.0,0,False
2021-09-30,1.0,1.0,0.0,0,False
2021-10-01,1.0,1.0,0.0,0,False
2021-10-02,1.0,1.0,0.0,0,False
2021-10-03,1.0,1.0,0.0,0,False
2021-10-04,1.0,1.0,0.0,0,False
2021-10-05,1.0,0.9993927768733932,-0.06072231266067707,1,True
2021-10-06,0.9993927768733932,1.0048928803354615,0.5503445281319186,3,True
2021-10-07,1.0048928803354615,1.0012255311037588,-0.36494927006334166,2,True
2021-10-08,1.0012255311037588,1.0006521663797656,-0.05726629077876799,1,True
2021-10-09,1.0006521663797656,1.0014821889720547,0.0829481632255824,2,True
2021-10-10,1.0014821889720547,1.0082699846050402,0.677774972708467,1,True
2021-10-11,1.0082699846050402,1.0050178042217393,-0.3225505502452264,0,True
2021-10-12,1.0050178042217393,1.0050178042217393,0.0,0,False
2021-10-13,1.0050178042217393,1.0216124727921436,1.6511815512815664,4,True
2021-10-14,1.0216124727921436,1.0371074829609217,1.5167209271074178,0,True
2021-10-15,1.0371074829609217,1.041714487442997,0.44421668513301427,4,True
2021-10-16,1.041714487442997,1.0392415709840426,-0.2373890820146496,2,True
2021-10-17,1.0392415709840426,1.0396187913908408,0.03629766334702911,0,True
2021-10-18,1.0396187913908408,1.0381936667377685,-0.13708146340503102,1,True
2021-10-19,1.0381936667377685,1.040852372474801,0.25608957386407116,0,True
2021-10-20,1.040852372474801,1.040852372474801,0.0,0,False
2021-10-21,1.040852372474801,1.040852372474801,0.0,0,False
2021-10-22,1.040852372474801,1.040852372474801,0.0,0,False
2021-10-23,1.040852372474801,1.040852372474801,0.0,0,False
2021-10-24,1.040852372474801,1.040852372474801,0.0,0,False
2021-10-25,1.040852372474801,1.0533730651261877,1.2029268494259782,2,True
2021-10-26,1.0533730651261877,1.0592265650230674,0.5556910548285776,0,True
2021-10-27,1.0592265650230674,1.061590508416066,0.22317636953781417,7,True
2021-10-28,1.061590508416066,1.0617272626946326,0.012882017829141112,1,True
2021-10-29,1.0617272626946326,1.0561427739052376,-0.5259814818376007,0,True
2021-10-30,1.0561427739052376,1.0576324573131626,0.14104943429349426,1,True
2021-10-31,1.0576324573131626,1.0504172308656288,-0.6822054672814715,1,True
2021-11-01,1.0504172308656288,1.0613039672717908,1.0364202039212955,2,True
2021-11-02,1.0613039672717908,1.0627936919142116,0.140367386569773,1,True
2021-11-03,1.0627936919142116,1.0609536255514267,-0.17313485926612193,1,True
2021-11-04,1.0609536255514267,1.07945195611356,1.7435569394014694,1,True
2021-11-05,1.07945195611356,1.0664774366618528,-1.2019543230456065,3,True
2021-11-06,1.0664774366618528,1.0558237644912625,-0.9989589844429325,2,True
2021-11-07,1.0558237644912625,1.0563409898014917,0.048987845095394,0,True
2021-11-08,1.0563409898014917,1.0563409898014917,0.0,0,False
2021-11-09,1.0563409898014917,1.0563409898014917,0.0,0,False
2021-11-10,1.0563409898014917,1.0563409898014917,0.0,0,False
2021-11-11,1.0563409898014917,1.0339563318660452,-2.119075010016702,8,True
2021-11-12,1.0339563318660452,1.0287951338396908,-0.4991698263542399,1,True
2021-11-13,1.0287951338396908,1.0272674171258307,-0.1484957173308432,1,True
2021-11-14,1.0272674171258307,1.027694589269594,0.04158334399024799,0,True
2021-11-15,1.027694589269594,1.027694589269594,0.0,0,False
2021-11-16,1.027694589269594,1.0454461915100761,1.727322730491232,7,True
2021-11-17,1.0454461915100761,1.0395832061166812,-0.5608117797938683,0,True
2021-11-18,1.0395832061166812,1.03006355931922,-0.9157176396703659,4,True
2021-11-19,1.03006355931922,1.0448249464555046,1.4330559510367102,4,True
2021-11-20,1.0448249464555046,1.0455037101129656,0.06496434256892947,0,True
2021-11-21,1.0455037101129656,1.0414742006412896,-0.3854132159168189,1,True
2021-11-22,1.0414742006412896,1.0261646026455533,-1.4699930143549755,4,True
2021-11-23,1.0261646026455533,1.0232490030102892,-0.2841259216842418,0,True
2021-11-24,1.0232490030102892,1.0183903716803149,-0.4748239495646511,2,True
2021-11-25,1.0183903716803149,1.027100527164852,0.8552865116119968,5,True
2021-11-26,1.027100527164852,1.0006328441772896,-2.576932080895933,3,True
2021-11-27,1.0006328441772896,1.0006328441772896,0.0,0,False
2021-11-28,1.0006328441772896,0.9804830389458502,-2.0137061609252216,5,True
2021-11-29,0.9804830389458502,0.9815654157693923,0.1103922026744808,1,True
2021-11-30,0.9815654157693923,0.9698347895029514,-1.1950936817844093,2,True
2021-12-01,0.9698347895029514,0.9709023391054638,0.11007540810734628,2,True
2021-12-02,0.9709023391054638,0.9702559629088957,-0.06657479032995406,5,True
2021-12-03,0.9702559629088957,0.963898278096944,-0.6552585147625356,2,True
2021-12-04,0.963898278096944,0.9425655816983328,-2.2131688460663046,10,True
2021-12-05,0.9425655816983328,0.93761663757332,-0.5250503753909341,3,True
2021-12-06,0.93761663757332,0.9317553867466026,-0.625122314583404,12,True
2021-12-07,0.9317553867466026,0.9425242386718545,1.155759556470426,0,True
2021-12-08,0.9425242386718545,0.9452903985864489,0.29348422046866496,2,True
2021-12-09,0.9452903985864489,0.9445700223036431,-0.0762068760968182,2,True
2021-12-10,0.9445700223036431,0.9356442211772532,-0.9449591788464051,3,True
2021-12-11,0.9356442211772532,0.9309786306457696,-0.49865006654059574,2,True
2021-12-12,0.9309786306457696,0.9309786306457696,0.0,0,False
2021-12-13,0.9309786306457696,0.9263320113364851,-0.4991112745586168,2,True
2021-12-14,0.9263320113364851,0.9260299254116635,-0.03261097761112497,1,True
2021-12-15,0.9260299254116635,0.9243556718539664,-0.18079907697937658,1,True
2021-12-16,0.9243556718539664,0.9247898196400852,0.04696761207165778,0,True
2021-12-17,0.9247898196400852,0.9225264023459607,-0.24474937397185315,4,True
2021-12-18,0.9225264023459607,0.9203544287722055,-0.23543755151418377,1,True
2021-12-19,0.9203544287722055,0.9203544287722055,0.0,0,False
2021-12-20,0.9203544287722055,0.9203544287722055,0.0,0,False
2021-12-21,0.9203544287722055,0.9203544287722055,0.0,0,False
2021-12-22,0.9203544287722055,0.9203544287722055,0.0,0,False
2021-12-23,0.9203544287722055,0.9203544287722055,0.0,0,False
2021-12-24,0.9203544287722055,0.9203544287722055,0.0,0,False
2021-12-25,0.9203544287722055,0.9203544287722055,0.0,0,False
2021-12-26,0.9203544287722055,0.9203544287722055,0.0,0,False
2021-12-27,0.9203544287722055,0.9203544287722055,0.0,0,False
2021-12-28,0.9203544287722055,0.9203544287722055,0.0,0,False
2021-12-29,0.9203544287722055,0.9203544287722055,0.0,0,False
2021-12-30,0.9203544287722055,0.9203544287722055,0.0,0,False
2021-12-31,0.9203544287722055,0.9203544287722055,0.0,0,False
2022-01-01,0.9203544287722055,0.9203544287722055,0.0,0,False
2022-01-02,0.9203544287722055,0.9203544287722055,0.0,0,False
2022-01-03,0.9203544287722055,0.9203544287722055,0.0,0,False
2022-01-04,0.9203544287722055,0.9203544287722055,0.0,0,False
2022-01-05,0.9203544287722055,0.9203544287722055,0.0,0,False
2022-01-06,0.9203544287722055,0.9203544287722055,0.0,0,False
2022-01-07,0.9203544287722055,0.9203544287722055,0.0,0,False
2022-01-08,0.9203544287722055,0.9203544287722055,0.0,0,False
2022-01-09,0.9203544287722055,0.9203544287722055,0.0,0,False
2022-01-10,0.9203544287722055,0.9203544287722055,0.0,0,False
2022-01-11,0.9203544287722055,0.9203544287722055,0.0,0,False
2022-01-12,0.9203544287722055,0.9203544287722055,0.0,0,False
2022-01-13,0.9203544287722055,0.9203544287722055,0.0,0,False
2022-01-14,0.9203544287722055,0.9203544287722055,0.0,0,False
2022-01-15,0.9203544287722055,0.9203544287722055,0.0,0,False
2022-01-16,0.9203544287722055,0.9203544287722055,0.0,0,False
2022-01-17,0.9203544287722055,0.9203544287722055,0.0,0,False
2022-01-18,0.9203544287722055,0.9203544287722055,0.0,0,False
2022-01-19,0.9203544287722055,0.9203544287722055,0.0,0,False
2022-01-20,0.9203544287722055,0.9203544287722055,0.0,0,False
2022-01-21,0.9203544287722055,0.9203544287722055,0.0,0,False
2022-01-22,0.9203544287722055,0.9203544287722055,0.0,0,False
2022-01-23,0.9203544287722055,0.9203544287722055,0.0,0,False
2022-01-24,0.9203544287722055,0.9203544287722055,0.0,0,False
2022-01-25,0.9203544287722055,0.9203544287722055,0.0,0,False
2022-01-26,0.9203544287722055,0.9203544287722055,0.0,0,False
2022-01-27,0.9203544287722055,0.9203544287722055,0.0,0,False
2022-01-28,0.9203544287722055,0.9203544287722055,0.0,0,False
2022-01-29,0.9203544287722055,0.9203544287722055,0.0,0,False
2022-01-30,0.9203544287722055,0.9203544287722055,0.0,0,False
2022-01-31,0.9203544287722055,0.9203544287722055,0.0,0,False
2022-02-01,0.9203544287722055,0.9203544287722055,0.0,0,False
2022-02-02,0.9203544287722055,0.9203544287722055,0.0,0,False
2022-02-03,0.9203544287722055,0.9203544287722055,0.0,0,False
2022-02-04,0.9203544287722055,0.9203544287722055,0.0,0,False
2022-02-05,0.9203544287722055,0.9203544287722055,0.0,0,False
2022-02-06,0.9203544287722055,0.9203544287722055,0.0,0,False
2022-02-07,0.9203544287722055,0.9203544287722055,0.0,0,False
2022-02-08,0.9203544287722055,0.9203544287722055,0.0,0,False
2022-02-09,0.9203544287722055,0.9203544287722055,0.0,0,False
2022-02-10,0.9203544287722055,0.9203544287722055,0.0,0,False
2022-02-11,0.9203544287722055,0.9203544287722055,0.0,0,False
2022-02-12,0.9203544287722055,0.9203544287722055,0.0,0,False
2022-02-13,0.9203544287722055,0.9203544287722055,0.0,0,False
2022-02-14,0.9203544287722055,0.9203544287722055,0.0,0,False
2022-02-15,0.9203544287722055,0.9203544287722055,0.0,0,False
2022-02-16,0.9203544287722055,0.9203544287722055,0.0,0,False
2022-02-17,0.9203544287722055,0.9203544287722055,0.0,0,False
2022-02-18,0.9203544287722055,0.9203544287722055,0.0,0,False
2022-02-19,0.9203544287722055,0.9203544287722055,0.0,0,False
2022-02-20,0.9203544287722055,0.9203544287722055,0.0,0,False
2022-02-21,0.9203544287722055,0.9203544287722055,0.0,0,False
2022-02-22,0.9203544287722055,0.9203544287722055,0.0,0,False
2022-02-23,0.9203544287722055,0.9203544287722055,0.0,0,False
2022-02-24,0.9203544287722055,0.9203544287722055,0.0,0,False
2022-02-25,0.9203544287722055,0.9203544287722055,0.0,0,False
2022-02-26,0.9203544287722055,0.9203544287722055,0.0,0,False
2022-02-27,0.9203544287722055,0.9203544287722055,0.0,0,False
2022-02-28,0.9203544287722055,0.9203544287722055,0.0,0,False
2022-03-01,0.9203544287722055,0.9203544287722055,0.0,0,False
2022-03-02,0.9203544287722055,0.9203544287722055,0.0,0,False
2022-03-03,0.9203544287722055,0.9203544287722055,0.0,0,False
2022-03-04,0.9203544287722055,0.9203544287722055,0.0,0,False
2022-03-05,0.9203544287722055,0.9203544287722055,0.0,0,False
2022-03-06,0.9203544287722055,0.9203544287722055,0.0,0,False
2022-03-07,0.9203544287722055,0.9203544287722055,0.0,0,False
2022-03-08,0.9203544287722055,0.9203544287722055,0.0,0,False
2022-03-09,0.9203544287722055,0.9203544287722055,0.0,0,False
2022-03-10,0.9203544287722055,0.9203544287722055,0.0,0,False
2022-03-11,0.9203544287722055,0.9203544287722055,0.0,0,False
2022-03-12,0.9203544287722055,0.9203544287722055,0.0,0,False
2022-03-13,0.9203544287722055,0.9203544287722055,0.0,0,False
2022-03-14,0.9203544287722055,0.9203544287722055,0.0,0,False
2022-03-15,0.9203544287722055,0.9203544287722055,0.0,0,False
2022-03-16,0.9203544287722055,0.9203544287722055,0.0,0,False
2022-03-17,0.9203544287722055,0.9203544287722055,0.0,0,False
2022-03-18,0.9203544287722055,0.9203544287722055,0.0,0,False
2022-03-19,0.9203544287722055,0.9203544287722055,0.0,0,False
2022-03-20,0.9203544287722055,0.9203544287722055,0.0,0,False
2022-03-21,0.9203544287722055,0.9203544287722055,0.0,0,False
2022-03-22,0.9203544287722055,0.9203544287722055,0.0,0,False
2022-03-23,0.9203544287722055,0.9203544287722055,0.0,0,False
2022-03-24,0.9203544287722055,0.9203544287722055,0.0,0,False
2022-03-25,0.9203544287722055,0.9203544287722055,0.0,0,False
2022-03-26,0.9203544287722055,0.9203544287722055,0.0,0,False
2022-03-27,0.9203544287722055,0.9203544287722055,0.0,0,False
2022-03-28,0.9203544287722055,0.9203544287722055,0.0,0,False
2022-03-29,0.9203544287722055,0.9203544287722055,0.0,0,False
2022-03-30,0.9203544287722055,0.9203544287722055,0.0,0,False
2022-03-31,0.9203544287722055,0.9203544287722055,0.0,0,False
2022-04-01,0.9203544287722055,0.9203544287722055,0.0,0,False
2022-04-02,0.9203544287722055,0.9203544287722055,0.0,0,False
2022-04-03,0.9203544287722055,0.9203544287722055,0.0,0,False
2022-04-04,0.9203544287722055,0.9203544287722055,0.0,0,False
2022-04-05,0.9203544287722055,0.9203544287722055,0.0,0,False
2022-04-06,0.9203544287722055,0.9203544287722055,0.0,0,False
2022-04-07,0.9203544287722055,0.9203544287722055,0.0,0,False
2022-04-08,0.9203544287722055,0.9203544287722055,0.0,0,False
2022-04-09,0.9203544287722055,0.9203544287722055,0.0,0,False
2022-04-10,0.9203544287722055,0.9203544287722055,0.0,0,False
2022-04-11,0.9203544287722055,0.9203544287722055,0.0,0,False
2022-04-12,0.9203544287722055,0.9203544287722055,0.0,0,False
2022-04-13,0.9203544287722055,0.9203544287722055,0.0,0,False
2022-04-14,0.9203544287722055,0.9203544287722055,0.0,0,False
2022-04-15,0.9203544287722055,0.9203544287722055,0.0,0,False
2022-04-16,0.9203544287722055,0.9203544287722055,0.0,0,False
2022-04-17,0.9203544287722055,0.9203544287722055,0.0,0,False
2022-04-18,0.9203544287722055,0.9203544287722055,0.0,0,False
2022-04-19,0.9203544287722055,0.9203544287722055,0.0,0,False
2022-04-20,0.9203544287722055,0.9203544287722055,0.0,0,False
2022-04-21,0.9203544287722055,0.9203544287722055,0.0,0,False
2022-04-22,0.9203544287722055,0.9203544287722055,0.0,0,False
2022-04-23,0.9203544287722055,0.9203544287722055,0.0,0,False
2022-04-24,0.9203544287722055,0.9203544287722055,0.0,0,False
2022-04-25,0.9203544287722055,0.9203544287722055,0.0,0,False
2022-04-26,0.9203544287722055,0.9203544287722055,0.0,0,False
2022-04-27,0.9203544287722055,0.9203544287722055,0.0,0,False
2022-04-28,0.9203544287722055,0.9203544287722055,0.0,0,False
2022-04-29,0.9203544287722055,0.9203544287722055,0.0,0,False
2022-04-30,0.9203544287722055,0.9203544287722055,0.0,0,False
2022-05-01,0.9203544287722055,0.9203544287722055,0.0,0,False
2022-05-02,0.9203544287722055,0.9203544287722055,0.0,0,False
2022-05-03,0.9203544287722055,0.9203544287722055,0.0,0,False
2022-05-04,0.9203544287722055,0.9203544287722055,0.0,0,False
2022-05-05,0.9203544287722055,0.9203544287722055,0.0,0,False
2022-05-06,0.9203544287722055,0.9203544287722055,0.0,0,False
2022-05-07,0.9203544287722055,0.9203544287722055,0.0,0,False
2022-05-08,0.9203544287722055,0.9203544287722055,0.0,0,False
2022-05-09,0.9203544287722055,0.9203544287722055,0.0,0,False
2022-05-10,0.9203544287722055,0.9203544287722055,0.0,0,False
2022-05-11,0.9203544287722055,0.9203544287722055,0.0,0,False
2022-05-12,0.9203544287722055,0.9203544287722055,0.0,0,False
2022-05-13,0.9203544287722055,0.9203544287722055,0.0,0,False
2022-05-14,0.9203544287722055,0.9203544287722055,0.0,0,False
2022-05-15,0.9203544287722055,0.9203544287722055,0.0,0,False
2022-05-16,0.9203544287722055,0.9203544287722055,0.0,0,False
2022-05-17,0.9203544287722055,0.9203544287722055,0.0,0,False
2022-05-18,0.9203544287722055,0.9203544287722055,0.0,0,False
2022-05-19,0.9203544287722055,0.9203544287722055,0.0,0,False
2022-05-20,0.9203544287722055,0.9203544287722055,0.0,0,False
2022-05-21,0.9203544287722055,0.9203544287722055,0.0,0,False
2022-05-22,0.9203544287722055,0.9203544287722055,0.0,0,False
2022-05-23,0.9203544287722055,0.9203544287722055,0.0,0,False
2022-05-24,0.9203544287722055,0.9203544287722055,0.0,0,False
2022-05-25,0.9203544287722055,0.9203544287722055,0.0,0,False
2022-05-26,0.9203544287722055,0.9203544287722055,0.0,0,False
2022-05-27,0.9203544287722055,0.9203544287722055,0.0,0,False
2022-05-28,0.9203544287722055,0.9203544287722055,0.0,0,False
2022-05-29,0.9203544287722055,0.9203544287722055,0.0,0,False
2022-05-30,0.9203544287722055,0.9203544287722055,0.0,0,False
2022-05-31,0.9203544287722055,0.9203544287722055,0.0,0,False
2022-06-01,0.9203544287722055,0.9203544287722055,0.0,0,False
2022-06-02,0.9203544287722055,0.9203544287722055,0.0,0,False
2022-06-03,0.9203544287722055,0.9203544287722055,0.0,0,False
2022-06-04,0.9203544287722055,0.9203544287722055,0.0,0,False
2022-06-05,0.9203544287722055,0.9203544287722055,0.0,0,False
2022-06-06,0.9203544287722055,0.9203544287722055,0.0,0,False
2022-06-07,0.9203544287722055,0.9203544287722055,0.0,0,False
2022-06-08,0.9203544287722055,0.9203544287722055,0.0,0,False
2022-06-09,0.9203544287722055,0.9203544287722055,0.0,0,False
2022-06-10,0.9203544287722055,0.9203544287722055,0.0,0,False
2022-06-11,0.9203544287722055,0.9203544287722055,0.0,0,False
2022-06-12,0.9203544287722055,0.9203544287722055,0.0,0,False
2022-06-13,0.9203544287722055,0.9203544287722055,0.0,0,False
2022-06-14,0.9203544287722055,0.9203544287722055,0.0,0,False
2022-06-15,0.9203544287722055,0.9203544287722055,0.0,0,False
2022-06-16,0.9203544287722055,0.9203544287722055,0.0,0,False
2022-06-17,0.9203544287722055,0.9203544287722055,0.0,0,False
2022-06-18,0.9203544287722055,0.9203544287722055,0.0,0,False
2022-06-19,0.9203544287722055,0.9203544287722055,0.0,0,False
2022-06-20,0.9203544287722055,0.9203544287722055,0.0,0,False
2022-06-21,0.9203544287722055,0.9203544287722055,0.0,0,False
2022-06-22,0.9203544287722055,0.9203544287722055,0.0,0,False
2022-06-23,0.9203544287722055,0.9203544287722055,0.0,0,False
2022-06-24,0.9203544287722055,0.9203544287722055,0.0,0,False
2022-06-25,0.9203544287722055,0.9203544287722055,0.0,0,False
2022-06-26,0.9203544287722055,0.9203544287722055,0.0,0,False
2022-06-27,0.9203544287722055,0.9203544287722055,0.0,0,False
2022-06-28,0.9203544287722055,0.9203544287722055,0.0,0,False
2022-06-29,0.9203544287722055,0.9203544287722055,0.0,0,False
2022-06-30,0.9203544287722055,0.9203544287722055,0.0,0,False
2022-07-01,0.9203544287722055,0.9203544287722055,0.0,0,False
2022-07-02,0.9203544287722055,0.9203544287722055,0.0,0,False
2022-07-03,0.9203544287722055,0.9203544287722055,0.0,0,False
2022-07-04,0.9203544287722055,0.9203544287722055,0.0,0,False
2022-07-05,0.9203544287722055,0.9203544287722055,0.0,0,False
2022-07-06,0.9203544287722055,0.9203544287722055,0.0,0,False
2022-07-07,0.9203544287722055,0.9203544287722055,0.0,0,False
2022-07-08,0.9203544287722055,0.9203544287722055,0.0,0,False
2022-07-09,0.9203544287722055,0.9203544287722055,0.0,0,False
2022-07-10,0.9203544287722055,0.9203544287722055,0.0,0,False
2022-07-11,0.9203544287722055,0.9203544287722055,0.0,0,False
2022-07-12,0.9203544287722055,0.9203544287722055,0.0,0,False
2022-07-13,0.9203544287722055,0.9203544287722055,0.0,0,False
2022-07-14,0.9203544287722055,0.9203544287722055,0.0,0,False
2022-07-15,0.9203544287722055,0.9203544287722055,0.0,0,False
2022-07-16,0.9203544287722055,0.9203544287722055,0.0,0,False
2022-07-17,0.9203544287722055,0.9203544287722055,0.0,0,False
2022-07-18,0.9203544287722055,0.9203544287722055,0.0,0,False
2022-07-19,0.9203544287722055,0.9203544287722055,0.0,0,False
2022-07-20,0.9203544287722055,0.9203544287722055,0.0,0,False
2022-07-21,0.9203544287722055,0.9203544287722055,0.0,0,False
2022-07-22,0.9203544287722055,0.9203544287722055,0.0,0,False
2022-07-23,0.9203544287722055,0.9203544287722055,0.0,0,False
2022-07-24,0.9203544287722055,0.9203544287722055,0.0,0,False
2022-07-25,0.9203544287722055,0.9203544287722055,0.0,0,False
2022-07-26,0.9203544287722055,0.9203544287722055,0.0,0,False
2022-07-27,0.9203544287722055,0.9203544287722055,0.0,0,False
2022-07-28,0.9203544287722055,0.9203544287722055,0.0,0,False
2022-07-29,0.9203544287722055,0.9203544287722055,0.0,0,False
2022-07-30,0.9203544287722055,0.9203544287722055,0.0,0,False
2022-07-31,0.9203544287722055,0.9203544287722055,0.0,0,False
2022-08-01,0.9203544287722055,0.9203544287722055,0.0,0,False
2022-08-02,0.9203544287722055,0.9203544287722055,0.0,0,False
2022-08-03,0.9203544287722055,0.9203544287722055,0.0,0,False
2022-08-04,0.9203544287722055,0.9203544287722055,0.0,0,False
2022-08-05,0.9203544287722055,0.9203544287722055,0.0,0,False
2022-08-06,0.9203544287722055,0.9203544287722055,0.0,0,False
2022-08-07,0.9203544287722055,0.9203544287722055,0.0,0,False
2022-08-08,0.9203544287722055,0.9203544287722055,0.0,0,False
2022-08-09,0.9203544287722055,0.9203544287722055,0.0,0,False
2022-08-10,0.9203544287722055,0.9203544287722055,0.0,0,False
2022-08-11,0.9203544287722055,0.9203544287722055,0.0,0,False
2022-08-12,0.9203544287722055,0.9203544287722055,0.0,0,False
2022-08-13,0.9203544287722055,0.9203544287722055,0.0,0,False
2022-08-14,0.9203544287722055,0.9203544287722055,0.0,0,False
2022-08-15,0.9203544287722055,0.9203544287722055,0.0,0,False
2022-08-16,0.9203544287722055,0.9203544287722055,0.0,0,False
2022-08-17,0.9203544287722055,0.9203544287722055,0.0,0,False
2022-08-18,0.9203544287722055,0.9203544287722055,0.0,0,False
2022-08-19,0.9203544287722055,0.9203544287722055,0.0,0,False
2022-08-20,0.9203544287722055,0.9203544287722055,0.0,0,False
2022-08-21,0.9203544287722055,0.9203544287722055,0.0,0,False
2022-08-22,0.9203544287722055,0.9203544287722055,0.0,0,False
2022-08-23,0.9203544287722055,0.9203544287722055,0.0,0,False
2022-08-24,0.9203544287722055,0.9203544287722055,0.0,0,False
2022-08-25,0.9203544287722055,0.9203544287722055,0.0,0,False
2022-08-26,0.9203544287722055,0.9203544287722055,0.0,0,False
2022-08-27,0.9203544287722055,0.9203544287722055,0.0,0,False
2022-08-28,0.9203544287722055,0.9203544287722055,0.0,0,False
2022-08-29,0.9203544287722055,0.9203544287722055,0.0,0,False
2022-08-30,0.9203544287722055,0.9203544287722055,0.0,0,False
2022-08-31,0.9203544287722055,0.9203544287722055,0.0,0,False
2022-09-01,0.9203544287722055,0.9203544287722055,0.0,0,False
2022-09-02,0.9203544287722055,0.9203544287722055,0.0,0,False
2022-09-03,0.9203544287722055,0.9203544287722055,0.0,0,False
2022-09-04,0.9203544287722055,0.9203544287722055,0.0,0,False
2022-09-05,0.9203544287722055,0.9203544287722055,0.0,0,False
2022-09-06,0.9203544287722055,0.9203544287722055,0.0,0,False
2022-09-07,0.9203544287722055,0.9203544287722055,0.0,0,False
2022-09-08,0.9203544287722055,0.9203544287722055,0.0,0,False
2022-09-09,0.9203544287722055,0.9203544287722055,0.0,0,False
2022-09-10,0.9203544287722055,0.9203544287722055,0.0,0,False
2022-09-11,0.9203544287722055,0.9203544287722055,0.0,0,False
2022-09-12,0.9203544287722055,0.9203544287722055,0.0,0,False
2022-09-13,0.9203544287722055,0.9203544287722055,0.0,0,False
2022-09-14,0.9203544287722055,0.9203544287722055,0.0,0,False
2022-09-15,0.9203544287722055,0.9203544287722055,0.0,0,False
2022-09-16,0.9203544287722055,0.9203544287722055,0.0,0,False
2022-09-17,0.9203544287722055,0.9203544287722055,0.0,0,False
2022-09-18,0.9203544287722055,0.9203544287722055,0.0,0,False
2022-09-19,0.9203544287722055,0.9203544287722055,0.0,0,False
2022-09-20,0.9203544287722055,0.9203544287722055,0.0,0,False
2022-09-21,0.9203544287722055,0.9203544287722055,0.0,0,False
2022-09-22,0.9203544287722055,0.9203544287722055,0.0,0,False
2022-09-23,0.9203544287722055,0.9203544287722055,0.0,0,False
2022-09-24,0.9203544287722055,0.9203544287722055,0.0,0,False
2022-09-25,0.9203544287722055,0.9203544287722055,0.0,0,False
2022-09-26,0.9203544287722055,0.9203544287722055,0.0,0,False
2022-09-27,0.9203544287722055,0.9203544287722055,0.0,0,False
2022-09-28,0.9203544287722055,0.9203544287722055,0.0,0,False
2022-09-29,0.9203544287722055,0.9203544287722055,0.0,0,False
2022-09-30,0.9203544287722055,0.9203544287722055,0.0,0,False
2022-10-01,0.9203544287722055,0.9203544287722055,0.0,0,False
2022-10-02,0.9203544287722055,0.9203544287722055,0.0,0,False
2022-10-03,0.9203544287722055,0.9203544287722055,0.0,0,False
2022-10-04,0.9203544287722055,0.9203544287722055,0.0,0,False
2022-10-05,0.9203544287722055,0.9203544287722055,0.0,0,False
2022-10-06,0.9203544287722055,0.9203544287722055,0.0,0,False
2022-10-07,0.9203544287722055,0.9203544287722055,0.0,0,False
2022-10-08,0.9203544287722055,0.9203544287722055,0.0,0,False
2022-10-09,0.9203544287722055,0.9203544287722055,0.0,0,False
2022-10-10,0.9203544287722055,0.9203544287722055,0.0,0,False
2022-10-11,0.9203544287722055,0.9203544287722055,0.0,0,False
2022-10-12,0.9203544287722055,0.9203544287722055,0.0,0,False
2022-10-13,0.9203544287722055,0.9203544287722055,0.0,0,False
2022-10-14,0.9203544287722055,0.9203544287722055,0.0,0,False
2022-10-15,0.9203544287722055,0.9203544287722055,0.0,0,False
2022-10-16,0.9203544287722055,0.9203544287722055,0.0,0,False
2022-10-17,0.9203544287722055,0.9203544287722055,0.0,0,False
2022-10-18,0.9203544287722055,0.9203544287722055,0.0,0,False
2022-10-19,0.9203544287722055,0.9203544287722055,0.0,0,False
2022-10-20,0.9203544287722055,0.9203544287722055,0.0,0,False
2022-10-21,0.9203544287722055,0.9203544287722055,0.0,0,False
2022-10-22,0.9203544287722055,0.9203544287722055,0.0,0,False
2022-10-23,0.9203544287722055,0.9203544287722055,0.0,0,False
2022-10-24,0.9203544287722055,0.9203544287722055,0.0,0,False
2022-10-25,0.9203544287722055,0.9203544287722055,0.0,0,False
2022-10-26,0.9203544287722055,0.9203544287722055,0.0,0,False
2022-10-27,0.9203544287722055,0.9203544287722055,0.0,0,False
2022-10-28,0.9203544287722055,0.9203544287722055,0.0,0,False
2022-10-29,0.9203544287722055,0.9203544287722055,0.0,0,False
2022-10-30,0.9203544287722055,0.9203544287722055,0.0,0,False
2022-10-31,0.9203544287722055,0.9203544287722055,0.0,0,False
2022-11-01,0.9203544287722055,0.9203544287722055,0.0,0,False
2022-11-02,0.9203544287722055,0.9203544287722055,0.0,0,False
2022-11-03,0.9203544287722055,0.9203544287722055,0.0,0,False
2022-11-04,0.9203544287722055,0.9203544287722055,0.0,0,False
2022-11-05,0.9203544287722055,0.9203544287722055,0.0,0,False
2022-11-06,0.9203544287722055,0.9203544287722055,0.0,0,False
2022-11-07,0.9203544287722055,0.9203544287722055,0.0,0,False
2022-11-08,0.9203544287722055,0.9203544287722055,0.0,0,False
2022-11-09,0.9203544287722055,0.9203544287722055,0.0,0,False
2022-11-10,0.9203544287722055,0.9203544287722055,0.0,0,False
2022-11-11,0.9203544287722055,0.9203544287722055,0.0,0,False
2022-11-12,0.9203544287722055,0.9203544287722055,0.0,0,False
2022-11-13,0.9203544287722055,0.9203544287722055,0.0,0,False
2022-11-14,0.9203544287722055,0.9203544287722055,0.0,0,False
2022-11-15,0.9203544287722055,0.9203544287722055,0.0,0,False
2022-11-16,0.9203544287722055,0.9203544287722055,0.0,0,False
2022-11-17,0.9203544287722055,0.9203544287722055,0.0,0,False
2022-11-18,0.9203544287722055,0.9203544287722055,0.0,0,False
2022-11-19,0.9203544287722055,0.9203544287722055,0.0,0,False
2022-11-20,0.9203544287722055,0.9203544287722055,0.0,0,False
2022-11-21,0.9203544287722055,0.9203544287722055,0.0,0,False
2022-11-22,0.9203544287722055,0.9203544287722055,0.0,0,False
2022-11-23,0.9203544287722055,0.9203544287722055,0.0,0,False
2022-11-24,0.9203544287722055,0.9203544287722055,0.0,0,False
2022-11-25,0.9203544287722055,0.9203544287722055,0.0,0,False
2022-11-26,0.9203544287722055,0.9203544287722055,0.0,0,False
2022-11-27,0.9203544287722055,0.9203544287722055,0.0,0,False
2022-11-28,0.9203544287722055,0.9203544287722055,0.0,0,False
2022-11-29,0.9203544287722055,0.9203544287722055,0.0,0,False
2022-11-30,0.9203544287722055,0.9203544287722055,0.0,0,False
2022-12-01,0.9203544287722055,0.9203544287722055,0.0,0,False
2022-12-02,0.9203544287722055,0.9203544287722055,0.0,0,False
2022-12-03,0.9203544287722055,0.9203544287722055,0.0,0,False
2022-12-04,0.9203544287722055,0.9203544287722055,0.0,0,False
2022-12-05,0.9203544287722055,0.9203544287722055,0.0,0,False
2022-12-06,0.9203544287722055,0.9203544287722055,0.0,0,False
2022-12-07,0.9203544287722055,0.9203544287722055,0.0,0,False
2022-12-08,0.9203544287722055,0.9203544287722055,0.0,0,False
2022-12-09,0.9203544287722055,0.9203544287722055,0.0,0,False
2022-12-10,0.9203544287722055,0.9203544287722055,0.0,0,False
2022-12-11,0.9203544287722055,0.9203544287722055,0.0,0,False
2022-12-12,0.9203544287722055,0.9203544287722055,0.0,0,False
2022-12-13,0.9203544287722055,0.9203544287722055,0.0,0,False
2022-12-14,0.9203544287722055,0.9203544287722055,0.0,0,False
2022-12-15,0.9203544287722055,0.9203544287722055,0.0,0,False
2022-12-16,0.9203544287722055,0.9203544287722055,0.0,0,False
2022-12-17,0.9203544287722055,0.9203544287722055,0.0,0,False
2022-12-18,0.9203544287722055,0.9203544287722055,0.0,0,False
2022-12-19,0.9203544287722055,0.9203544287722055,0.0,0,False
2022-12-20,0.9203544287722055,0.9203544287722055,0.0,0,False
2022-12-21,0.9203544287722055,0.9203544287722055,0.0,0,False
2022-12-22,0.9203544287722055,0.9203544287722055,0.0,0,False
2022-12-23,0.9203544287722055,0.9203544287722055,0.0,0,False
2022-12-24,0.9203544287722055,0.9203544287722055,0.0,0,False
2022-12-25,0.9203544287722055,0.9203544287722055,0.0,0,False
2022-12-26,0.9203544287722055,0.9203544287722055,0.0,0,False
2022-12-27,0.9203544287722055,0.9203544287722055,0.0,0,False
2022-12-28,0.9203544287722055,0.9203544287722055,0.0,0,False
2022-12-29,0.9203544287722055,0.9203544287722055,0.0,0,False
2022-12-30,0.9203544287722055,0.9203544287722055,0.0,0,False
2022-12-31,0.9203544287722055,0.9203544287722055,0.0,0,False
2023-01-01,0.9203544287722055,0.9203544287722055,0.0,0,False
2023-01-02,0.9203544287722055,0.9203544287722055,0.0,0,False
2023-01-03,0.9203544287722055,0.9203544287722055,0.0,0,False
2023-01-04,0.9203544287722055,0.9203544287722055,0.0,0,False
2023-01-05,0.9203544287722055,0.9203544287722055,0.0,0,False
2023-01-06,0.9203544287722055,0.9203544287722055,0.0,0,False
2023-01-07,0.9203544287722055,0.9203544287722055,0.0,0,False
2023-01-08,0.9203544287722055,0.9203544287722055,0.0,0,False
2023-01-09,0.9203544287722055,0.9203544287722055,0.0,0,False
2023-01-10,0.9203544287722055,0.9203544287722055,0.0,0,False
2023-01-11,0.9203544287722055,0.9203544287722055,0.0,0,False
2023-01-12,0.9203544287722055,0.9203544287722055,0.0,0,False
2023-01-13,0.9203544287722055,0.9203544287722055,0.0,0,False
2023-01-14,0.9203544287722055,0.9203544287722055,0.0,0,False
2023-01-15,0.9203544287722055,0.9203544287722055,0.0,0,False
2023-01-16,0.9203544287722055,0.9203544287722055,0.0,0,False
2023-01-17,0.9203544287722055,0.9203544287722055,0.0,0,False
2023-01-18,0.9203544287722055,0.9203544287722055,0.0,0,False
2023-01-19,0.9203544287722055,0.9203544287722055,0.0,0,False
2023-01-20,0.9203544287722055,0.9203544287722055,0.0,0,False
2023-01-21,0.9203544287722055,0.9203544287722055,0.0,0,False
2023-01-22,0.9203544287722055,0.9203544287722055,0.0,0,False
2023-01-23,0.9203544287722055,0.9203544287722055,0.0,0,False
2023-01-24,0.9203544287722055,0.9203544287722055,0.0,0,False
2023-01-25,0.9203544287722055,0.9203544287722055,0.0,0,False
2023-01-26,0.9203544287722055,0.9203544287722055,0.0,0,False
2023-01-27,0.9203544287722055,0.9203544287722055,0.0,0,False
2023-01-28,0.9203544287722055,0.9203544287722055,0.0,0,False
2023-01-29,0.9203544287722055,0.9203544287722055,0.0,0,False
2023-01-30,0.9203544287722055,0.9203544287722055,0.0,0,False
2023-01-31,0.9203544287722055,0.9203544287722055,0.0,0,False
2023-02-01,0.9203544287722055,0.9203544287722055,0.0,0,False
2023-02-02,0.9203544287722055,0.9203544287722055,0.0,0,False
2023-02-03,0.9203544287722055,0.9203544287722055,0.0,0,False
2023-02-04,0.9203544287722055,0.9203544287722055,0.0,0,False
2023-02-05,0.9203544287722055,0.9203544287722055,0.0,0,False
2023-02-06,0.9203544287722055,0.9203544287722055,0.0,0,False
2023-02-07,0.9203544287722055,0.9203544287722055,0.0,0,False
2023-02-08,0.9203544287722055,0.9203544287722055,0.0,0,False
2023-02-09,0.9203544287722055,0.9203544287722055,0.0,0,False
2023-02-10,0.9203544287722055,0.9203544287722055,0.0,0,False
2023-02-11,0.9203544287722055,0.9203544287722055,0.0,0,False
2023-02-12,0.9203544287722055,0.9203544287722055,0.0,0,False
2023-02-13,0.9203544287722055,0.9203544287722055,0.0,0,False
2023-02-14,0.9203544287722055,0.9203544287722055,0.0,0,False
2023-02-15,0.9203544287722055,0.9203544287722055,0.0,0,False
2023-02-16,0.9203544287722055,0.9203544287722055,0.0,0,False
2023-02-17,0.9203544287722055,0.9203544287722055,0.0,0,False
2023-02-18,0.9203544287722055,0.9203544287722055,0.0,0,False
2023-02-19,0.9203544287722055,0.9203544287722055,0.0,0,False
2023-02-20,0.9203544287722055,0.9203544287722055,0.0,0,False
2023-02-21,0.9203544287722055,0.9203544287722055,0.0,0,False
2023-02-22,0.9203544287722055,0.9203544287722055,0.0,0,False
2023-02-23,0.9203544287722055,0.9203544287722055,0.0,0,False
2023-02-24,0.9203544287722055,0.9203544287722055,0.0,0,False
2023-02-25,0.9203544287722055,0.9203544287722055,0.0,0,False
2023-02-26,0.9203544287722055,0.9203544287722055,0.0,0,False
2023-02-27,0.9203544287722055,0.9203544287722055,0.0,0,False
2023-02-28,0.9203544287722055,0.9203544287722055,0.0,0,False
2023-03-01,0.9203544287722055,0.9203544287722055,0.0,0,False
2023-03-02,0.9203544287722055,0.9203544287722055,0.0,0,False
2023-03-03,0.9203544287722055,0.9203544287722055,0.0,0,False
2023-03-04,0.9203544287722055,0.9203544287722055,0.0,0,False
2023-03-05,0.9203544287722055,0.9203544287722055,0.0,0,False
2023-03-06,0.9203544287722055,0.9203544287722055,0.0,0,False
2023-03-07,0.9203544287722055,0.9203544287722055,0.0,0,False
2023-03-08,0.9203544287722055,0.9203544287722055,0.0,0,False
2023-03-09,0.9203544287722055,0.9203544287722055,0.0,0,False
2023-03-10,0.9203544287722055,0.9203544287722055,0.0,0,False
2023-03-11,0.9203544287722055,0.9203544287722055,0.0,0,False
2023-03-12,0.9203544287722055,0.9203544287722055,0.0,0,False
2023-03-13,0.9203544287722055,0.9203544287722055,0.0,0,False
2023-03-14,0.9203544287722055,0.9203544287722055,0.0,0,False
2023-03-15,0.9203544287722055,0.9203544287722055,0.0,0,False
2023-03-16,0.9203544287722055,0.9203544287722055,0.0,0,False
2023-03-17,0.9203544287722055,0.9203544287722055,0.0,0,False
2023-03-18,0.9203544287722055,0.9203544287722055,0.0,0,False
2023-03-19,0.9203544287722055,0.9203544287722055,0.0,0,False
2023-03-20,0.9203544287722055,0.9203544287722055,0.0,0,False
2023-03-21,0.9203544287722055,0.9203544287722055,0.0,0,False
2023-03-22,0.9203544287722055,0.9203544287722055,0.0,0,False
2023-03-23,0.9203544287722055,0.9203544287722055,0.0,0,False
2023-03-24,0.9203544287722055,0.9203544287722055,0.0,0,False
2023-03-25,0.9203544287722055,0.9203544287722055,0.0,0,False
2023-03-26,0.9203544287722055,0.9203544287722055,0.0,0,False
2023-03-27,0.9203544287722055,0.9203544287722055,0.0,0,False
2023-03-28,0.9203544287722055,0.9203544287722055,0.0,0,False
2023-03-29,0.9203544287722055,0.9203544287722055,0.0,0,False
2023-03-30,0.9203544287722055,0.9203544287722055,0.0,0,False
2023-03-31,0.9203544287722055,0.9203544287722055,0.0,0,False
2023-04-01,0.9203544287722055,0.9203544287722055,0.0,0,False
2023-04-02,0.9203544287722055,0.9203544287722055,0.0,0,False
2023-04-03,0.9203544287722055,0.9203544287722055,0.0,0,False
2023-04-04,0.9203544287722055,0.9203544287722055,0.0,0,False
2023-04-05,0.9203544287722055,0.9203544287722055,0.0,0,False
2023-04-06,0.9203544287722055,0.9203544287722055,0.0,0,False
2023-04-07,0.9203544287722055,0.9203544287722055,0.0,0,False
2023-04-08,0.9203544287722055,0.9203544287722055,0.0,0,False
2023-04-09,0.9203544287722055,0.9203544287722055,0.0,0,False
2023-04-10,0.9203544287722055,0.9203544287722055,0.0,0,False
2023-04-11,0.9203544287722055,0.9203544287722055,0.0,0,False
2023-04-12,0.9203544287722055,0.9203544287722055,0.0,0,False
2023-04-13,0.9203544287722055,0.9203544287722055,0.0,0,False
2023-04-14,0.9203544287722055,0.9203544287722055,0.0,0,False
2023-04-15,0.9203544287722055,0.9203544287722055,0.0,0,False
2023-04-16,0.9203544287722055,0.9203544287722055,0.0,0,False
2023-04-17,0.9203544287722055,0.9203544287722055,0.0,0,False
2023-04-18,0.9203544287722055,0.9203544287722055,0.0,0,False
2023-04-19,0.9203544287722055,0.9203544287722055,0.0,0,False
2023-04-20,0.9203544287722055,0.9203544287722055,0.0,0,False
2023-04-21,0.9203544287722055,0.9203544287722055,0.0,0,False
2023-04-22,0.9203544287722055,0.9203544287722055,0.0,0,False
2023-04-23,0.9203544287722055,0.9203544287722055,0.0,0,False
2023-04-24,0.9203544287722055,0.9203544287722055,0.0,0,False
2023-04-25,0.9203544287722055,0.9203544287722055,0.0,0,False
2023-04-26,0.9203544287722055,0.9203544287722055,0.0,0,False
2023-04-27,0.9203544287722055,0.9203544287722055,0.0,0,False
2023-04-28,0.9203544287722055,0.9203544287722055,0.0,0,False
2023-04-29,0.9203544287722055,0.9203544287722055,0.0,0,False
2023-04-30,0.9203544287722055,0.9203544287722055,0.0,0,False
2023-05-01,0.9203544287722055,0.9203544287722055,0.0,0,False
2023-05-02,0.9203544287722055,0.9203544287722055,0.0,0,False
2023-05-03,0.9203544287722055,0.9203544287722055,0.0,0,False
2023-05-04,0.9203544287722055,0.9203544287722055,0.0,0,False
2023-05-05,0.9203544287722055,0.9203544287722055,0.0,0,False
2023-05-06,0.9203544287722055,0.9203544287722055,0.0,0,False
2023-05-07,0.9203544287722055,0.9203544287722055,0.0,0,False
2023-05-08,0.9203544287722055,0.9203544287722055,0.0,0,False
2023-05-09,0.9203544287722055,0.9203544287722055,0.0,0,False
2023-05-10,0.9203544287722055,0.9203544287722055,0.0,0,False
2023-05-11,0.9203544287722055,0.9203544287722055,0.0,0,False
2023-05-12,0.9203544287722055,0.9203544287722055,0.0,0,False
2023-05-13,0.9203544287722055,0.9203544287722055,0.0,0,False
2023-05-14,0.9203544287722055,0.9203544287722055,0.0,0,False
2023-05-15,0.9203544287722055,0.9203544287722055,0.0,0,False
2023-05-16,0.9203544287722055,0.9203544287722055,0.0,0,False
2023-05-17,0.9203544287722055,0.9203544287722055,0.0,0,False
2023-05-18,0.9203544287722055,0.9203544287722055,0.0,0,False
2023-05-19,0.9203544287722055,0.9203544287722055,0.0,0,False
2023-05-20,0.9203544287722055,0.9203544287722055,0.0,0,False
2023-05-21,0.9203544287722055,0.9203544287722055,0.0,0,False
2023-05-22,0.9203544287722055,0.9203544287722055,0.0,0,False
2023-05-23,0.9203544287722055,0.9203544287722055,0.0,0,False
2023-05-24,0.9203544287722055,0.9203544287722055,0.0,0,False
2023-05-25,0.9203544287722055,0.9203544287722055,0.0,0,False
2023-05-26,0.9203544287722055,0.9203544287722055,0.0,0,False
2023-05-27,0.9203544287722055,0.9203544287722055,0.0,0,False
2023-05-28,0.9203544287722055,0.9203544287722055,0.0,0,False
2023-05-29,0.9203544287722055,0.9203544287722055,0.0,0,False
2023-05-30,0.9203544287722055,0.9203544287722055,0.0,0,False
2023-05-31,0.9203544287722055,0.9203544287722055,0.0,0,False
2023-06-01,0.9203544287722055,0.9203544287722055,0.0,0,False
2023-06-02,0.9203544287722055,0.9203544287722055,0.0,0,False
2023-06-03,0.9203544287722055,0.9203544287722055,0.0,0,False
2023-06-04,0.9203544287722055,0.9203544287722055,0.0,0,False
2023-06-05,0.9203544287722055,0.9203544287722055,0.0,0,False
2023-06-06,0.9203544287722055,0.9203544287722055,0.0,0,False
2023-06-07,0.9203544287722055,0.9203544287722055,0.0,0,False
2023-06-08,0.9203544287722055,0.9203544287722055,0.0,0,False
2023-06-09,0.9203544287722055,0.9203544287722055,0.0,0,False
2023-06-10,0.9203544287722055,0.9203544287722055,0.0,0,False
2023-06-11,0.9203544287722055,0.9203544287722055,0.0,0,False
2023-06-12,0.9203544287722055,0.9203544287722055,0.0,0,False
2023-06-13,0.9203544287722055,0.9203544287722055,0.0,0,False
2023-06-14,0.9203544287722055,0.9203544287722055,0.0,0,False
2023-06-15,0.9203544287722055,0.9203544287722055,0.0,0,False
2023-06-16,0.9203544287722055,0.9203544287722055,0.0,0,False
2023-06-17,0.9203544287722055,0.9203544287722055,0.0,0,False
2023-06-18,0.9203544287722055,0.9203544287722055,0.0,0,False
2023-06-19,0.9203544287722055,0.9203544287722055,0.0,0,False
2023-06-20,0.9203544287722055,0.9203544287722055,0.0,0,False
2023-06-21,0.9203544287722055,0.9203544287722055,0.0,0,False
2023-06-22,0.9203544287722055,0.9203544287722055,0.0,0,False
2023-06-23,0.9203544287722055,0.9203544287722055,0.0,0,False
2023-06-24,0.9203544287722055,0.9203544287722055,0.0,0,False
2023-06-25,0.9203544287722055,0.9203544287722055,0.0,0,False
2023-06-26,0.9203544287722055,0.9203544287722055,0.0,0,False
2023-06-27,0.9203544287722055,0.9203544287722055,0.0,0,False
2023-06-28,0.9203544287722055,0.9203544287722055,0.0,0,False
2023-06-29,0.9203544287722055,0.9203544287722055,0.0,0,False
2023-06-30,0.9203544287722055,0.9203544287722055,0.0,0,False
2023-07-01,0.9203544287722055,0.9203544287722055,0.0,0,False
2023-07-02,0.9203544287722055,0.9203544287722055,0.0,0,False
2023-07-03,0.9203544287722055,0.9203544287722055,0.0,0,False
2023-07-04,0.9203544287722055,0.9203544287722055,0.0,0,False
2023-07-05,0.9203544287722055,0.9203544287722055,0.0,0,False
2023-07-06,0.9203544287722055,0.9203544287722055,0.0,0,False
2023-07-07,0.9203544287722055,0.9203544287722055,0.0,0,False
2023-07-08,0.9203544287722055,0.9203544287722055,0.0,0,False
2023-07-09,0.9203544287722055,0.9203544287722055,0.0,0,False
2023-07-10,0.9203544287722055,0.9203544287722055,0.0,0,False
2023-07-11,0.9203544287722055,0.9203544287722055,0.0,0,False
2023-07-12,0.9203544287722055,0.9203544287722055,0.0,0,False
2023-07-13,0.9203544287722055,0.9203544287722055,0.0,0,False
2023-07-14,0.9203544287722055,0.9203544287722055,0.0,0,False
2023-07-15,0.9203544287722055,0.9203544287722055,0.0,0,False
2023-07-16,0.9203544287722055,0.9203544287722055,0.0,0,False
2023-07-17,0.9203544287722055,0.9203544287722055,0.0,0,False
2023-07-18,0.9203544287722055,0.9203544287722055,0.0,0,False
2023-07-19,0.9203544287722055,0.9203544287722055,0.0,0,False
2023-07-20,0.9203544287722055,0.9203544287722055,0.0,0,False
2023-07-21,0.9203544287722055,0.9203544287722055,0.0,0,False
2023-07-22,0.9203544287722055,0.9203544287722055,0.0,0,False
2023-07-23,0.9203544287722055,0.9203544287722055,0.0,0,False
2023-07-24,0.9203544287722055,0.9203544287722055,0.0,0,False
2023-07-25,0.9203544287722055,0.9203544287722055,0.0,0,False
2023-07-26,0.9203544287722055,0.9203544287722055,0.0,0,False
2023-07-27,0.9203544287722055,0.9203544287722055,0.0,0,False
2023-07-28,0.9203544287722055,0.9203544287722055,0.0,0,False
2023-07-29,0.9203544287722055,0.9203544287722055,0.0,0,False
2023-07-30,0.9203544287722055,0.9203544287722055,0.0,0,False
2023-07-31,0.9203544287722055,0.9203544287722055,0.0,0,False
2023-08-01,0.9203544287722055,0.9203544287722055,0.0,0,False
2023-08-02,0.9203544287722055,0.9203544287722055,0.0,0,False
2023-08-03,0.9203544287722055,0.9203544287722055,0.0,0,False
2023-08-04,0.9203544287722055,0.9203544287722055,0.0,0,False
2023-08-05,0.9203544287722055,0.9203544287722055,0.0,0,False
2023-08-06,0.9203544287722055,0.9203544287722055,0.0,0,False
2023-08-07,0.9203544287722055,0.9203544287722055,0.0,0,False
2023-08-08,0.9203544287722055,0.9203544287722055,0.0,0,False
2023-08-09,0.9203544287722055,0.9203544287722055,0.0,0,False
2023-08-10,0.9203544287722055,0.9203544287722055,0.0,0,False
2023-08-11,0.9203544287722055,0.9203544287722055,0.0,0,False
2023-08-12,0.9203544287722055,0.9203544287722055,0.0,0,False
2023-08-13,0.9203544287722055,0.9203544287722055,0.0,0,False
2023-08-14,0.9203544287722055,0.9203544287722055,0.0,0,False
2023-08-15,0.9203544287722055,0.9203544287722055,0.0,0,False
2023-08-16,0.9203544287722055,0.9203544287722055,0.0,0,False
2023-08-17,0.9203544287722055,0.9203544287722055,0.0,0,False
2023-08-18,0.9203544287722055,0.9203544287722055,0.0,0,False
2023-08-19,0.9203544287722055,0.9203544287722055,0.0,0,False
2023-08-20,0.9203544287722055,0.9203544287722055,0.0,0,False
2023-08-21,0.9203544287722055,0.9203544287722055,0.0,0,False
2023-08-22,0.9203544287722055,0.9203544287722055,0.0,0,False
2023-08-23,0.9203544287722055,0.9203544287722055,0.0,0,False
2023-08-24,0.9203544287722055,0.9203544287722055,0.0,0,False
2023-08-25,0.9203544287722055,0.9203544287722055,0.0,0,False
2023-08-26,0.9203544287722055,0.9203544287722055,0.0,0,False
2023-08-27,0.9203544287722055,0.9203544287722055,0.0,0,False
2023-08-28,0.9203544287722055,0.9203544287722055,0.0,0,False
2023-08-29,0.9203544287722055,0.9203544287722055,0.0,0,False
2023-08-30,0.9203544287722055,0.9203544287722055,0.0,0,False
2023-08-31,0.9203544287722055,0.9203544287722055,0.0,0,False
2023-09-01,0.9203544287722055,0.9203544287722055,0.0,0,False
2023-09-02,0.9203544287722055,0.9203544287722055,0.0,0,False
2023-09-03,0.9203544287722055,0.9203544287722055,0.0,0,False
2023-09-04,0.9203544287722055,0.9203544287722055,0.0,0,False
2023-09-05,0.9203544287722055,0.9203544287722055,0.0,0,False
2023-09-06,0.9203544287722055,0.9203544287722055,0.0,0,False
2023-09-07,0.9203544287722055,0.9203544287722055,0.0,0,False
2023-09-08,0.9203544287722055,0.9203544287722055,0.0,0,False
2023-09-09,0.9203544287722055,0.9203544287722055,0.0,0,False
2023-09-10,0.9203544287722055,0.9203544287722055,0.0,0,False
2023-09-11,0.9203544287722055,0.9203544287722055,0.0,0,False
2023-09-12,0.9203544287722055,0.9203544287722055,0.0,0,False
2023-09-13,0.9203544287722055,0.9203544287722055,0.0,0,False
2023-09-14,0.9203544287722055,0.9203544287722055,0.0,0,False
2023-09-15,0.9203544287722055,0.9203544287722055,0.0,0,False
2023-09-16,0.9203544287722055,0.9203544287722055,0.0,0,False
2023-09-17,0.9203544287722055,0.9203544287722055,0.0,0,False
2023-09-18,0.9203544287722055,0.9203544287722055,0.0,0,False
2023-09-19,0.9203544287722055,0.9203544287722055,0.0,0,False
2023-09-20,0.9203544287722055,0.9203544287722055,0.0,0,False
2023-09-21,0.9203544287722055,0.9203544287722055,0.0,0,False
2023-09-22,0.9203544287722055,0.9203544287722055,0.0,0,False
2023-09-23,0.9203544287722055,0.9203544287722055,0.0,0,False
2023-09-24,0.9203544287722055,0.9203544287722055,0.0,0,False
2023-09-25,0.9203544287722055,0.9203544287722055,0.0,0,False
2023-09-26,0.9203544287722055,0.9203544287722055,0.0,0,False
2023-09-27,0.9203544287722055,0.9203544287722055,0.0,0,False
2023-09-28,0.9203544287722055,0.9203544287722055,0.0,0,False
2023-09-29,0.9203544287722055,0.9203544287722055,0.0,0,False
2023-09-30,0.9203544287722055,0.9203544287722055,0.0,0,False
2023-10-01,0.9203544287722055,0.9203544287722055,0.0,0,False
2023-10-02,0.9203544287722055,0.9203544287722055,0.0,0,False
2023-10-03,0.9203544287722055,0.9203544287722055,0.0,0,False
2023-10-04,0.9203544287722055,0.9203544287722055,0.0,0,False
2023-10-05,0.9203544287722055,0.9203544287722055,0.0,0,False
2023-10-06,0.9203544287722055,0.9203544287722055,0.0,0,False
2023-10-07,0.9203544287722055,0.9203544287722055,0.0,0,False
2023-10-08,0.9203544287722055,0.9203544287722055,0.0,0,False
2023-10-09,0.9203544287722055,0.9203544287722055,0.0,0,False
2023-10-10,0.9203544287722055,0.9203544287722055,0.0,0,False
2023-10-11,0.9203544287722055,0.9203544287722055,0.0,0,False
2023-10-12,0.9203544287722055,0.9203544287722055,0.0,0,False
2023-10-13,0.9203544287722055,0.9203544287722055,0.0,0,False
2023-10-14,0.9203544287722055,0.9203544287722055,0.0,0,False
2023-10-15,0.9203544287722055,0.9203544287722055,0.0,0,False
2023-10-16,0.9203544287722055,0.9203544287722055,0.0,0,False
2023-10-17,0.9203544287722055,0.9203544287722055,0.0,0,False
2023-10-18,0.9203544287722055,0.9203544287722055,0.0,0,False
2023-10-19,0.9203544287722055,0.9203544287722055,0.0,0,False
2023-10-20,0.9203544287722055,0.9203544287722055,0.0,0,False
2023-10-21,0.9203544287722055,0.9203544287722055,0.0,0,False
2023-10-22,0.9203544287722055,0.9203544287722055,0.0,0,False
2023-10-23,0.9203544287722055,0.9203544287722055,0.0,0,False
2023-10-24,0.9203544287722055,0.9203544287722055,0.0,0,False
2023-10-25,0.9203544287722055,0.9203544287722055,0.0,0,False
2023-10-26,0.9203544287722055,0.9203544287722055,0.0,0,False
2023-10-27,0.9203544287722055,0.9203544287722055,0.0,0,False
2023-10-28,0.9203544287722055,0.9203544287722055,0.0,0,False
2023-10-29,0.9203544287722055,0.9203544287722055,0.0,0,False
2023-10-30,0.9203544287722055,0.9203544287722055,0.0,0,False
2023-10-31,0.9203544287722055,0.9203544287722055,0.0,0,False
2023-11-01,0.9203544287722055,0.9203544287722055,0.0,0,False
2023-11-02,0.9203544287722055,0.9203544287722055,0.0,0,False
2023-11-03,0.9203544287722055,0.9203544287722055,0.0,0,False
2023-11-04,0.9203544287722055,0.9203544287722055,0.0,0,False
2023-11-05,0.9203544287722055,0.9203544287722055,0.0,0,False
2023-11-06,0.9203544287722055,0.9203544287722055,0.0,0,False
2023-11-07,0.9203544287722055,0.9203544287722055,0.0,0,False
2023-11-08,0.9203544287722055,0.9203544287722055,0.0,0,False
2023-11-09,0.9203544287722055,0.9203544287722055,0.0,0,False
2023-11-10,0.9203544287722055,0.9203544287722055,0.0,0,False
2023-11-11,0.9203544287722055,0.9203544287722055,0.0,0,False
2023-11-12,0.9203544287722055,0.9203544287722055,0.0,0,False
2023-11-13,0.9203544287722055,0.9203544287722055,0.0,0,False
2023-11-14,0.9203544287722055,0.9203544287722055,0.0,0,False
2023-11-15,0.9203544287722055,0.9203544287722055,0.0,0,False
2023-11-16,0.9203544287722055,0.9203544287722055,0.0,0,False
2023-11-17,0.9203544287722055,0.9203544287722055,0.0,0,False
2023-11-18,0.9203544287722055,0.9203544287722055,0.0,0,False
2023-11-19,0.9203544287722055,0.9203544287722055,0.0,0,False
2023-11-20,0.9203544287722055,0.9203544287722055,0.0,0,False
2023-11-21,0.9203544287722055,0.9203544287722055,0.0,0,False
2023-11-22,0.9203544287722055,0.9203544287722055,0.0,0,False
2023-11-23,0.9203544287722055,0.9203544287722055,0.0,0,False
2023-11-24,0.9203544287722055,0.9203544287722055,0.0,0,False
2023-11-25,0.9203544287722055,0.9203544287722055,0.0,0,False
2023-11-26,0.9203544287722055,0.9203544287722055,0.0,0,False
2023-11-27,0.9203544287722055,0.9203544287722055,0.0,0,False
2023-11-28,0.9203544287722055,0.9203544287722055,0.0,0,False
2023-11-29,0.9203544287722055,0.9203544287722055,0.0,0,False
2023-11-30,0.9203544287722055,0.9203544287722055,0.0,0,False
2023-12-01,0.9203544287722055,0.9203544287722055,0.0,0,False
2023-12-02,0.9203544287722055,0.9203544287722055,0.0,0,False
2023-12-03,0.9203544287722055,0.9203544287722055,0.0,0,False
2023-12-04,0.9203544287722055,0.9203544287722055,0.0,0,False
2023-12-05,0.9203544287722055,0.9203544287722055,0.0,0,False
2023-12-06,0.9203544287722055,0.9203544287722055,0.0,0,False
2023-12-07,0.9203544287722055,0.9203544287722055,0.0,0,False
2023-12-08,0.9203544287722055,0.9203544287722055,0.0,0,False
2023-12-09,0.9203544287722055,0.9203544287722055,0.0,0,False
2023-12-10,0.9203544287722055,0.9203544287722055,0.0,0,False
2023-12-11,0.9203544287722055,0.9203544287722055,0.0,0,False
2023-12-12,0.9203544287722055,0.9203544287722055,0.0,0,False
2023-12-13,0.9203544287722055,0.9203544287722055,0.0,0,False
2023-12-14,0.9203544287722055,0.9203544287722055,0.0,0,False
2023-12-15,0.9203544287722055,0.9203544287722055,0.0,0,False
2023-12-16,0.9203544287722055,0.9203544287722055,0.0,0,False
2023-12-17,0.9203544287722055,0.9203544287722055,0.0,0,False
2023-12-18,0.9203544287722055,0.9203544287722055,0.0,0,False
2023-12-19,0.9203544287722055,0.9203544287722055,0.0,0,False
2023-12-20,0.9203544287722055,0.9203544287722055,0.0,0,False
2023-12-21,0.9203544287722055,0.9203544287722055,0.0,0,False
2023-12-22,0.9203544287722055,0.9203544287722055,0.0,0,False
2023-12-23,0.9203544287722055,0.9203544287722055,0.0,0,False
2023-12-24,0.9203544287722055,0.9203544287722055,0.0,0,False
2023-12-25,0.9203544287722055,0.9203544287722055,0.0,0,False
2023-12-26,0.9203544287722055,0.9203544287722055,0.0,0,False
2023-12-27,0.9203544287722055,0.9203544287722055,0.0,0,False
2023-12-28,0.9203544287722055,0.9203544287722055,0.0,0,False
2023-12-29,0.9203544287722055,0.9203544287722055,0.0,0,False
2023-12-30,0.9203544287722055,0.9203544287722055,0.0,0,False
2023-12-31,0.9203544287722055,0.9203544287722055,0.0,0,False
