day,start_equity,end_equity,return_pct,entries,active
2021-09-02,1.0,1.0,0.0,0,False
2021-09-03,1.0,1.0,0.0,0,False
2021-09-04,1.0,1.0,0.0,0,False
2021-09-05,1.0,1.0,0.0,0,False
2021-09-06,1.0,1.0,0.0,0,False
2021-09-07,1.0,1.0,0.0,0,False
2021-09-08,1.0,1.0,0.0,0,False
2021-09-09,1.0,1.0,0.0,0,False
2021-09-10,1.0,1.0,0.0,0,False
2021-09-11,1.0,1.0,0.0,0,False
2021-09-12,1.0,1.0,0.0,0,False
2021-09-13,1.0,1.0,0.0,0,False
2021-09-14,1.0,1.0,0.0,0,False
2021-09-15,1.0,1.0,0.0,0,False
2021-09-16,1.0,1.0,0.0,0,False
2021-09-17,1.0,1.0,0.0,0,False
2021-09-18,1.0,1.0,0.0,0,False
2021-09-19,1.0,1.0,0.0,0,False
2021-09-20,1.0,1.0,0.0,0,False
2021-09-21,1.0,1.0,0.0,0,False
2021-09-22,1.0,1.0,0.0,0,False
2021-09-23,1.0,1.0,0.0,0,False
2021-09-24,1.0,1.0,0.0,0,False
2021-09-25,1.0,1.0,0.0,0,False
2021-09-26,1.0,1.0,0.0,0,False
2021-09-27,1.0,1.0,0.0,0,False
2021-09-28,1.0,1.0,0.0,0,False
2021-09-29,1.0,1.0,0.0,0,False
2021-09-30,1.0,1.0,0.0,0,False
2021-10-01,1.0,1.0,0.0,0,False
2021-10-02,1.0,1.0,0.0,0,False
2021-10-03,1.0,1.0,0.0,0,False
2021-10-04,1.0,1.0,0.0,0,False
2021-10-05,1.0,1.0,0.0,0,False
2021-10-06,1.0,1.0013367622167146,0.13367622167146376,1,True
2021-10-07,1.0013367622167146,1.0004939772081831,-0.08416599093653554,0,True
2021-10-08,1.0004939772081831,1.0004939772081831,0.0,0,False
2021-10-09,1.0004939772081831,0.9981469044963843,-0.2345913883807782,3,True
2021-10-10,0.9981469044963843,1.000300551514583,0.21576453410787622,1,True
2021-10-11,1.000300551514583,0.9966563313634399,-0.3643125204345177,0,True
2021-10-12,0.9966563313634399,0.9966563313634399,0.0,0,False
2021-10-13,0.9966563313634399,1.0093296859517973,1.2715872251591431,4,True
2021-10-14,1.0093296859517973,1.025946761222844,1.646347620834776,0,True
2021-10-15,1.025946761222844,1.0289138650380927,0.2892064118134474,1,True
2021-10-16,1.0289138650380927,1.0353227358002395,0.622877286419854,0,True
2021-10-17,1.0353227358002395,1.0353227358002395,0.0,0,False
2021-10-18,1.0353227358002395,1.0342276589517874,-0.10577154452284798,1,True
2021-10-19,1.0342276589517874,1.0362706290829926,0.1975358242957581,0,True
2021-10-20,1.0362706290829926,1.0362706290829926,0.0,0,False
2021-10-21,1.0362706290829926,1.0362706290829926,0.0,0,False
2021-10-22,1.0362706290829926,1.0362706290829926,0.0,0,False
2021-10-23,1.0362706290829926,1.0362706290829926,0.0,0,False
2021-10-24,1.0362706290829926,1.0362706290829926,0.0,0,False
2021-10-25,1.0362706290829926,1.039398313653592,0.3018212118360619,1,True
2021-10-26,1.039398313653592,1.0426869606068132,0.3163991041760683,0,True
2021-10-27,1.0426869606068132,1.03974847681333,-0.28181840806497105,6,True
2021-10-28,1.03974847681333,1.0429600417746239,0.30887902535206013,0,True
2021-10-29,1.0429600417746239,1.0429600417746239,0.0,0,False
2021-10-30,1.0429600417746239,1.0429600417746239,0.0,0,False
2021-10-31,1.0429600417746239,1.0429600417746239,0.0,0,False
2021-11-01,1.0429600417746239,1.0441628842310027,0.11532967785918835,1,True
2021-11-02,1.0441628842310027,1.0437096547429698,-0.043406014030711315,0,True
2021-11-03,1.0437096547429698,1.0436986877811298,-0.001050767499388705,1,True
2021-11-04,1.0436986877811298,1.0604065360552093,1.600830629537331,1,True
2021-11-05,1.0604065360552093,1.0604065360552093,0.0,0,False
2021-11-06,1.0604065360552093,1.05725082481873,-0.2975944724198709,1,True
2021-11-07,1.05725082481873,1.057425723501437,0.01654278044540547,0,True
2021-11-08,1.057425723501437,1.057425723501437,0.0,0,False
2021-11-09,1.057425723501437,1.057425723501437,0.0,0,False
2021-11-10,1.057425723501437,1.057425723501437,0.0,0,False
2021-11-11,1.057425723501437,1.02601916601747,-2.970095845594811,6,True
2021-11-12,1.02601916601747,1.02601916601747,0.0,0,False
2021-11-13,1.02601916601747,1.0248523116861057,-0.11372636788974377,1,True
2021-11-14,1.0248523116861057,1.0251785813810474,0.03183577684524597,0,True
2021-11-15,1.0251785813810474,1.0251785813810474,0.0,0,False
2021-11-16,1.0251785813810474,1.0442633711163654,1.8616063661423876,5,True
2021-11-17,1.0442633711163654,1.033228985139617,-1.0566669560526765,0,True
2021-11-18,1.033228985139617,1.0303130130626386,-0.2822193452678312,2,True
2021-11-19,1.0303130130626386,1.0338866127812283,0.3468460238085447,1,True
2021-11-20,1.0338866127812283,1.0344045093082344,0.050092197790707615,0,True
2021-11-21,1.0344045093082344,1.0344045093082344,0.0,0,False
2021-11-22,1.0344045093082344,1.0292406801232938,-0.49920791513117235,1,True
2021-11-23,1.0292406801232938,1.0292406801232938,0.0,0,False
2021-11-24,1.0292406801232938,1.0292406801232938,0.0,0,False
2021-11-25,1.0292406801232938,1.0314915393473991,0.21869124176432386,2,True
2021-11-26,1.0314915393473991,1.0086546076340461,-2.213971791547742,3,True
2021-11-27,1.0086546076340461,1.0086546076340461,0.0,0,False
2021-11-28,1.0086546076340461,1.0036198508348306,-0.49915568333398497,1,True
2021-11-29,1.0036198508348306,1.0036198508348306,0.0,0,False
2021-11-30,1.0036198508348306,1.0036198508348306,0.0,0,False
2021-12-01,1.0036198508348306,1.0036198508348306,0.0,0,False
2021-12-02,1.0036198508348306,1.0014490210777702,-0.2163000019633543,2,True
2021-12-03,1.0014490210777702,0.9957595835880979,-0.5681205303440517,1,True
2021-12-04,0.9957595835880979,0.9738043070163476,-2.204877254872828,8,True
2021-12-05,0.9738043070163476,0.9709127186024922,-0.29693732026252473,1,True
2021-12-06,0.9709127186024922,0.9655443567699794,-0.5529190966042652,7,True
2021-12-07,0.9655443567699794,0.9893784140825178,2.468458040837196,0,True
2021-12-08,0.9893784140825178,0.9927184706916029,0.33759141715077323,1,True
2021-12-09,0.9927184706916029,0.9903903803372931,-0.23451667547677024,0,True
2021-12-10,0.9903903803372931,0.9854424969011271,-0.49958920587263034,1,True
2021-12-11,0.9854424969011271,0.9850445668140412,-0.04038085310276163,1,True
2021-12-12,0.9850445668140412,0.9865791867171679,0.1557919260536833,0,True
2021-12-13,0.9865791867171679,0.9831121008108846,-0.3514249999353791,1,True
2021-12-14,0.9831121008108846,0.9816518132489273,-0.14853723809857833,0,True
2021-12-15,0.9816518132489273,0.9816518132489273,0.0,0,False
2021-12-16,0.9816518132489273,0.9816518132489273,0.0,0,False
2021-12-17,0.9816518132489273,0.9819002232966314,0.025305311348833293,2,True
2021-12-18,0.9819002232966314,0.9875504732576021,0.5754403377158379,0,True
2021-12-19,0.9875504732576021,0.9844686731476264,-0.3120650734751651,1,True
2021-12-20,0.9844686731476264,0.9826161824833999,-0.18817162137862997,0,True
2021-12-21,0.9826161824833999,0.9799715507213885,-0.26914188969771047,1,True
2021-12-22,0.9799715507213885,0.980414307761165,0.04518060136036173,0,True
2021-12-23,0.980414307761165,0.980414307761165,0.0,0,False
2021-12-24,0.980414307761165,0.980414307761165,0.0,0,False
2021-12-25,0.980414307761165,0.9820022737030714,0.16196886656341114,1,True
2021-12-26,0.9820022737030714,0.9816745934850843,-0.03336858037521484,0,True
2021-12-27,0.9816745934850843,0.9816745934850843,0.0,0,False
2021-12-28,0.9816745934850843,0.9816745934850843,0.0,0,False
2021-12-29,0.9816745934850843,0.9816745934850843,0.0,0,False
2021-12-30,0.9816745934850843,0.9816745934850843,0.0,0,False
2021-12-31,0.9816745934850843,0.9816745934850843,0.0,0,False
2022-01-01,0.9816745934850843,0.9816745934850843,0.0,0,False
2022-01-02,0.9816745934850843,0.9816745934850843,0.0,0,False
2022-01-03,0.9816745934850843,0.9816745934850843,0.0,0,False
2022-01-04,0.9816745934850843,0.9816745934850843,0.0,0,False
2022-01-05,0.9816745934850843,0.9829346529099843,0.12835815791325533,1,True
2022-01-06,0.9829346529099843,0.9610537324900511,-2.2260808849453584,5,True
2022-01-07,0.9610537324900511,0.9642283018348234,0.3303217330572261,4,True
2022-01-08,0.9642283018348234,0.9622010455342705,-0.21024650455656602,0,True
2022-01-09,0.9622010455342705,0.9624507678709848,0.02595323896947832,1,True
2022-01-10,0.9624507678709848,0.9631627829395841,0.07397937560738033,0,True
2022-01-11,0.9631627829395841,0.9631627829395841,0.0,0,False
2022-01-12,0.9631627829395841,0.9631627829395841,0.0,0,False
2022-01-13,0.9631627829395841,0.9631627829395841,0.0,0,False
2022-01-14,0.9631627829395841,0.9631627829395841,0.0,0,False
2022-01-15,0.9631627829395841,0.9633314231632221,0.017509005396076915,1,True
2022-01-16,0.9633314231632221,0.9628425240010792,-0.05075087870979322,0,True
2022-01-17,0.9628425240010792,0.9638335650606187,0.1029286757528336,1,True
2022-01-18,0.9638335650606187,0.9672285482434528,0.3522374926443472,0,True
2022-01-19,0.9672285482434528,0.9672285482434528,0.0,0,False
2022-01-20,0.9672285482434528,0.9672285482434528,0.0,0,False
2022-01-21,0.9672285482434528,0.9515292635410999,-1.623120484901297,7,True
2022-01-22,0.9515292635410999,0.9401246132103477,-1.198560125025483,8,True
2022-01-23,0.9401246132103477,0.9439989452679455,0.4121083527818481,0,True
2022-01-24,0.9439989452679455,0.9411373572575512,-0.30313466182761983,2,True
2022-01-25,0.9411373572575512,0.949689995996697,0.9087556320225065,0,True
2022-01-26,0.949689995996697,0.949689995996697,0.0,0,False
2022-01-27,0.949689995996697,0.9560948611585641,0.6744164083928528,4,True
2022-01-28,0.9560948611585641,0.9498863866650047,-0.6493575842501875,0,True
2022-01-29,0.9498863866650047,0.9498863866650047,0.0,0,False
2022-01-30,0.9498863866650047,0.9531476012255756,0.3433268026948877,1,True
2022-01-31,0.9531476012255756,0.9541969667030176,0.1100947509171446,0,True
2022-02-01,0.9541969667030176,0.9541969667030176,0.0,0,False
2022-02-02,0.9541969667030176,0.9541969667030176,0.0,0,False
2022-02-03,0.9541969667030176,0.952805158291118,-0.14586175186750427,3,True
2022-02-04,0.952805158291118,0.9584964049635335,0.5973148468909395,0,True
2022-02-05,0.9584964049635335,0.9584964049635335,0.0,0,False
2022-02-06,0.9584964049635335,0.9584964049635335,0.0,0,False
2022-02-07,0.9584964049635335,0.9584964049635335,0.0,0,False
2022-02-08,0.9584964049635335,0.9584964049635335,0.0,0,False
2022-02-09,0.9584964049635335,0.9596296915245546,0.1182358697593866,2,True
2022-02-10,0.9596296915245546,0.9603878385763246,0.07900412611927532,5,True
2022-02-11,0.9603878385763246,0.9591119926403238,-0.13284694836329658,0,True
2022-02-12,0.9591119926403238,0.9495488042346967,-0.9970877727532912,4,True
2022-02-13,0.9495488042346967,0.9495488042346967,0.0,0,False
2022-02-14,0.9495488042346967,0.9495488042346967,0.0,0,False
2022-02-15,0.9495488042346967,0.9495488042346967,0.0,0,False
2022-02-16,0.9495488042346967,0.9495488042346967,0.0,0,False
2022-02-17,0.9495488042346967,0.9495488042346967,0.0,0,False
2022-02-18,0.9495488042346967,0.9495488042346967,0.0,0,False
2022-02-19,0.9495488042346967,0.9495488042346967,0.0,0,False
2022-02-20,0.9495488042346967,0.9495488042346967,0.0,0,False
2022-02-21,0.9495488042346967,0.9495488042346967,0.0,0,False
2022-02-22,0.9495488042346967,0.9487197335408252,-0.08731206760242971,2,True
2022-02-23,0.9487197335408252,0.9483280238140825,-0.04128824487298344,0,True
2022-02-24,0.9483280238140825,0.9388774306529762,-0.9965531887475954,4,True
2022-02-25,0.9388774306529762,0.9388774306529762,0.0,0,False
2022-02-26,0.9388774306529762,0.9388774306529762,0.0,0,False
2022-02-27,0.9388774306529762,0.9388774306529762,0.0,0,False
2022-02-28,0.9388774306529762,0.9399612656480667,0.11543945564189695,1,True
2022-03-01,0.9399612656480667,0.9413451342877853,0.14722613476678692,0,True
2022-03-02,0.9413451342877853,0.9413451342877853,0.0,0,False
2022-03-03,0.9413451342877853,0.9413451342877853,0.0,0,False
2022-03-04,0.9413451342877853,0.9404388563589999,-0.0962747769946315,1,True
2022-03-05,0.9404388563589999,0.9401265878431897,-0.03320455271480505,0,True
2022-03-06,0.9401265878431897,0.9369896807067719,-0.33366859069632326,3,True
2022-03-07,0.9369896807067719,0.9344275215574572,-0.2734458235849613,0,True
2022-03-08,0.9344275215574572,0.9349070169026338,0.051314343179598154,1,True
2022-03-09,0.9349070169026338,0.9390675661849702,0.4450227891240388,1,True
2022-03-10,0.9390675661849702,0.9389121881153014,-0.01654599469343987,3,True
2022-03-11,0.9389121881153014,0.936843175317228,-0.22036275854790954,0,True
2022-03-12,0.936843175317228,0.936843175317228,0.0,0,False
2022-03-13,0.936843175317228,0.936843175317228,0.0,0,False
2022-03-14,0.936843175317228,0.934505358921,-0.24954191457247088,1,True
2022-03-15,0.934505358921,0.9348925468579921,0.041432393436369175,1,True
2022-03-16,0.9348925468579921,0.936469045254796,0.16862883355979186,1,True
2022-03-17,0.936469045254796,0.9370692240213406,0.06408954674859135,1,True
2022-03-18,0.9370692240213406,0.9366245651372171,-0.047452084939392236,0,True
2022-03-19,0.9366245651372171,0.9366245651372171,0.0,0,False
2022-03-20,0.9366245651372171,0.9342852440311984,-0.24976081058434296,1,True
2022-03-21,0.9342852440311984,0.9370806260556832,0.29920006147410305,3,True
2022-03-22,0.9370806260556832,0.9367426617625558,-0.036065657930617334,0,True
2022-03-23,0.9367426617625558,0.9367426617625558,0.0,0,False
2022-03-24,0.9367426617625558,0.9367426617625558,0.0,0,False
2022-03-25,0.9367426617625558,0.9367426617625558,0.0,0,False
2022-03-26,0.9367426617625558,0.9367426617625558,0.0,0,False
2022-03-27,0.9367426617625558,0.9367426617625558,0.0,0,False
2022-03-28,0.9367426617625558,0.9367426617625558,0.0,0,False
2022-03-29,0.9367426617625558,0.9367426617625558,0.0,0,False
2022-03-30,0.9367426617625558,0.9405873751182208,0.4104343180474812,4,True
2022-03-31,0.9405873751182208,0.943920476142591,0.3543637850711434,5,True
2022-04-01,0.943920476142591,0.9333923219783117,-1.115364528090701,0,True
2022-04-02,0.9333923219783117,0.9333923219783117,0.0,0,False
2022-04-03,0.9333923219783117,0.9310626371545969,-0.24959331342869762,1,True
2022-04-04,0.9310626371545969,0.9310626371545969,0.0,0,False
2022-04-05,0.9310626371545969,0.9308781451268986,-0.019815211172269365,3,True
2022-04-06,0.9308781451268986,0.9175552999416984,-1.4312125872698478,7,True
2022-04-07,0.9175552999416984,0.914668119013428,-0.31466015491968813,0,True
2022-04-08,0.914668119013428,0.914668119013428,0.0,0,False
2022-04-09,0.914668119013428,0.914668119013428,0.0,0,False
2022-04-10,0.914668119013428,0.914668119013428,0.0,0,False
2022-04-11,0.914668119013428,0.9105200156668871,-0.4535091209929898,6,True
2022-04-12,0.9105200156668871,0.9127841985529634,0.24866920519237556,0,True
2022-04-13,0.9127841985529634,0.9127841985529634,0.0,0,False
2022-04-14,0.9127841985529634,0.9127841985529634,0.0,0,False
2022-04-15,0.9127841985529634,0.9127841985529634,0.0,0,False
2022-04-16,0.9127841985529634,0.9127841985529634,0.0,0,False
2022-04-17,0.9127841985529634,0.9147068630538183,0.21063735589450516,1,True
2022-04-18,0.9147068630538183,0.9154757780141597,0.08406135248337776,6,True
2022-04-19,0.9154757780141597,0.9238007781477037,0.9093632331379053,0,True
2022-04-20,0.9238007781477037,0.9238007781477037,0.0,0,False
2022-04-21,0.9238007781477037,0.9249280043238355,0.12202048350640204,2,True
2022-04-22,0.9249280043238355,0.922607205629492,-0.2509166857846412,0,True
2022-04-23,0.922607205629492,0.922607205629492,0.0,0,False
2022-04-24,0.922607205629492,0.922607205629492,0.0,0,False
2022-04-25,0.922607205629492,0.9197805761986281,-0.30637409003708704,3,True
2022-04-26,0.9197805761986281,0.921375833750625,0.17343892590013787,2,True
2022-04-27,0.921375833750625,0.9207372758567036,-0.06930482334467358,0,True
2022-04-28,0.9207372758567036,0.9207372758567036,0.0,0,False
2022-04-29,0.9207372758567036,0.9207372758567036,0.0,0,False
2022-04-30,0.9207372758567036,0.9193804732190318,-0.1473604548495544,1,True
2022-05-01,0.9193804732190318,0.921925078914767,0.27677395483785006,6,True
2022-05-02,0.921925078914767,0.9266509121003191,0.5126049061508375,0,True
2022-05-03,0.9266509121003191,0.927063622758552,0.044537878595241054,3,True
2022-05-04,0.927063622758552,0.9234282466818611,-0.39213879041802846,1,True
2022-05-05,0.9234282466818611,0.9234282466818611,0.0,0,False
2022-05-06,0.9234282466818611,0.9174022588200831,-0.6525669843250981,4,True
2022-05-07,0.9174022588200831,0.9152950450412909,-0.22969354593723734,2,True
2022-05-08,0.9152950450412909,0.909459528887952,-0.6375557460901127,3,True
2022-05-09,0.909459528887952,0.9045160552046161,-0.5435617008027416,3,True
2022-05-10,0.9045160552046161,0.9001243543600539,-0.48553044683863344,1,True
2022-05-11,0.9001243543600539,0.9001243543600539,0.0,0,False
2022-05-12,0.9001243543600539,0.9001243543600539,0.0,0,False
2022-05-13,0.9001243543600539,0.9001243543600539,0.0,0,False
2022-05-14,0.9001243543600539,0.9001243543600539,0.0,0,False
2022-05-15,0.9001243543600539,0.9001243543600539,0.0,0,False
2022-05-16,0.9001243543600539,0.9001243543600539,0.0,0,False
2022-05-17,0.9001243543600539,0.9001243543600539,0.0,0,False
2022-05-18,0.9001243543600539,0.9001243543600539,0.0,0,False
2022-05-19,0.9001243543600539,0.9001243543600539,0.0,0,False
2022-05-20,0.9001243543600539,0.9001243543600539,0.0,0,False
2022-05-21,0.9001243543600539,0.9001243543600539,0.0,0,False
2022-05-22,0.9001243543600539,0.9001243543600539,0.0,0,False
2022-05-23,0.9001243543600539,0.9001243543600539,0.0,0,False
2022-05-24,0.9001243543600539,0.9001243543600539,0.0,0,False
2022-05-25,0.9001243543600539,0.9001243543600539,0.0,0,False
2022-05-26,0.9001243543600539,0.9001243543600539,0.0,0,False
2022-05-27,0.9001243543600539,0.9001243543600539,0.0,0,False
2022-05-28,0.9001243543600539,0.9001243543600539,0.0,0,False
2022-05-29,0.9001243543600539,0.9001243543600539,0.0,0,False
2022-05-30,0.9001243543600539,0.9001243543600539,0.0,0,False
2022-05-31,0.9001243543600539,0.9001243543600539,0.0,0,False
2022-06-01,0.9001243543600539,0.9001243543600539,0.0,0,False
2022-06-02,0.9001243543600539,0.9001243543600539,0.0,0,False
2022-06-03,0.9001243543600539,0.9001243543600539,0.0,0,False
2022-06-04,0.9001243543600539,0.9001243543600539,0.0,0,False
2022-06-05,0.9001243543600539,0.9001243543600539,0.0,0,False
2022-06-06,0.9001243543600539,0.9001243543600539,0.0,0,False
2022-06-07,0.9001243543600539,0.9001243543600539,0.0,0,False
2022-06-08,0.9001243543600539,0.9001243543600539,0.0,0,False
2022-06-09,0.9001243543600539,0.9001243543600539,0.0,0,False
2022-06-10,0.9001243543600539,0.9001243543600539,0.0,0,False
2022-06-11,0.9001243543600539,0.9001243543600539,0.0,0,False
2022-06-12,0.9001243543600539,0.9001243543600539,0.0,0,False
2022-06-13,0.9001243543600539,0.9001243543600539,0.0,0,False
2022-06-14,0.9001243543600539,0.9001243543600539,0.0,0,False
2022-06-15,0.9001243543600539,0.9001243543600539,0.0,0,False
2022-06-16,0.9001243543600539,0.9001243543600539,0.0,0,False
2022-06-17,0.9001243543600539,0.9001243543600539,0.0,0,False
2022-06-18,0.9001243543600539,0.9001243543600539,0.0,0,False
2022-06-19,0.9001243543600539,0.9001243543600539,0.0,0,False
2022-06-20,0.9001243543600539,0.9001243543600539,0.0,0,False
2022-06-21,0.9001243543600539,0.9001243543600539,0.0,0,False
2022-06-22,0.9001243543600539,0.9001243543600539,0.0,0,False
2022-06-23,0.9001243543600539,0.9001243543600539,0.0,0,False
2022-06-24,0.9001243543600539,0.9001243543600539,0.0,0,False
2022-06-25,0.9001243543600539,0.9001243543600539,0.0,0,False
2022-06-26,0.9001243543600539,0.9001243543600539,0.0,0,False
2022-06-27,0.9001243543600539,0.9001243543600539,0.0,0,False
2022-06-28,0.9001243543600539,0.9001243543600539,0.0,0,False
2022-06-29,0.9001243543600539,0.9001243543600539,0.0,0,False
2022-06-30,0.9001243543600539,0.9001243543600539,0.0,0,False
2022-07-01,0.9001243543600539,0.9001243543600539,0.0,0,False
2022-07-02,0.9001243543600539,0.9001243543600539,0.0,0,False
2022-07-03,0.9001243543600539,0.9001243543600539,0.0,0,False
2022-07-04,0.9001243543600539,0.9001243543600539,0.0,0,False
2022-07-05,0.9001243543600539,0.9001243543600539,0.0,0,False
2022-07-06,0.9001243543600539,0.9001243543600539,0.0,0,False
2022-07-07,0.9001243543600539,0.9001243543600539,0.0,0,False
2022-07-08,0.9001243543600539,0.9001243543600539,0.0,0,False
2022-07-09,0.9001243543600539,0.9001243543600539,0.0,0,False
2022-07-10,0.9001243543600539,0.9001243543600539,0.0,0,False
2022-07-11,0.9001243543600539,0.9001243543600539,0.0,0,False
2022-07-12,0.9001243543600539,0.9001243543600539,0.0,0,False
2022-07-13,0.9001243543600539,0.9001243543600539,0.0,0,False
2022-07-14,0.9001243543600539,0.9001243543600539,0.0,0,False
2022-07-15,0.9001243543600539,0.9001243543600539,0.0,0,False
2022-07-16,0.9001243543600539,0.9001243543600539,0.0,0,False
2022-07-17,0.9001243543600539,0.9001243543600539,0.0,0,False
2022-07-18,0.9001243543600539,0.9001243543600539,0.0,0,False
2022-07-19,0.9001243543600539,0.9001243543600539,0.0,0,False
2022-07-20,0.9001243543600539,0.9001243543600539,0.0,0,False
2022-07-21,0.9001243543600539,0.9001243543600539,0.0,0,False
2022-07-22,0.9001243543600539,0.9001243543600539,0.0,0,False
2022-07-23,0.9001243543600539,0.9001243543600539,0.0,0,False
2022-07-24,0.9001243543600539,0.9001243543600539,0.0,0,False
2022-07-25,0.9001243543600539,0.9001243543600539,0.0,0,False
2022-07-26,0.9001243543600539,0.9001243543600539,0.0,0,False
2022-07-27,0.9001243543600539,0.9001243543600539,0.0,0,False
2022-07-28,0.9001243543600539,0.9001243543600539,0.0,0,False
2022-07-29,0.9001243543600539,0.9001243543600539,0.0,0,False
2022-07-30,0.9001243543600539,0.9001243543600539,0.0,0,False
2022-07-31,0.9001243543600539,0.9001243543600539,0.0,0,False
2022-08-01,0.9001243543600539,0.9001243543600539,0.0,0,False
2022-08-02,0.9001243543600539,0.9001243543600539,0.0,0,False
2022-08-03,0.9001243543600539,0.9001243543600539,0.0,0,False
2022-08-04,0.9001243543600539,0.9001243543600539,0.0,0,False
2022-08-05,0.9001243543600539,0.9001243543600539,0.0,0,False
2022-08-06,0.9001243543600539,0.9001243543600539,0.0,0,False
2022-08-07,0.9001243543600539,0.9001243543600539,0.0,0,False
2022-08-08,0.9001243543600539,0.9001243543600539,0.0,0,False
2022-08-09,0.9001243543600539,0.9001243543600539,0.0,0,False
2022-08-10,0.9001243543600539,0.9001243543600539,0.0,0,False
2022-08-11,0.9001243543600539,0.9001243543600539,0.0,0,False
2022-08-12,0.9001243543600539,0.9001243543600539,0.0,0,False
2022-08-13,0.9001243543600539,0.9001243543600539,0.0,0,False
2022-08-14,0.9001243543600539,0.9001243543600539,0.0,0,False
2022-08-15,0.9001243543600539,0.9001243543600539,0.0,0,False
2022-08-16,0.9001243543600539,0.9001243543600539,0.0,0,False
2022-08-17,0.9001243543600539,0.9001243543600539,0.0,0,False
2022-08-18,0.9001243543600539,0.9001243543600539,0.0,0,False
2022-08-19,0.9001243543600539,0.9001243543600539,0.0,0,False
2022-08-20,0.9001243543600539,0.9001243543600539,0.0,0,False
2022-08-21,0.9001243543600539,0.9001243543600539,0.0,0,False
2022-08-22,0.9001243543600539,0.9001243543600539,0.0,0,False
2022-08-23,0.9001243543600539,0.9001243543600539,0.0,0,False
2022-08-24,0.9001243543600539,0.9001243543600539,0.0,0,False
2022-08-25,0.9001243543600539,0.9001243543600539,0.0,0,False
2022-08-26,0.9001243543600539,0.9001243543600539,0.0,0,False
2022-08-27,0.9001243543600539,0.9001243543600539,0.0,0,False
2022-08-28,0.9001243543600539,0.9001243543600539,0.0,0,False
2022-08-29,0.9001243543600539,0.9001243543600539,0.0,0,False
2022-08-30,0.9001243543600539,0.9001243543600539,0.0,0,False
2022-08-31,0.9001243543600539,0.9001243543600539,0.0,0,False
2022-09-01,0.9001243543600539,0.9001243543600539,0.0,0,False
2022-09-02,0.9001243543600539,0.9001243543600539,0.0,0,False
2022-09-03,0.9001243543600539,0.9001243543600539,0.0,0,False
2022-09-04,0.9001243543600539,0.9001243543600539,0.0,0,False
2022-09-05,0.9001243543600539,0.9001243543600539,0.0,0,False
2022-09-06,0.9001243543600539,0.9001243543600539,0.0,0,False
2022-09-07,0.9001243543600539,0.9001243543600539,0.0,0,False
2022-09-08,0.9001243543600539,0.9001243543600539,0.0,0,False
2022-09-09,0.9001243543600539,0.9001243543600539,0.0,0,False
2022-09-10,0.9001243543600539,0.9001243543600539,0.0,0,False
2022-09-11,0.9001243543600539,0.9001243543600539,0.0,0,False
2022-09-12,0.9001243543600539,0.9001243543600539,0.0,0,False
2022-09-13,0.9001243543600539,0.9001243543600539,0.0,0,False
2022-09-14,0.9001243543600539,0.9001243543600539,0.0,0,False
2022-09-15,0.9001243543600539,0.9001243543600539,0.0,0,False
2022-09-16,0.9001243543600539,0.9001243543600539,0.0,0,False
2022-09-17,0.9001243543600539,0.9001243543600539,0.0,0,False
2022-09-18,0.9001243543600539,0.9001243543600539,0.0,0,False
2022-09-19,0.9001243543600539,0.9001243543600539,0.0,0,False
2022-09-20,0.9001243543600539,0.9001243543600539,0.0,0,False
2022-09-21,0.9001243543600539,0.9001243543600539,0.0,0,False
2022-09-22,0.9001243543600539,0.9001243543600539,0.0,0,False
2022-09-23,0.9001243543600539,0.9001243543600539,0.0,0,False
2022-09-24,0.9001243543600539,0.9001243543600539,0.0,0,False
2022-09-25,0.9001243543600539,0.9001243543600539,0.0,0,False
2022-09-26,0.9001243543600539,0.9001243543600539,0.0,0,False
2022-09-27,0.9001243543600539,0.9001243543600539,0.0,0,False
2022-09-28,0.9001243543600539,0.9001243543600539,0.0,0,False
2022-09-29,0.9001243543600539,0.9001243543600539,0.0,0,False
2022-09-30,0.9001243543600539,0.9001243543600539,0.0,0,False
2022-10-01,0.9001243543600539,0.9001243543600539,0.0,0,False
2022-10-02,0.9001243543600539,0.9001243543600539,0.0,0,False
2022-10-03,0.9001243543600539,0.9001243543600539,0.0,0,False
2022-10-04,0.9001243543600539,0.9001243543600539,0.0,0,False
2022-10-05,0.9001243543600539,0.9001243543600539,0.0,0,False
2022-10-06,0.9001243543600539,0.9001243543600539,0.0,0,False
2022-10-07,0.9001243543600539,0.9001243543600539,0.0,0,False
2022-10-08,0.9001243543600539,0.9001243543600539,0.0,0,False
2022-10-09,0.9001243543600539,0.9001243543600539,0.0,0,False
2022-10-10,0.9001243543600539,0.9001243543600539,0.0,0,False
2022-10-11,0.9001243543600539,0.9001243543600539,0.0,0,False
2022-10-12,0.9001243543600539,0.9001243543600539,0.0,0,False
2022-10-13,0.9001243543600539,0.9001243543600539,0.0,0,False
2022-10-14,0.9001243543600539,0.9001243543600539,0.0,0,False
2022-10-15,0.9001243543600539,0.9001243543600539,0.0,0,False
2022-10-16,0.9001243543600539,0.9001243543600539,0.0,0,False
2022-10-17,0.9001243543600539,0.9001243543600539,0.0,0,False
2022-10-18,0.9001243543600539,0.9001243543600539,0.0,0,False
2022-10-19,0.9001243543600539,0.9001243543600539,0.0,0,False
2022-10-20,0.9001243543600539,0.9001243543600539,0.0,0,False
2022-10-21,0.9001243543600539,0.9001243543600539,0.0,0,False
2022-10-22,0.9001243543600539,0.9001243543600539,0.0,0,False
2022-10-23,0.9001243543600539,0.9001243543600539,0.0,0,False
2022-10-24,0.9001243543600539,0.9001243543600539,0.0,0,False
2022-10-25,0.9001243543600539,0.9001243543600539,0.0,0,False
2022-10-26,0.9001243543600539,0.9001243543600539,0.0,0,False
2022-10-27,0.9001243543600539,0.9001243543600539,0.0,0,False
2022-10-28,0.9001243543600539,0.9001243543600539,0.0,0,False
2022-10-29,0.9001243543600539,0.9001243543600539,0.0,0,False
2022-10-30,0.9001243543600539,0.9001243543600539,0.0,0,False
2022-10-31,0.9001243543600539,0.9001243543600539,0.0,0,False
2022-11-01,0.9001243543600539,0.9001243543600539,0.0,0,False
2022-11-02,0.9001243543600539,0.9001243543600539,0.0,0,False
2022-11-03,0.9001243543600539,0.9001243543600539,0.0,0,False
2022-11-04,0.9001243543600539,0.9001243543600539,0.0,0,False
2022-11-05,0.9001243543600539,0.9001243543600539,0.0,0,False
2022-11-06,0.9001243543600539,0.9001243543600539,0.0,0,False
2022-11-07,0.9001243543600539,0.9001243543600539,0.0,0,False
2022-11-08,0.9001243543600539,0.9001243543600539,0.0,0,False
2022-11-09,0.9001243543600539,0.9001243543600539,0.0,0,False
2022-11-10,0.9001243543600539,0.9001243543600539,0.0,0,False
2022-11-11,0.9001243543600539,0.9001243543600539,0.0,0,False
2022-11-12,0.9001243543600539,0.9001243543600539,0.0,0,False
2022-11-13,0.9001243543600539,0.9001243543600539,0.0,0,False
2022-11-14,0.9001243543600539,0.9001243543600539,0.0,0,False
2022-11-15,0.9001243543600539,0.9001243543600539,0.0,0,False
2022-11-16,0.9001243543600539,0.9001243543600539,0.0,0,False
2022-11-17,0.9001243543600539,0.9001243543600539,0.0,0,False
2022-11-18,0.9001243543600539,0.9001243543600539,0.0,0,False
2022-11-19,0.9001243543600539,0.9001243543600539,0.0,0,False
2022-11-20,0.9001243543600539,0.9001243543600539,0.0,0,False
2022-11-21,0.9001243543600539,0.9001243543600539,0.0,0,False
2022-11-22,0.9001243543600539,0.9001243543600539,0.0,0,False
2022-11-23,0.9001243543600539,0.9001243543600539,0.0,0,False
2022-11-24,0.9001243543600539,0.9001243543600539,0.0,0,False
2022-11-25,0.9001243543600539,0.9001243543600539,0.0,0,False
2022-11-26,0.9001243543600539,0.9001243543600539,0.0,0,False
2022-11-27,0.9001243543600539,0.9001243543600539,0.0,0,False
2022-11-28,0.9001243543600539,0.9001243543600539,0.0,0,False
2022-11-29,0.9001243543600539,0.9001243543600539,0.0,0,False
2022-11-30,0.9001243543600539,0.9001243543600539,0.0,0,False
2022-12-01,0.9001243543600539,0.9001243543600539,0.0,0,False
2022-12-02,0.9001243543600539,0.9001243543600539,0.0,0,False
2022-12-03,0.9001243543600539,0.9001243543600539,0.0,0,False
2022-12-04,0.9001243543600539,0.9001243543600539,0.0,0,False
2022-12-05,0.9001243543600539,0.9001243543600539,0.0,0,False
2022-12-06,0.9001243543600539,0.9001243543600539,0.0,0,False
2022-12-07,0.9001243543600539,0.9001243543600539,0.0,0,False
2022-12-08,0.9001243543600539,0.9001243543600539,0.0,0,False
2022-12-09,0.9001243543600539,0.9001243543600539,0.0,0,False
2022-12-10,0.9001243543600539,0.9001243543600539,0.0,0,False
2022-12-11,0.9001243543600539,0.9001243543600539,0.0,0,False
2022-12-12,0.9001243543600539,0.9001243543600539,0.0,0,False
2022-12-13,0.9001243543600539,0.9001243543600539,0.0,0,False
2022-12-14,0.9001243543600539,0.9001243543600539,0.0,0,False
2022-12-15,0.9001243543600539,0.9001243543600539,0.0,0,False
2022-12-16,0.9001243543600539,0.9001243543600539,0.0,0,False
2022-12-17,0.9001243543600539,0.9001243543600539,0.0,0,False
2022-12-18,0.9001243543600539,0.9001243543600539,0.0,0,False
2022-12-19,0.9001243543600539,0.9001243543600539,0.0,0,False
2022-12-20,0.9001243543600539,0.9001243543600539,0.0,0,False
2022-12-21,0.9001243543600539,0.9001243543600539,0.0,0,False
2022-12-22,0.9001243543600539,0.9001243543600539,0.0,0,False
2022-12-23,0.9001243543600539,0.9001243543600539,0.0,0,False
2022-12-24,0.9001243543600539,0.9001243543600539,0.0,0,False
2022-12-25,0.9001243543600539,0.9001243543600539,0.0,0,False
2022-12-26,0.9001243543600539,0.9001243543600539,0.0,0,False
2022-12-27,0.9001243543600539,0.9001243543600539,0.0,0,False
2022-12-28,0.9001243543600539,0.9001243543600539,0.0,0,False
2022-12-29,0.9001243543600539,0.9001243543600539,0.0,0,False
2022-12-30,0.9001243543600539,0.9001243543600539,0.0,0,False
2022-12-31,0.9001243543600539,0.9001243543600539,0.0,0,False
2023-01-01,0.9001243543600539,0.9001243543600539,0.0,0,False
2023-01-02,0.9001243543600539,0.9001243543600539,0.0,0,False
2023-01-03,0.9001243543600539,0.9001243543600539,0.0,0,False
2023-01-04,0.9001243543600539,0.9001243543600539,0.0,0,False
2023-01-05,0.9001243543600539,0.9001243543600539,0.0,0,False
2023-01-06,0.9001243543600539,0.9001243543600539,0.0,0,False
2023-01-07,0.9001243543600539,0.9001243543600539,0.0,0,False
2023-01-08,0.9001243543600539,0.9001243543600539,0.0,0,False
2023-01-09,0.9001243543600539,0.9001243543600539,0.0,0,False
2023-01-10,0.9001243543600539,0.9001243543600539,0.0,0,False
2023-01-11,0.9001243543600539,0.9001243543600539,0.0,0,False
2023-01-12,0.9001243543600539,0.9001243543600539,0.0,0,False
2023-01-13,0.9001243543600539,0.9001243543600539,0.0,0,False
2023-01-14,0.9001243543600539,0.9001243543600539,0.0,0,False
2023-01-15,0.9001243543600539,0.9001243543600539,0.0,0,False
2023-01-16,0.9001243543600539,0.9001243543600539,0.0,0,False
2023-01-17,0.9001243543600539,0.9001243543600539,0.0,0,False
2023-01-18,0.9001243543600539,0.9001243543600539,0.0,0,False
2023-01-19,0.9001243543600539,0.9001243543600539,0.0,0,False
2023-01-20,0.9001243543600539,0.9001243543600539,0.0,0,False
2023-01-21,0.9001243543600539,0.9001243543600539,0.0,0,False
2023-01-22,0.9001243543600539,0.9001243543600539,0.0,0,False
2023-01-23,0.9001243543600539,0.9001243543600539,0.0,0,False
2023-01-24,0.9001243543600539,0.9001243543600539,0.0,0,False
2023-01-25,0.9001243543600539,0.9001243543600539,0.0,0,False
2023-01-26,0.9001243543600539,0.9001243543600539,0.0,0,False
2023-01-27,0.9001243543600539,0.9001243543600539,0.0,0,False
2023-01-28,0.9001243543600539,0.9001243543600539,0.0,0,False
2023-01-29,0.9001243543600539,0.9001243543600539,0.0,0,False
2023-01-30,0.9001243543600539,0.9001243543600539,0.0,0,False
2023-01-31,0.9001243543600539,0.9001243543600539,0.0,0,False
2023-02-01,0.9001243543600539,0.9001243543600539,0.0,0,False
2023-02-02,0.9001243543600539,0.9001243543600539,0.0,0,False
2023-02-03,0.9001243543600539,0.9001243543600539,0.0,0,False
2023-02-04,0.9001243543600539,0.9001243543600539,0.0,0,False
2023-02-05,0.9001243543600539,0.9001243543600539,0.0,0,False
2023-02-06,0.9001243543600539,0.9001243543600539,0.0,0,False
2023-02-07,0.9001243543600539,0.9001243543600539,0.0,0,False
2023-02-08,0.9001243543600539,0.9001243543600539,0.0,0,False
2023-02-09,0.9001243543600539,0.9001243543600539,0.0,0,False
2023-02-10,0.9001243543600539,0.9001243543600539,0.0,0,False
2023-02-11,0.9001243543600539,0.9001243543600539,0.0,0,False
2023-02-12,0.9001243543600539,0.9001243543600539,0.0,0,False
2023-02-13,0.9001243543600539,0.9001243543600539,0.0,0,False
2023-02-14,0.9001243543600539,0.9001243543600539,0.0,0,False
2023-02-15,0.9001243543600539,0.9001243543600539,0.0,0,False
2023-02-16,0.9001243543600539,0.9001243543600539,0.0,0,False
2023-02-17,0.9001243543600539,0.9001243543600539,0.0,0,False
2023-02-18,0.9001243543600539,0.9001243543600539,0.0,0,False
2023-02-19,0.9001243543600539,0.9001243543600539,0.0,0,False
2023-02-20,0.9001243543600539,0.9001243543600539,0.0,0,False
2023-02-21,0.9001243543600539,0.9001243543600539,0.0,0,False
2023-02-22,0.9001243543600539,0.9001243543600539,0.0,0,False
2023-02-23,0.9001243543600539,0.9001243543600539,0.0,0,False
2023-02-24,0.9001243543600539,0.9001243543600539,0.0,0,False
2023-02-25,0.9001243543600539,0.9001243543600539,0.0,0,False
2023-02-26,0.9001243543600539,0.9001243543600539,0.0,0,False
2023-02-27,0.9001243543600539,0.9001243543600539,0.0,0,False
2023-02-28,0.9001243543600539,0.9001243543600539,0.0,0,False
2023-03-01,0.9001243543600539,0.9001243543600539,0.0,0,False
2023-03-02,0.9001243543600539,0.9001243543600539,0.0,0,False
2023-03-03,0.9001243543600539,0.9001243543600539,0.0,0,False
2023-03-04,0.9001243543600539,0.9001243543600539,0.0,0,False
2023-03-05,0.9001243543600539,0.9001243543600539,0.0,0,False
2023-03-06,0.9001243543600539,0.9001243543600539,0.0,0,False
2023-03-07,0.9001243543600539,0.9001243543600539,0.0,0,False
2023-03-08,0.9001243543600539,0.9001243543600539,0.0,0,False
2023-03-09,0.9001243543600539,0.9001243543600539,0.0,0,False
2023-03-10,0.9001243543600539,0.9001243543600539,0.0,0,False
2023-03-11,0.9001243543600539,0.9001243543600539,0.0,0,False
2023-03-12,0.9001243543600539,0.9001243543600539,0.0,0,False
2023-03-13,0.9001243543600539,0.9001243543600539,0.0,0,False
2023-03-14,0.9001243543600539,0.9001243543600539,0.0,0,False
2023-03-15,0.9001243543600539,0.9001243543600539,0.0,0,False
2023-03-16,0.9001243543600539,0.9001243543600539,0.0,0,False
2023-03-17,0.9001243543600539,0.9001243543600539,0.0,0,False
2023-03-18,0.9001243543600539,0.9001243543600539,0.0,0,False
2023-03-19,0.9001243543600539,0.9001243543600539,0.0,0,False
2023-03-20,0.9001243543600539,0.9001243543600539,0.0,0,False
2023-03-21,0.9001243543600539,0.9001243543600539,0.0,0,False
2023-03-22,0.9001243543600539,0.9001243543600539,0.0,0,False
2023-03-23,0.9001243543600539,0.9001243543600539,0.0,0,False
2023-03-24,0.9001243543600539,0.9001243543600539,0.0,0,False
2023-03-25,0.9001243543600539,0.9001243543600539,0.0,0,False
2023-03-26,0.9001243543600539,0.9001243543600539,0.0,0,False
2023-03-27,0.9001243543600539,0.9001243543600539,0.0,0,False
2023-03-28,0.9001243543600539,0.9001243543600539,0.0,0,False
2023-03-29,0.9001243543600539,0.9001243543600539,0.0,0,False
2023-03-30,0.9001243543600539,0.9001243543600539,0.0,0,False
2023-03-31,0.9001243543600539,0.9001243543600539,0.0,0,False
2023-04-01,0.9001243543600539,0.9001243543600539,0.0,0,False
2023-04-02,0.9001243543600539,0.9001243543600539,0.0,0,False
2023-04-03,0.9001243543600539,0.9001243543600539,0.0,0,False
2023-04-04,0.9001243543600539,0.9001243543600539,0.0,0,False
2023-04-05,0.9001243543600539,0.9001243543600539,0.0,0,False
2023-04-06,0.9001243543600539,0.9001243543600539,0.0,0,False
2023-04-07,0.9001243543600539,0.9001243543600539,0.0,0,False
2023-04-08,0.9001243543600539,0.9001243543600539,0.0,0,False
2023-04-09,0.9001243543600539,0.9001243543600539,0.0,0,False
2023-04-10,0.9001243543600539,0.9001243543600539,0.0,0,False
2023-04-11,0.9001243543600539,0.9001243543600539,0.0,0,False
2023-04-12,0.9001243543600539,0.9001243543600539,0.0,0,False
2023-04-13,0.9001243543600539,0.9001243543600539,0.0,0,False
2023-04-14,0.9001243543600539,0.9001243543600539,0.0,0,False
2023-04-15,0.9001243543600539,0.9001243543600539,0.0,0,False
2023-04-16,0.9001243543600539,0.9001243543600539,0.0,0,False
2023-04-17,0.9001243543600539,0.9001243543600539,0.0,0,False
2023-04-18,0.9001243543600539,0.9001243543600539,0.0,0,False
2023-04-19,0.9001243543600539,0.9001243543600539,0.0,0,False
2023-04-20,0.9001243543600539,0.9001243543600539,0.0,0,False
2023-04-21,0.9001243543600539,0.9001243543600539,0.0,0,False
2023-04-22,0.9001243543600539,0.9001243543600539,0.0,0,False
2023-04-23,0.9001243543600539,0.9001243543600539,0.0,0,False
2023-04-24,0.9001243543600539,0.9001243543600539,0.0,0,False
2023-04-25,0.9001243543600539,0.9001243543600539,0.0,0,False
2023-04-26,0.9001243543600539,0.9001243543600539,0.0,0,False
2023-04-27,0.9001243543600539,0.9001243543600539,0.0,0,False
2023-04-28,0.9001243543600539,0.9001243543600539,0.0,0,False
2023-04-29,0.9001243543600539,0.9001243543600539,0.0,0,False
2023-04-30,0.9001243543600539,0.9001243543600539,0.0,0,False
2023-05-01,0.9001243543600539,0.9001243543600539,0.0,0,False
2023-05-02,0.9001243543600539,0.9001243543600539,0.0,0,False
2023-05-03,0.9001243543600539,0.9001243543600539,0.0,0,False
2023-05-04,0.9001243543600539,0.9001243543600539,0.0,0,False
2023-05-05,0.9001243543600539,0.9001243543600539,0.0,0,False
2023-05-06,0.9001243543600539,0.9001243543600539,0.0,0,False
2023-05-07,0.9001243543600539,0.9001243543600539,0.0,0,False
2023-05-08,0.9001243543600539,0.9001243543600539,0.0,0,False
2023-05-09,0.9001243543600539,0.9001243543600539,0.0,0,False
2023-05-10,0.9001243543600539,0.9001243543600539,0.0,0,False
2023-05-11,0.9001243543600539,0.9001243543600539,0.0,0,False
2023-05-12,0.9001243543600539,0.9001243543600539,0.0,0,False
2023-05-13,0.9001243543600539,0.9001243543600539,0.0,0,False
2023-05-14,0.9001243543600539,0.9001243543600539,0.0,0,False
2023-05-15,0.9001243543600539,0.9001243543600539,0.0,0,False
2023-05-16,0.9001243543600539,0.9001243543600539,0.0,0,False
2023-05-17,0.9001243543600539,0.9001243543600539,0.0,0,False
2023-05-18,0.9001243543600539,0.9001243543600539,0.0,0,False
2023-05-19,0.9001243543600539,0.9001243543600539,0.0,0,False
2023-05-20,0.9001243543600539,0.9001243543600539,0.0,0,False
2023-05-21,0.9001243543600539,0.9001243543600539,0.0,0,False
2023-05-22,0.9001243543600539,0.9001243543600539,0.0,0,False
2023-05-23,0.9001243543600539,0.9001243543600539,0.0,0,False
2023-05-24,0.9001243543600539,0.9001243543600539,0.0,0,False
2023-05-25,0.9001243543600539,0.9001243543600539,0.0,0,False
2023-05-26,0.9001243543600539,0.9001243543600539,0.0,0,False
2023-05-27,0.9001243543600539,0.9001243543600539,0.0,0,False
2023-05-28,0.9001243543600539,0.9001243543600539,0.0,0,False
2023-05-29,0.9001243543600539,0.9001243543600539,0.0,0,False
2023-05-30,0.9001243543600539,0.9001243543600539,0.0,0,False
2023-05-31,0.9001243543600539,0.9001243543600539,0.0,0,False
2023-06-01,0.9001243543600539,0.9001243543600539,0.0,0,False
2023-06-02,0.9001243543600539,0.9001243543600539,0.0,0,False
2023-06-03,0.9001243543600539,0.9001243543600539,0.0,0,False
2023-06-04,0.9001243543600539,0.9001243543600539,0.0,0,False
2023-06-05,0.9001243543600539,0.9001243543600539,0.0,0,False
2023-06-06,0.9001243543600539,0.9001243543600539,0.0,0,False
2023-06-07,0.9001243543600539,0.9001243543600539,0.0,0,False
2023-06-08,0.9001243543600539,0.9001243543600539,0.0,0,False
2023-06-09,0.9001243543600539,0.9001243543600539,0.0,0,False
2023-06-10,0.9001243543600539,0.9001243543600539,0.0,0,False
2023-06-11,0.9001243543600539,0.9001243543600539,0.0,0,False
2023-06-12,0.9001243543600539,0.9001243543600539,0.0,0,False
2023-06-13,0.9001243543600539,0.9001243543600539,0.0,0,False
2023-06-14,0.9001243543600539,0.9001243543600539,0.0,0,False
2023-06-15,0.9001243543600539,0.9001243543600539,0.0,0,False
2023-06-16,0.9001243543600539,0.9001243543600539,0.0,0,False
2023-06-17,0.9001243543600539,0.9001243543600539,0.0,0,False
2023-06-18,0.9001243543600539,0.9001243543600539,0.0,0,False
2023-06-19,0.9001243543600539,0.9001243543600539,0.0,0,False
2023-06-20,0.9001243543600539,0.9001243543600539,0.0,0,False
2023-06-21,0.9001243543600539,0.9001243543600539,0.0,0,False
2023-06-22,0.9001243543600539,0.9001243543600539,0.0,0,False
2023-06-23,0.9001243543600539,0.9001243543600539,0.0,0,False
2023-06-24,0.9001243543600539,0.9001243543600539,0.0,0,False
2023-06-25,0.9001243543600539,0.9001243543600539,0.0,0,False
2023-06-26,0.9001243543600539,0.9001243543600539,0.0,0,False
2023-06-27,0.9001243543600539,0.9001243543600539,0.0,0,False
2023-06-28,0.9001243543600539,0.9001243543600539,0.0,0,False
2023-06-29,0.9001243543600539,0.9001243543600539,0.0,0,False
2023-06-30,0.9001243543600539,0.9001243543600539,0.0,0,False
2023-07-01,0.9001243543600539,0.9001243543600539,0.0,0,False
2023-07-02,0.9001243543600539,0.9001243543600539,0.0,0,False
2023-07-03,0.9001243543600539,0.9001243543600539,0.0,0,False
2023-07-04,0.9001243543600539,0.9001243543600539,0.0,0,False
2023-07-05,0.9001243543600539,0.9001243543600539,0.0,0,False
2023-07-06,0.9001243543600539,0.9001243543600539,0.0,0,False
2023-07-07,0.9001243543600539,0.9001243543600539,0.0,0,False
2023-07-08,0.9001243543600539,0.9001243543600539,0.0,0,False
2023-07-09,0.9001243543600539,0.9001243543600539,0.0,0,False
2023-07-10,0.9001243543600539,0.9001243543600539,0.0,0,False
2023-07-11,0.9001243543600539,0.9001243543600539,0.0,0,False
2023-07-12,0.9001243543600539,0.9001243543600539,0.0,0,False
2023-07-13,0.9001243543600539,0.9001243543600539,0.0,0,False
2023-07-14,0.9001243543600539,0.9001243543600539,0.0,0,False
2023-07-15,0.9001243543600539,0.9001243543600539,0.0,0,False
2023-07-16,0.9001243543600539,0.9001243543600539,0.0,0,False
2023-07-17,0.9001243543600539,0.9001243543600539,0.0,0,False
2023-07-18,0.9001243543600539,0.9001243543600539,0.0,0,False
2023-07-19,0.9001243543600539,0.9001243543600539,0.0,0,False
2023-07-20,0.9001243543600539,0.9001243543600539,0.0,0,False
2023-07-21,0.9001243543600539,0.9001243543600539,0.0,0,False
2023-07-22,0.9001243543600539,0.9001243543600539,0.0,0,False
2023-07-23,0.9001243543600539,0.9001243543600539,0.0,0,False
2023-07-24,0.9001243543600539,0.9001243543600539,0.0,0,False
2023-07-25,0.9001243543600539,0.9001243543600539,0.0,0,False
2023-07-26,0.9001243543600539,0.9001243543600539,0.0,0,False
2023-07-27,0.9001243543600539,0.9001243543600539,0.0,0,False
2023-07-28,0.9001243543600539,0.9001243543600539,0.0,0,False
2023-07-29,0.9001243543600539,0.9001243543600539,0.0,0,False
2023-07-30,0.9001243543600539,0.9001243543600539,0.0,0,False
2023-07-31,0.9001243543600539,0.9001243543600539,0.0,0,False
2023-08-01,0.9001243543600539,0.9001243543600539,0.0,0,False
2023-08-02,0.9001243543600539,0.9001243543600539,0.0,0,False
2023-08-03,0.9001243543600539,0.9001243543600539,0.0,0,False
2023-08-04,0.9001243543600539,0.9001243543600539,0.0,0,False
2023-08-05,0.9001243543600539,0.9001243543600539,0.0,0,False
2023-08-06,0.9001243543600539,0.9001243543600539,0.0,0,False
2023-08-07,0.9001243543600539,0.9001243543600539,0.0,0,False
2023-08-08,0.9001243543600539,0.9001243543600539,0.0,0,False
2023-08-09,0.9001243543600539,0.9001243543600539,0.0,0,False
2023-08-10,0.9001243543600539,0.9001243543600539,0.0,0,False
2023-08-11,0.9001243543600539,0.9001243543600539,0.0,0,False
2023-08-12,0.9001243543600539,0.9001243543600539,0.0,0,False
2023-08-13,0.9001243543600539,0.9001243543600539,0.0,0,False
2023-08-14,0.9001243543600539,0.9001243543600539,0.0,0,False
2023-08-15,0.9001243543600539,0.9001243543600539,0.0,0,False
2023-08-16,0.9001243543600539,0.9001243543600539,0.0,0,False
2023-08-17,0.9001243543600539,0.9001243543600539,0.0,0,False
2023-08-18,0.9001243543600539,0.9001243543600539,0.0,0,False
2023-08-19,0.9001243543600539,0.9001243543600539,0.0,0,False
2023-08-20,0.9001243543600539,0.9001243543600539,0.0,0,False
2023-08-21,0.9001243543600539,0.9001243543600539,0.0,0,False
2023-08-22,0.9001243543600539,0.9001243543600539,0.0,0,False
2023-08-23,0.9001243543600539,0.9001243543600539,0.0,0,False
2023-08-24,0.9001243543600539,0.9001243543600539,0.0,0,False
2023-08-25,0.9001243543600539,0.9001243543600539,0.0,0,False
2023-08-26,0.9001243543600539,0.9001243543600539,0.0,0,False
2023-08-27,0.9001243543600539,0.9001243543600539,0.0,0,False
2023-08-28,0.9001243543600539,0.9001243543600539,0.0,0,False
2023-08-29,0.9001243543600539,0.9001243543600539,0.0,0,False
2023-08-30,0.9001243543600539,0.9001243543600539,0.0,0,False
2023-08-31,0.9001243543600539,0.9001243543600539,0.0,0,False
2023-09-01,0.9001243543600539,0.9001243543600539,0.0,0,False
2023-09-02,0.9001243543600539,0.9001243543600539,0.0,0,False
2023-09-03,0.9001243543600539,0.9001243543600539,0.0,0,False
2023-09-04,0.9001243543600539,0.9001243543600539,0.0,0,False
2023-09-05,0.9001243543600539,0.9001243543600539,0.0,0,False
2023-09-06,0.9001243543600539,0.9001243543600539,0.0,0,False
2023-09-07,0.9001243543600539,0.9001243543600539,0.0,0,False
2023-09-08,0.9001243543600539,0.9001243543600539,0.0,0,False
2023-09-09,0.9001243543600539,0.9001243543600539,0.0,0,False
2023-09-10,0.9001243543600539,0.9001243543600539,0.0,0,False
2023-09-11,0.9001243543600539,0.9001243543600539,0.0,0,False
2023-09-12,0.9001243543600539,0.9001243543600539,0.0,0,False
2023-09-13,0.9001243543600539,0.9001243543600539,0.0,0,False
2023-09-14,0.9001243543600539,0.9001243543600539,0.0,0,False
2023-09-15,0.9001243543600539,0.9001243543600539,0.0,0,False
2023-09-16,0.9001243543600539,0.9001243543600539,0.0,0,False
2023-09-17,0.9001243543600539,0.9001243543600539,0.0,0,False
2023-09-18,0.9001243543600539,0.9001243543600539,0.0,0,False
2023-09-19,0.9001243543600539,0.9001243543600539,0.0,0,False
2023-09-20,0.9001243543600539,0.9001243543600539,0.0,0,False
2023-09-21,0.9001243543600539,0.9001243543600539,0.0,0,False
2023-09-22,0.9001243543600539,0.9001243543600539,0.0,0,False
2023-09-23,0.9001243543600539,0.9001243543600539,0.0,0,False
2023-09-24,0.9001243543600539,0.9001243543600539,0.0,0,False
2023-09-25,0.9001243543600539,0.9001243543600539,0.0,0,False
2023-09-26,0.9001243543600539,0.9001243543600539,0.0,0,False
2023-09-27,0.9001243543600539,0.9001243543600539,0.0,0,False
2023-09-28,0.9001243543600539,0.9001243543600539,0.0,0,False
2023-09-29,0.9001243543600539,0.9001243543600539,0.0,0,False
2023-09-30,0.9001243543600539,0.9001243543600539,0.0,0,False
2023-10-01,0.9001243543600539,0.9001243543600539,0.0,0,False
2023-10-02,0.9001243543600539,0.9001243543600539,0.0,0,False
2023-10-03,0.9001243543600539,0.9001243543600539,0.0,0,False
2023-10-04,0.9001243543600539,0.9001243543600539,0.0,0,False
2023-10-05,0.9001243543600539,0.9001243543600539,0.0,0,False
2023-10-06,0.9001243543600539,0.9001243543600539,0.0,0,False
2023-10-07,0.9001243543600539,0.9001243543600539,0.0,0,False
2023-10-08,0.9001243543600539,0.9001243543600539,0.0,0,False
2023-10-09,0.9001243543600539,0.9001243543600539,0.0,0,False
2023-10-10,0.9001243543600539,0.9001243543600539,0.0,0,False
2023-10-11,0.9001243543600539,0.9001243543600539,0.0,0,False
2023-10-12,0.9001243543600539,0.9001243543600539,0.0,0,False
2023-10-13,0.9001243543600539,0.9001243543600539,0.0,0,False
2023-10-14,0.9001243543600539,0.9001243543600539,0.0,0,False
2023-10-15,0.9001243543600539,0.9001243543600539,0.0,0,False
2023-10-16,0.9001243543600539,0.9001243543600539,0.0,0,False
2023-10-17,0.9001243543600539,0.9001243543600539,0.0,0,False
2023-10-18,0.9001243543600539,0.9001243543600539,0.0,0,False
2023-10-19,0.9001243543600539,0.9001243543600539,0.0,0,False
2023-10-20,0.9001243543600539,0.9001243543600539,0.0,0,False
2023-10-21,0.9001243543600539,0.9001243543600539,0.0,0,False
2023-10-22,0.9001243543600539,0.9001243543600539,0.0,0,False
2023-10-23,0.9001243543600539,0.9001243543600539,0.0,0,False
2023-10-24,0.9001243543600539,0.9001243543600539,0.0,0,False
2023-10-25,0.9001243543600539,0.9001243543600539,0.0,0,False
2023-10-26,0.9001243543600539,0.9001243543600539,0.0,0,False
2023-10-27,0.9001243543600539,0.9001243543600539,0.0,0,False
2023-10-28,0.9001243543600539,0.9001243543600539,0.0,0,False
2023-10-29,0.9001243543600539,0.9001243543600539,0.0,0,False
2023-10-30,0.9001243543600539,0.9001243543600539,0.0,0,False
2023-10-31,0.9001243543600539,0.9001243543600539,0.0,0,False
2023-11-01,0.9001243543600539,0.9001243543600539,0.0,0,False
2023-11-02,0.9001243543600539,0.9001243543600539,0.0,0,False
2023-11-03,0.9001243543600539,0.9001243543600539,0.0,0,False
2023-11-04,0.9001243543600539,0.9001243543600539,0.0,0,False
2023-11-05,0.9001243543600539,0.9001243543600539,0.0,0,False
2023-11-06,0.9001243543600539,0.9001243543600539,0.0,0,False
2023-11-07,0.9001243543600539,0.9001243543600539,0.0,0,False
2023-11-08,0.9001243543600539,0.9001243543600539,0.0,0,False
2023-11-09,0.9001243543600539,0.9001243543600539,0.0,0,False
2023-11-10,0.9001243543600539,0.9001243543600539,0.0,0,False
2023-11-11,0.9001243543600539,0.9001243543600539,0.0,0,False
2023-11-12,0.9001243543600539,0.9001243543600539,0.0,0,False
2023-11-13,0.9001243543600539,0.9001243543600539,0.0,0,False
2023-11-14,0.9001243543600539,0.9001243543600539,0.0,0,False
2023-11-15,0.9001243543600539,0.9001243543600539,0.0,0,False
2023-11-16,0.9001243543600539,0.9001243543600539,0.0,0,False
2023-11-17,0.9001243543600539,0.9001243543600539,0.0,0,False
2023-11-18,0.9001243543600539,0.9001243543600539,0.0,0,False
2023-11-19,0.9001243543600539,0.9001243543600539,0.0,0,False
2023-11-20,0.9001243543600539,0.9001243543600539,0.0,0,False
2023-11-21,0.9001243543600539,0.9001243543600539,0.0,0,False
2023-11-22,0.9001243543600539,0.9001243543600539,0.0,0,False
2023-11-23,0.9001243543600539,0.9001243543600539,0.0,0,False
2023-11-24,0.9001243543600539,0.9001243543600539,0.0,0,False
2023-11-25,0.9001243543600539,0.9001243543600539,0.0,0,False
2023-11-26,0.9001243543600539,0.9001243543600539,0.0,0,False
2023-11-27,0.9001243543600539,0.9001243543600539,0.0,0,False
2023-11-28,0.9001243543600539,0.9001243543600539,0.0,0,False
2023-11-29,0.9001243543600539,0.9001243543600539,0.0,0,False
2023-11-30,0.9001243543600539,0.9001243543600539,0.0,0,False
2023-12-01,0.9001243543600539,0.9001243543600539,0.0,0,False
2023-12-02,0.9001243543600539,0.9001243543600539,0.0,0,False
2023-12-03,0.9001243543600539,0.9001243543600539,0.0,0,False
2023-12-04,0.9001243543600539,0.9001243543600539,0.0,0,False
2023-12-05,0.9001243543600539,0.9001243543600539,0.0,0,False
2023-12-06,0.9001243543600539,0.9001243543600539,0.0,0,False
2023-12-07,0.9001243543600539,0.9001243543600539,0.0,0,False
2023-12-08,0.9001243543600539,0.9001243543600539,0.0,0,False
2023-12-09,0.9001243543600539,0.9001243543600539,0.0,0,False
2023-12-10,0.9001243543600539,0.9001243543600539,0.0,0,False
2023-12-11,0.9001243543600539,0.9001243543600539,0.0,0,False
2023-12-12,0.9001243543600539,0.9001243543600539,0.0,0,False
2023-12-13,0.9001243543600539,0.9001243543600539,0.0,0,False
2023-12-14,0.9001243543600539,0.9001243543600539,0.0,0,False
2023-12-15,0.9001243543600539,0.9001243543600539,0.0,0,False
2023-12-16,0.9001243543600539,0.9001243543600539,0.0,0,False
2023-12-17,0.9001243543600539,0.9001243543600539,0.0,0,False
2023-12-18,0.9001243543600539,0.9001243543600539,0.0,0,False
2023-12-19,0.9001243543600539,0.9001243543600539,0.0,0,False
2023-12-20,0.9001243543600539,0.9001243543600539,0.0,0,False
2023-12-21,0.9001243543600539,0.9001243543600539,0.0,0,False
2023-12-22,0.9001243543600539,0.9001243543600539,0.0,0,False
2023-12-23,0.9001243543600539,0.9001243543600539,0.0,0,False
2023-12-24,0.9001243543600539,0.9001243543600539,0.0,0,False
2023-12-25,0.9001243543600539,0.9001243543600539,0.0,0,False
2023-12-26,0.9001243543600539,0.9001243543600539,0.0,0,False
2023-12-27,0.9001243543600539,0.9001243543600539,0.0,0,False
2023-12-28,0.9001243543600539,0.9001243543600539,0.0,0,False
2023-12-29,0.9001243543600539,0.9001243543600539,0.0,0,False
2023-12-30,0.9001243543600539,0.9001243543600539,0.0,0,False
2023-12-31,0.9001243543600539,0.9001243543600539,0.0,0,False
