day,start_equity,end_equity,return_pct,entries,active
2021-09-02,1.0,1.0,0.0,0,False
2021-09-03,1.0,1.0,0.0,0,False
2021-09-04,1.0,1.0,0.0,0,False
2021-09-05,1.0,1.0,0.0,0,False
2021-09-06,1.0,1.0,0.0,0,False
2021-09-07,1.0,1.0,0.0,0,False
2021-09-08,1.0,1.0,0.0,0,False
2021-09-09,1.0,1.0,0.0,0,False
2021-09-10,1.0,1.0,0.0,0,False
2021-09-11,1.0,1.0,0.0,0,False
2021-09-12,1.0,1.0,0.0,0,False
2021-09-13,1.0,1.0,0.0,0,False
2021-09-14,1.0,1.0,0.0,0,False
2021-09-15,1.0,1.0,0.0,0,False
2021-09-16,1.0,1.0,0.0,0,False
2021-09-17,1.0,1.0,0.0,0,False
2021-09-18,1.0,1.0,0.0,0,False
2021-09-19,1.0,1.0,0.0,0,False
2021-09-20,1.0,1.0,0.0,0,False
2021-09-21,1.0,1.0,0.0,0,False
2021-09-22,1.0,1.0,0.0,0,False
2021-09-23,1.0,1.0,0.0,0,False
2021-09-24,1.0,1.0,0.0,0,False
2021-09-25,1.0,1.0,0.0,0,False
2021-09-26,1.0,1.0,0.0,0,False
2021-09-27,1.0,1.0,0.0,0,False
2021-09-28,1.0,1.0,0.0,0,False
2021-09-29,1.0,1.0,0.0,0,False
2021-09-30,1.0,1.0,0.0,0,False
2021-10-01,1.0,1.0,0.0,0,False
2021-10-02,1.0,1.0,0.0,0,False
2021-10-03,1.0,1.0,0.0,0,False
2021-10-04,1.0,1.0,0.0,0,False
2021-10-05,1.0,0.9993073753491394,-0.06926246508606182,1,True
2021-10-06,0.9993073753491394,1.0069062731990348,0.7604164681803249,5,True
2021-10-07,1.0069062731990348,0.9849875693349561,-2.176836558425732,2,True
2021-10-08,0.9849875693349561,0.9843194779162696,-0.0678273959475062,1,True
2021-10-09,0.9843194779162696,0.986571098559587,0.2287489675693477,3,True
2021-10-10,0.986571098559587,0.9741337642805457,-1.2606627436380524,1,True
2021-10-11,0.9741337642805457,0.9715947883225147,-0.2606393547919139,0,True
2021-10-12,0.9715947883225147,0.9715947883225147,0.0,0,False
2021-10-13,0.9715947883225147,0.9970556945202883,2.6205272510500643,4,True
2021-10-14,0.9970556945202883,1.0227460379848787,2.5766207049196854,1,True
2021-10-15,1.0227460379848787,1.0185177487606125,-0.41342513852189455,6,True
2021-10-16,1.0185177487606125,1.057488533273663,3.8262253711800476,3,True
2021-10-17,1.057488533273663,1.0601189329602443,0.2487402561650809,0,True
2021-10-18,1.0601189329602443,1.049532317768683,-0.9986252355666858,2,True
2021-10-19,1.049532317768683,1.049532317768683,0.0,0,False
2021-10-20,1.049532317768683,1.049532317768683,0.0,0,False
2021-10-21,1.049532317768683,1.049532317768683,0.0,0,False
2021-10-22,1.049532317768683,1.049532317768683,0.0,0,False
2021-10-23,1.049532317768683,1.049532317768683,0.0,0,False
2021-10-24,1.049532317768683,1.0540124995175915,0.4268741107880558,1,True
2021-10-25,1.0540124995175915,1.0461472731302404,-0.7462175629749046,2,True
2021-10-26,1.0461472731302404,1.0461472731302404,0.0,0,False
2021-10-27,1.0461472731302404,1.0436242556033435,-0.24117230830680292,7,True
2021-10-28,1.0436242556033435,1.0377142981057976,-0.5662916960596287,6,True
2021-10-29,1.0377142981057976,1.035990893627787,-0.16607697139341404,2,True
2021-10-30,1.035990893627787,1.0948690109946975,5.683265917592539,3,True
2021-10-31,1.0948690109946975,1.1455175802617081,4.625993498619163,12,True
2021-11-01,1.1455175802617081,1.101876265886422,-3.8097463650724306,7,True
2021-11-02,1.101876265886422,1.1246944467835303,2.07084784413174,3,True
2021-11-03,1.1246944467835303,1.1153430327360214,-0.8314626318510432,2,True
2021-11-04,1.1153430327360214,1.135706094236657,1.82572185444001,5,True
2021-11-05,1.135706094236657,1.1157906932362882,-1.7535699686241912,5,True
2021-11-06,1.1157906932362882,1.1092579036520036,-0.5854852190366078,3,True
2021-11-07,1.1092579036520036,1.105331310622781,-0.353983777469169,0,True
2021-11-08,1.105331310622781,1.105331310622781,0.0,0,False
2021-11-09,1.105331310622781,1.1125398171986487,0.6521580006456418,1,True
2021-11-10,1.1125398171986487,1.1378438910371285,2.2744420871330995,0,True
2021-11-11,1.1378438910371285,1.1279397350683005,-0.8704318797019273,15,True
2021-11-12,1.1279397350683005,1.0973640413250172,-2.7107559732729714,6,True
2021-11-13,1.0973640413250172,1.0951681189150109,-0.20010883602080698,1,True
2021-11-14,1.0951681189150109,1.0938034083883217,-0.1246119662469014,2,True
2021-11-15,1.0938034083883217,1.0917191786776392,-0.1905488403764921,0,True
2021-11-16,1.0917191786776392,1.1116732582035092,1.8277666927166702,9,True
2021-11-17,1.1116732582035092,1.082293816099773,-2.6428127048062633,1,True
2021-11-18,1.082293816099773,1.0701641564948172,-1.12073629401922,4,True
2021-11-19,1.0701641564948172,1.0823321713533334,1.1370232113146805,7,True
2021-11-20,1.0823321713533334,1.0919995995395064,0.8932034399462552,0,True
2021-11-21,1.0919995995395064,1.081243216814057,-0.9850170943272563,3,True
2021-11-22,1.081243216814057,1.0725691139658562,-0.8022341979411096,9,True
2021-11-23,1.0725691139658562,1.0689194306359495,-0.3402748860082183,0,True
2021-11-24,1.0689194306359495,1.053609097803305,-1.4323186943599353,4,True
2021-11-25,1.053609097803305,1.0699943790060358,1.5551575282420016,7,True
2021-11-26,1.0699943790060358,1.0286290442923935,-3.8659394409219505,13,True
2021-11-27,1.0286290442923935,1.0445203454832321,1.5449010777029315,6,True
2021-11-28,1.0445203454832321,0.9995091510356633,-4.30926928730575,9,True
2021-11-29,0.9995091510356633,0.9843765101740765,-1.514007235042003,2,True
2021-11-30,0.9843765101740765,0.9737160893708589,-1.0829617217635978,3,True
2021-12-01,0.9737160893708589,0.965483979425407,-0.8454322605237818,1,True
2021-12-02,0.965483979425407,0.9573333746718874,-0.8441988605932482,8,True
2021-12-03,0.9573333746718874,0.9337193258256663,-2.4666484498479413,3,True
2021-12-04,0.9337193258256663,0.8707165496364024,-6.747506927047054,25,True
2021-12-05,0.8707165496364024,0.8545729731864176,-1.8540564615116328,4,True
2021-12-06,0.8545729731864176,0.835246593244343,-2.261524825669703,15,True
2021-12-07,0.835246593244343,0.8661677722748294,3.7020419215814337,1,True
2021-12-08,0.8661677722748294,0.8588092716891295,-0.8495467992735706,4,True
2021-12-09,0.8588092716891295,0.8409271563711348,-2.0821986799028913,4,True
2021-12-10,0.8409271563711348,0.8252148990278502,-1.8684445167745478,4,True
2021-12-11,0.8252148990278502,0.8177379414913276,-0.9060618688938926,2,True
2021-12-12,0.8177379414913276,0.8177379414913276,0.0,0,False
2021-12-13,0.8177379414913276,0.809586615277187,-0.9968139914450891,2,True
2021-12-14,0.809586615277187,0.8055525372374243,-0.4982886282502985,1,True
2021-12-15,0.8055525372374243,0.8039705985732585,-0.1963793286023141,1,True
2021-12-16,0.8039705985732585,0.8048758164342977,0.1125934036201981,1,True
2021-12-17,0.8048758164342977,0.7986153644513312,-0.7778158885057729,5,True
2021-12-18,0.7986153644513312,0.8001892266487933,0.19707386903875523,2,True
2021-12-19,0.8001892266487933,0.7958284508943833,-0.5449680662001799,1,True
2021-12-20,0.7958284508943833,0.7958284508943833,0.0,0,False
2021-12-21,0.7958284508943833,0.7918667904111055,-0.497803324174384,1,True
2021-12-22,0.7918667904111055,0.7861802204881897,-0.7181220366576535,2,True
2021-12-23,0.7861802204881897,0.7864109980230415,0.029354278934734523,0,True
2021-12-24,0.7864109980230415,0.7864109980230415,0.0,0,False
2021-12-25,0.7864109980230415,0.7891133505263931,0.34363106697961054,1,True
2021-12-26,0.7891133505263931,0.7885953247832408,-0.06564655670908692,0,True
2021-12-27,0.7885953247832408,0.7885953247832408,0.0,0,False
2021-12-28,0.7885953247832408,0.7846665299898403,-0.4982016339597717,1,True
2021-12-29,0.7846665299898403,0.7846665299898403,0.0,0,False
2021-12-30,0.7846665299898403,0.7846665299898403,0.0,0,False
2021-12-31,0.7846665299898403,0.7846665299898403,0.0,0,False
2022-01-01,0.7846665299898403,0.7846665299898403,0.0,0,False
2022-01-02,0.7846665299898403,0.7846665299898403,0.0,0,False
2022-01-03,0.7846665299898403,0.7846665299898403,0.0,0,False
2022-01-04,0.7846665299898403,0.7846665299898403,0.0,0,False
2022-01-05,0.7846665299898403,0.7868662067311099,0.2803326836558151,1,True
2022-01-06,0.7868662067311099,0.7440215957772005,-5.444967719721927,15,True
2022-01-07,0.7440215957772005,0.7447320361807049,0.09548652989868067,5,True
2022-01-08,0.7447320361807049,0.7531122559871768,1.1252664581812732,0,True
2022-01-09,0.7531122559871768,0.7541006369137913,0.13123952223017543,1,True
2022-01-10,0.7541006369137913,0.7562909569351969,0.29045460435754844,0,True
2022-01-11,0.7562909569351969,0.7562909569351969,0.0,0,False
2022-01-12,0.7562909569351969,0.7562909569351969,0.0,0,False
2022-01-13,0.7562909569351969,0.7562909569351969,0.0,0,False
2022-01-14,0.7562909569351969,0.7562909569351969,0.0,0,False
2022-01-15,0.7562909569351969,0.7569928396380644,0.09280590974032332,1,True
2022-01-16,0.7569928396380644,0.7554790402091339,-0.19997539602280012,0,True
2022-01-17,0.7554790402091339,0.758728425878489,0.4301093076593654,1,True
2022-01-18,0.758728425878489,0.7678002410460596,1.1956603783582764,0,True
2022-01-19,0.7678002410460596,0.7639757225539932,-0.49811373943512427,1,True
2022-01-20,0.7639757225539932,0.7639757225539932,0.0,0,False
2022-01-21,0.7639757225539932,0.730323544141175,-4.404875367023175,9,True
2022-01-22,0.730323544141175,0.6846358649000833,-6.2558135510773045,27,True
2022-01-23,0.6846358649000833,0.7033445695716343,2.7326503957372017,0,True
2022-01-24,0.7033445695716343,0.6953996687672792,-1.1295887034705965,6,True
2022-01-25,0.6953996687672792,0.7213981694397592,3.7386415093592085,0,True
2022-01-26,0.7213981694397592,0.7225809363612979,0.16395479939423918,1,True
2022-01-27,0.7225809363612979,0.7168365567437418,-0.794980787409516,10,True
2022-01-28,0.7168365567437418,0.7069565383775908,-1.3782804843312402,0,True
2022-01-29,0.7069565383775908,0.7069565383775908,0.0,0,False
2022-01-30,0.7069565383775908,0.7166977098863746,1.3779024565129694,1,True
2022-01-31,0.7166977098863746,0.7136503729679553,-0.425191384928858,2,True
2022-02-01,0.7136503729679553,0.71009183735625,-0.49863851354913225,1,True
2022-02-02,0.71009183735625,0.7094483842558466,-0.09061547627404742,1,True
2022-02-03,0.7094483842558466,0.7121252580143158,0.37731761998121005,4,True
2022-02-04,0.7121252580143158,0.7235897346390628,1.6098960815846386,0,True
2022-02-05,0.7235897346390628,0.7235897346390628,0.0,0,False
2022-02-06,0.7235897346390628,0.7235897346390628,0.0,0,False
2022-02-07,0.7235897346390628,0.7235897346390628,0.0,0,False
2022-02-08,0.7235897346390628,0.7164773869084888,-0.9829254603952786,3,True
2022-02-09,0.7164773869084888,0.7260284135356483,1.3330534643069436,2,True
2022-02-10,0.7260284135356483,0.7294398246112721,0.46987294326550355,5,True
2022-02-11,0.7294398246112721,0.7076170107743808,-2.9917222916257646,0,True
2022-02-12,0.7076170107743808,0.6901030971653502,-2.4750554809110925,5,True
2022-02-13,0.6901030971653502,0.6901030971653502,0.0,0,False
2022-02-14,0.6901030971653502,0.6901030971653502,0.0,0,False
2022-02-15,0.6901030971653502,0.6901030971653502,0.0,0,False
2022-02-16,0.6901030971653502,0.6901030971653502,0.0,0,False
2022-02-17,0.6901030971653502,0.6901030971653502,0.0,0,False
2022-02-18,0.6901030971653502,0.6901030971653502,0.0,0,False
2022-02-19,0.6901030971653502,0.6901030971653502,0.0,0,False
2022-02-20,0.6901030971653502,0.6901030971653502,0.0,0,False
2022-02-21,0.6901030971653502,0.6901030971653502,0.0,0,False
2022-02-22,0.6901030971653502,0.6832500816571729,-0.9930422767738034,2,True
2022-02-23,0.6832500816571729,0.6832500816571729,0.0,0,False
2022-02-24,0.6832500816571729,0.6713436354703551,-1.742619065326645,11,True
2022-02-25,0.6713436354703551,0.7058315407071705,5.1371463755149005,0,True
2022-02-26,0.7058315407071705,0.7058315407071705,0.0,0,False
2022-02-27,0.7058315407071705,0.7058315407071705,0.0,0,False
2022-02-28,0.7058315407071705,0.6988027465541099,-0.9958175212768872,2,True
2022-03-01,0.6988027465541099,0.6988027465541099,0.0,0,False
2022-03-02,0.6988027465541099,0.6988027465541099,0.0,0,False
2022-03-03,0.6988027465541099,0.6988027465541099,0.0,0,False
2022-03-04,0.6988027465541099,0.7094454454857826,1.5229904267195948,3,True
2022-03-05,0.7094454454857826,0.7012113286240198,-1.1606413028875773,2,True
2022-03-06,0.7012113286240198,0.6974371236467519,-0.5382407304619474,4,True
2022-03-07,0.6974371236467519,0.686890940469983,-1.5121338998453582,0,True
2022-03-08,0.686890940469983,0.6834749162343058,-0.49731682781256614,1,True
2022-03-09,0.6834749162343058,0.6968869005451733,1.9623228288702332,2,True
2022-03-10,0.6968869005451733,0.6904951371719572,-0.917188049913964,4,True
2022-03-11,0.6904951371719572,0.680985233870172,-1.3772585482259458,2,True
2022-03-12,0.680985233870172,0.6784522597299085,-0.3719572781142433,0,True
2022-03-13,0.6784522597299085,0.6784522597299085,0.0,0,False
2022-03-14,0.6784522597299085,0.675073071224405,-0.4980731447263187,1,True
2022-03-15,0.675073071224405,0.6764481470261353,0.20369288308839106,1,True
2022-03-16,0.6764481470261353,0.6810805371345233,0.6848108208668213,1,True
2022-03-17,0.6810805371345233,0.6829876792800247,0.2800171259518258,1,True
2022-03-18,0.6829876792800247,0.6813415853259476,-0.24101371137651428,0,True
2022-03-19,0.6813415853259476,0.6813415853259476,0.0,0,False
2022-03-20,0.6813415853259476,0.670146099223796,-1.6431532058616027,4,True
2022-03-21,0.670146099223796,0.6732858959221302,0.4685242071797324,3,True
2022-03-22,0.6732858959221302,0.6680591079911292,-0.7763103256221315,0,True
2022-03-23,0.6680591079911292,0.6674015018216547,-0.09843532729491011,2,True
2022-03-24,0.6674015018216547,0.6613832382794222,-0.9017455798055241,0,True
2022-03-25,0.6613832382794222,0.6613832382794222,0.0,0,False
2022-03-26,0.6613832382794222,0.6632123685132326,0.2765613229885888,1,True
2022-03-27,0.6632123685132326,0.6802575410504977,2.5700926801887736,2,True
2022-03-28,0.6802575410504977,0.6805382907758059,0.04127109342655366,2,True
2022-03-29,0.6805382907758059,0.6856080396343093,0.7449615880869676,1,True
2022-03-30,0.6856080396343093,0.6873195537729497,0.24963449080226408,6,True
2022-03-31,0.6873195537729497,0.6889363862289034,0.23523737206052608,7,True
2022-04-01,0.6889363862289034,0.6711000596231333,-2.5889656813457673,9,True
2022-04-02,0.6711000596231333,0.6723833654742782,0.1912242195099223,0,True
2022-04-03,0.6723833654742782,0.6651205990644894,-1.0801526008404339,3,True
2022-04-04,0.6651205990644894,0.6562553141723919,-1.3328838265671994,3,True
2022-04-05,0.6562553141723919,0.6491022637374667,-1.0899798112790848,7,True
2022-04-06,0.6491022637374667,0.6223340886888552,-4.1238763973003305,13,True
2022-04-07,0.6223340886888552,0.6169879463001431,-0.8590470112243787,3,True
2022-04-08,0.6169879463001431,0.620205311435257,0.5214632075727366,0,True
2022-04-09,0.620205311435257,0.6198388540360802,-0.059086465791269305,1,True
2022-04-10,0.6198388540360802,0.6171057570775639,-0.4409366951942051,0,True
2022-04-11,0.6171057570775639,0.6076240537576696,-1.5364794787844693,7,True
2022-04-12,0.6076240537576696,0.5980643971514927,-1.5732847551142903,1,True
2022-04-13,0.5980643971514927,0.5934154441763256,-0.7773331763785807,1,True
2022-04-14,0.5934154441763256,0.5927610655790586,-0.11027326701537055,0,True
2022-04-15,0.5927610655790586,0.5942531268810822,0.2517137829499694,1,True
2022-04-16,0.5942531268810822,0.5938993208101274,-0.05953794013869862,0,True
2022-04-17,0.5938993208101274,0.5990184991803318,0.8619606372375355,1,True
2022-04-18,0.5990184991803318,0.618089538231095,3.1837145391768518,6,True
2022-04-19,0.618089538231095,0.6324026435879154,2.315700957790501,2,True
2022-04-20,0.6324026435879154,0.6391860732249404,1.0726440987879782,1,True
2022-04-21,0.6391860732249404,0.6366578877308142,-0.39553200547228773,5,True
2022-04-22,0.6366578877308142,0.6293744082792166,-1.1440177828562659,2,True
2022-04-23,0.6293744082792166,0.62240199848337,-1.1078317936234594,2,True
2022-04-24,0.62240199848337,0.62240199848337,0.0,0,False
2022-04-25,0.62240199848337,0.6131186966564872,-1.491528280677712,3,True
2022-04-26,0.6131186966564872,0.6081319794786699,-0.8133363417249018,2,True
2022-04-27,0.6081319794786699,0.6039909638974376,-0.6809402762838257,1,True
2022-04-28,0.6039909638974376,0.6061394083654402,0.35570804803752853,1,True
2022-04-29,0.6061394083654402,0.5921879164956844,-2.3016968831276685,4,True
2022-04-30,0.5921879164956844,0.5849416767162424,-1.223638574444763,5,True
2022-05-01,0.5849416767162424,0.5857851512428519,0.14419805600869307,8,True
2022-05-02,0.5857851512428519,0.5862709430381285,0.08293002891006651,1,True
2022-05-03,0.5862709430381285,0.5922587670247061,1.0213407397521523,3,True
2022-05-04,0.5922587670247061,0.5863110952183502,-1.004235333861725,2,True
2022-05-05,0.5863110952183502,0.5863110952183502,0.0,0,False
2022-05-06,0.5863110952183502,0.5562230794311338,-5.13174934477596,13,True
2022-05-07,0.5562230794311338,0.5521262677065154,-0.7365411246164633,2,True
2022-05-08,0.5521262677065154,0.5474384630811675,-0.8490457526718731,3,True
2022-05-09,0.5474384630811675,0.5369126826631292,-1.9227330792205732,5,True
2022-05-10,0.5369126826631292,0.5262318601200625,-1.9893034543510768,18,True
2022-05-11,0.5262318601200625,0.49781748204032783,-5.399592885396909,28,True
2022-05-12,0.49781748204032783,0.4647823100665441,-6.636000776507,19,True
2022-05-13,0.4647823100665441,0.480879920178609,3.463473063284228,6,True
2022-05-14,0.480879920178609,0.4593821146085799,-4.470514294305394,14,True
2022-05-15,0.4593821146085799,0.4888576132829858,6.416335712051113,3,True
2022-05-16,0.4888576132829858,0.489819197216038,0.1967002061386669,8,True
2022-05-17,0.489819197216038,0.5024245928075569,2.5734792885137248,4,True
2022-05-18,0.5024245928075569,0.4880637018662996,-2.858317675296984,2,True
2022-05-19,0.4880637018662996,0.49561147650171866,1.5464732588301944,8,True
2022-05-20,0.49561147650171866,0.5058190280422779,2.0595874035462813,2,True
2022-05-21,0.5058190280422779,0.5065351210301701,0.14157098649763,0,True
2022-05-22,0.5065351210301701,0.5052837448416423,-0.24704628298680698,1,True
2022-05-23,0.5052837448416423,0.5047199450590429,-0.11158082727874552,4,True
2022-05-24,0.5047199450590429,0.47131012147670975,-6.619477575514643,14,True
2022-05-25,0.47131012147670975,0.47057859734496027,-0.15521078339193473,1,True
2022-05-26,0.47057859734496027,0.4643205461645394,-1.3298631122896976,13,True
2022-05-27,0.4643205461645394,0.4490293909535348,-3.293232517345024,5,True
2022-05-28,0.4490293909535348,0.4509353377317869,0.42445924847029914,1,True
2022-05-29,0.4509353377317869,0.46136964473413067,2.3139253301434515,3,True
2022-05-30,0.46136964473413067,0.4702401682496797,1.922650008901372,0,True
2022-05-31,0.4702401682496797,0.4587846753583154,-2.4360940780545626,10,True
2022-06-01,0.4587846753583154,0.4516291672314074,-1.559665898020568,5,True
2022-06-02,0.4516291672314074,0.4452959719688794,-1.4022998783165375,11,True
2022-06-03,0.4452959719688794,0.44721601445876336,0.43118343994770214,0,True
2022-06-04,0.44721601445876336,0.44721601445876336,0.0,0,False
2022-06-05,0.44721601445876336,0.44721601445876336,0.0,0,False
2022-06-06,0.44721601445876336,0.4490565354546641,0.41155078002477197,1,True
2022-06-07,0.4490565354546641,0.4436795145255002,-1.1974040025316102,4,True
2022-06-08,0.4436795145255002,0.45058368333468296,1.5561162017062147,6,True
2022-06-09,0.45058368333468296,0.44912279759062257,-0.3242207381431661,5,True
2022-06-10,0.44912279759062257,0.44146447766415897,-1.7051728319176007,8,True
2022-06-11,0.44146447766415897,0.4381996788669604,-0.7395382782490301,6,True
2022-06-12,0.4381996788669604,0.4330810241677897,-1.1681100982104398,16,True
2022-06-13,0.4330810241677897,0.39784856455511547,-8.135304399535181,15,True
2022-06-14,0.39784856455511547,0.41131975400245196,3.3860093129656876,6,True
2022-06-15,0.41131975400245196,0.40580646407642584,-1.3403902614395835,8,True
2022-06-16,0.40580646407642584,0.4084661192394532,0.6553999008075184,7,True
2022-06-17,0.4084661192394532,0.4060549974676929,-0.5902868458832478,2,True
2022-06-18,0.4060549974676929,0.4006334051778679,-1.3351866923535072,9,True
2022-06-19,0.4006334051778679,0.3996503766904444,-0.2453685775371306,3,True
2022-06-20,0.3996503766904444,0.4051534743342512,1.376977969939297,2,True
2022-06-21,0.4051534743342512,0.4085575926741522,0.840204652198695,0,True
2022-06-22,0.4085575926741522,0.40879562255937774,0.058261035774065384,8,True
2022-06-23,0.40879562255937774,0.40252002117425,-1.535143978753395,1,True
2022-06-24,0.40252002117425,0.39852233693705125,-0.993164073065611,2,True
2022-06-25,0.39852233693705125,0.39747561350349314,-0.2626511330840242,4,True
2022-06-26,0.39747561350349314,0.4011349344603573,0.9206403695083631,0,True
2022-06-27,0.4011349344603573,0.39943758334017754,-0.42313719757747226,5,True
2022-06-28,0.39943758334017754,0.39830701808467284,-0.283039278890751,4,True
2022-06-29,0.39830701808467284,0.40005296461427653,0.43834189465186135,5,True
2022-06-30,0.40005296461427653,0.3937560921304921,-1.5740097039040113,4,True
2022-07-01,0.3937560921304921,0.4033861952272132,2.445702628908064,1,True
2022-07-02,0.4033861952272132,0.4023568485506531,-0.25517647572949054,2,True
2022-07-03,0.4023568485506531,0.40019402512598357,-0.537538613412536,3,True
2022-07-04,0.40019402512598357,0.40304317288441993,0.7119416032109527,0,True
2022-07-05,0.40304317288441993,0.40336792161124874,0.08057417881679463,1,True
2022-07-06,0.40336792161124874,0.40431869911559287,0.23570974621538454,0,True
2022-07-07,0.40431869911559287,0.40431869911559287,0.0,0,False
2022-07-08,0.40431869911559287,0.40431869911559287,0.0,0,False
2022-07-09,0.40431869911559287,0.40431869911559287,0.0,0,False
2022-07-10,0.40431869911559287,0.40431869911559287,0.0,0,False
2022-07-11,0.40431869911559287,0.40230674968845254,-0.49761473598457506,1,True
2022-07-12,0.40230674968845254,0.40535112343223795,0.7567294722603979,2,True
2022-07-13,0.40535112343223795,0.4111352578047307,1.4269442066711546,5,True
2022-07-14,0.4111352578047307,0.4215682071420982,2.5375953872393664,0,True
2022-07-15,0.4215682071420982,0.4215682071420982,0.0,0,False
2022-07-16,0.4215682071420982,0.4215682071420982,0.0,0,False
2022-07-17,0.4215682071420982,0.4215682071420982,0.0,0,False
2022-07-18,0.4215682071420982,0.42259711935320565,0.24406779108954169,1,True
2022-07-19,0.42259711935320565,0.4244359230856168,0.4351197980775323,4,True
2022-07-20,0.4244359230856168,0.41950040349343515,-1.1628420978838871,2,True
2022-07-21,0.41950040349343515,0.40815201973863713,-2.705214026087488,8,True
2022-07-22,0.40815201973863713,0.4105052493533935,0.5765571407102765,0,True
2022-07-23,0.4105052493533935,0.4126567753693762,0.5241165659566338,3,True
2022-07-24,0.4126567753693762,0.41318630699501235,0.1283225327300519,3,True
2022-07-25,0.41318630699501235,0.41367013026647326,0.11709566925863779,1,True
2022-07-26,0.41367013026647326,0.41325899730040916,-0.09938666971174293,1,True
2022-07-27,0.41325899730040916,0.41088962364888854,-0.5733386730835677,1,True
2022-07-28,0.41088962364888854,0.4095499115417521,-0.32605157931202555,0,True
2022-07-29,0.4095499115417521,0.4098188822691607,0.06567471261220703,5,True
2022-07-30,0.4098188822691607,0.4118129380280814,0.4865700057253619,2,True
2022-07-31,0.4118129380280814,0.4075751568350254,-1.029054894037118,6,True
2022-08-01,0.4075751568350254,0.40311224732297346,-1.0949905648587777,2,True
2022-08-02,0.40311224732297346,0.39655795975630304,-1.6259212192625716,6,True
2022-08-03,0.39655795975630304,0.39650075203082474,-0.014426069145967446,2,True
2022-08-04,0.39650075203082474,0.39454199691314984,-0.4940104420085967,0,True
2022-08-05,0.39454199691314984,0.3991751383702773,1.1743088171542126,2,True
2022-08-06,0.3991751383702773,0.39858407804722373,-0.14807042479315635,0,True
2022-08-07,0.39858407804722373,0.39944321948027656,0.21554835739099332,2,True
2022-08-08,0.39944321948027656,0.39996465045595914,0.13053944847556398,0,True
2022-08-09,0.39996465045595914,0.3968259004849708,-0.7847568447386988,7,True
2022-08-10,0.3968259004849708,0.406912880176314,2.5419156559628897,2,True
2022-08-11,0.406912880176314,0.4071680288206659,0.0627035065199566,3,True
2022-08-12,0.4071680288206659,0.3999708747600623,-1.7676127670066877,4,True
2022-08-13,0.3999708747600623,0.3982482928853631,-0.43067682758964887,0,True
2022-08-14,0.3982482928853631,0.3982482928853631,0.0,0,False
2022-08-15,0.3982482928853631,0.3962596773933972,-0.49934061928003093,1,True
2022-08-16,0.3962596773933972,0.3922196783238301,-1.0195332253188805,3,True
2022-08-17,0.3922196783238301,0.39026998754402253,-0.4970915248667884,1,True
2022-08-18,0.39026998754402253,0.38832823929005267,-0.497539732990826,1,True
2022-08-19,0.38832823929005267,0.377280708326075,-2.844895077467169,12,True
2022-08-20,0.377280708326075,0.37513884225143085,-0.5677115281476297,2,True
2022-08-21,0.37513884225143085,0.37893818878560787,1.012784096516084,1,True
2022-08-22,0.37893818878560787,0.3771039029229821,-0.48405938406580473,0,True
2022-08-23,0.3771039029229821,0.3771039029229821,0.0,0,False
2022-08-24,0.3771039029229821,0.3771039029229821,0.0,0,False
2022-08-25,0.3771039029229821,0.37580687159320786,-0.3439453476139609,1,True
2022-08-26,0.37580687159320786,0.3757909500960013,-0.00423661683968124,1,True
2022-08-27,0.3757909500960013,0.3656189131382507,-2.706833933907138,6,True
2022-08-28,0.3656189131382507,0.36454508967050386,-0.29370019688800264,1,True
2022-08-29,0.36454508967050386,0.3648711056969177,0.08943091970008421,2,True
2022-08-30,0.3648711056969177,0.3666657769609595,0.49186445186275574,1,True
2022-08-31,0.3666657769609595,0.3659847338583547,-0.1857394786744071,2,True
2022-09-01,0.3659847338583547,0.3601771294452646,-1.5868433505037527,2,True
2022-09-02,0.3601771294452646,0.3602476723869272,0.019585624931606205,0,True
2022-09-03,0.3602476723869272,0.3602476723869272,0.0,0,False
2022-09-04,0.3602476723869272,0.3602476723869272,0.0,0,False
2022-09-05,0.3602476723869272,0.3602476723869272,0.0,0,False
2022-09-06,0.3602476723869272,0.35845554267306334,-0.49747155949393385,1,True
2022-09-07,0.35845554267306334,0.3546315785515634,-1.0667889504466843,5,True
2022-09-08,0.3546315785515634,0.3531812919933968,-0.40895584202909063,2,True
2022-09-09,0.3531812919933968,0.35278053233280915,-0.11347137282547992,0,True
2022-09-10,0.35278053233280915,0.3520396301508928,-0.21001787627481505,2,True
2022-09-11,0.3520396301508928,0.35285824009738076,0.2325334639560639,0,True
2022-09-12,0.35285824009738076,0.35285824009738076,0.0,0,False
2022-09-13,0.35285824009738076,0.34428020202309184,-2.4310153765777387,7,True
2022-09-14,0.34428020202309184,0.346792928196296,0.7298491631057002,4,True
2022-09-15,0.346792928196296,0.34676833740512236,-0.007090914829643857,3,True
2022-09-16,0.34676833740512236,0.3416012707261424,-1.4900629964215595,3,True
2022-09-17,0.3416012707261424,0.33990131062005113,-0.497644549880516,1,True
2022-09-18,0.33990131062005113,0.33990131062005113,0.0,0,False
2022-09-19,0.33990131062005113,0.3393462961115819,-0.16328695745737587,8,True
2022-09-20,0.3393462961115819,0.33935841790176785,0.00357210033667954,0,True
2022-09-21,0.33935841790176785,0.33935841790176785,0.0,0,False
2022-09-22,0.33935841790176785,0.3398725613757455,0.15150455885448721,2,True
2022-09-23,0.3398725613757455,0.3365081168384649,-0.9899135498499634,3,True
2022-09-24,0.3365081168384649,0.3365531481385972,0.01338193579263347,0,True
2022-09-25,0.3365531481385972,0.3365531481385972,0.0,0,False
2022-09-26,0.3365531481385972,0.3365531481385972,0.0,0,False
2022-09-27,0.3365531481385972,0.3365531481385972,0.0,0,False
2022-09-28,0.3365531481385972,0.3365531481385972,0.0,0,False
2022-09-29,0.3365531481385972,0.3365531481385972,0.0,0,False
2022-09-30,0.3365531481385972,0.3353788540707268,-0.34891786761322985,1,True
2022-10-01,0.3353788540707268,0.33487120190526054,-0.15136677798989195,0,True
2022-10-02,0.33487120190526054,0.33487120190526054,0.0,0,False
2022-10-03,0.33487120190526054,0.33487120190526054,0.0,0,False
2022-10-04,0.33487120190526054,0.33487120190526054,0.0,0,False
2022-10-05,0.33487120190526054,0.33487120190526054,0.0,0,False
2022-10-06,0.33487120190526054,0.33487120190526054,0.0,0,False
2022-10-07,0.33487120190526054,0.33487120190526054,0.0,0,False
2022-10-08,0.33487120190526054,0.3332028688988747,-0.49820139710247124,1,True
2022-10-09,0.3332028688988747,0.3332028688988747,0.0,0,False
2022-10-10,0.3332028688988747,0.3321218486246968,-0.32443306318169496,2,True
2022-10-11,0.3321218486246968,0.33504628095336214,0.8805299442886216,5,True
2022-10-12,0.33504628095336214,0.3339431521230554,-0.32924670202809647,2,True
2022-10-13,0.3339431521230554,0.3344122124526747,0.14046113137438088,1,True
2022-10-14,0.3344122124526747,0.3401099497800314,1.7038065941335834,0,True
2022-10-15,0.3401099497800314,0.3401099497800314,0.0,0,False
2022-10-16,0.3401099497800314,0.3401099497800314,0.0,0,False
2022-10-17,0.3401099497800314,0.3401099497800314,0.0,0,False
2022-10-18,0.3401099497800314,0.3401099497800314,0.0,0,False
2022-10-19,0.3401099497800314,0.3401099497800314,0.0,0,False
2022-10-20,0.3401099497800314,0.3433262190885129,0.9456557535472365,2,True
2022-10-21,0.3433262190885129,0.34048974839943985,-0.8261736306080958,0,True
2022-10-22,0.34048974839943985,0.34048974839943985,0.0,0,False
2022-10-23,0.34048974839943985,0.34048974839943985,0.0,0,False
2022-10-24,0.34048974839943985,0.34048974839943985,0.0,0,False
2022-10-25,0.34048974839943985,0.33879102031590336,-0.4989072627066715,1,True
2022-10-26,0.33879102031590336,0.33879102031590336,0.0,0,False
2022-10-27,0.33879102031590336,0.33879102031590336,0.0,0,False
2022-10-28,0.33879102031590336,0.33710380884928604,-0.49800950008772604,1,True
2022-10-29,0.33710380884928604,0.33710380884928604,0.0,0,False
2022-10-30,0.33710380884928604,0.33010494682812874,-2.076174115340945,6,True
2022-10-31,0.33010494682812874,0.331253787405507,0.3480228298355037,3,True
2022-11-01,0.331253787405507,0.3304610605446448,-0.2393110331118331,1,True
2022-11-02,0.3304610605446448,0.3339492407796278,1.055549549237056,3,True
2022-11-03,0.3339492407796278,0.34446583295499306,3.1491588813957305,7,True
2022-11-04,0.34446583295499306,0.3476573645093773,0.926516144433176,4,True
2022-11-05,0.3476573645093773,0.334542933740679,-3.772228667500166,6,True
2022-11-06,0.334542933740679,0.33294805095558083,-0.4767348594887477,2,True
2022-11-07,0.33294805095558083,0.32996439238329417,-0.8961333648667913,8,True
2022-11-08,0.32996439238329417,0.31436270648624903,-4.728293796902139,11,True
2022-11-09,0.31436270648624903,0.28824537177182374,-8.308025785357497,24,True
2022-11-10,0.28824537177182374,0.29261864856681147,1.5172062496981331,17,True
2022-11-11,0.29261864856681147,0.29613238796313857,1.2007913417469096,10,True
2022-11-12,0.29613238796313857,0.2908430747426439,-1.7861312829966502,6,True
2022-11-13,0.2908430747426439,0.2914082185496414,0.19431227905204462,3,True
2022-11-14,0.2914082185496414,0.28939204600925356,-0.6918722301047175,10,True
2022-11-15,0.28939204600925356,0.2871862384905391,-0.7622211975528592,2,True
2022-11-16,0.2871862384905391,0.28417420809004973,-1.0488073580129376,2,True
2022-11-17,0.28417420809004973,0.28266458429368524,-0.5312318125247018,3,True
2022-11-18,0.28266458429368524,0.28389777863615945,0.43627479740897535,0,True
2022-11-19,0.28389777863615945,0.2838511322090853,-0.016430712243764578,3,True
2022-11-20,0.2838511322090853,0.28023001321386853,-1.275710604722713,3,True
2022-11-21,0.28023001321386853,0.26827637671520377,-4.265651762840217,10,True
2022-11-22,0.26827637671520377,0.27147087847649043,1.1907503002688502,5,True
2022-11-23,0.27147087847649043,0.27813434222198885,2.454577736991226,1,True
2022-11-24,0.27813434222198885,0.27467846393563794,-1.2425212430591026,2,True
2022-11-25,0.27467846393563794,0.2742989466717815,-0.1381678266357822,3,True
2022-11-26,0.2742989466717815,0.27507248378054566,0.28200513277572004,0,True
2022-11-27,0.27507248378054566,0.27507248378054566,0.0,0,False
2022-11-28,0.27507248378054566,0.27148016110986306,-1.3059549327909425,8,True
2022-11-29,0.27148016110986306,0.2715488301891121,0.02529432683711086,0,True
2022-11-30,0.2715488301891121,0.2715488301891121,0.0,0,False
2022-12-01,0.2715488301891121,0.27174754084329894,0.07317676678941787,2,True
2022-12-02,0.27174754084329894,0.2716395714408523,-0.03973151039805556,2,True
2022-12-03,0.2716395714408523,0.2715411369190575,-0.03623718049350355,0,True
2022-12-04,0.2715411369190575,0.26883513078632965,-0.99653634930994,2,True
2022-12-05,0.26883513078632965,0.26810778519525436,-0.27055451753936754,2,True
2022-12-06,0.26810778519525436,0.2683504486806365,0.09050967513137831,2,True
2022-12-07,0.2683504486806365,0.2669255590158137,-0.5309809138864363,2,True
2022-12-08,0.2669255590158137,0.2641717704954167,-1.0316691030078151,2,True
2022-12-09,0.2641717704954167,0.2641717704954167,0.0,0,False
2022-12-10,0.2641717704954167,0.2641717704954167,0.0,0,False
2022-12-11,0.2641717704954167,0.2641717704954167,0.0,0,False
2022-12-12,0.2641717704954167,0.2639083644669897,-0.09971013478579094,1,True
2022-12-13,0.2639083644669897,0.264399960821327,0.18627539726912,1,True
2022-12-14,0.264399960821327,0.2642957414727795,-0.03941730861977133,0,True
2022-12-15,0.2642957414727795,0.2642957414727795,0.0,0,False
2022-12-16,0.2642957414727795,0.26513742341905083,0.3184621672604582,5,True
2022-12-17,0.26513742341905083,0.26335484006177695,-0.6723243117801925,7,True
2022-12-18,0.26335484006177695,0.264128475800933,0.2937617318802932,0,True
2022-12-19,0.264128475800933,0.2628133047715903,-0.4979285271512701,1,True
2022-12-20,0.2628133047715903,0.2628133047715903,0.0,0,False
2022-12-21,0.2628133047715903,0.2628133047715903,0.0,0,False
2022-12-22,0.2628133047715903,0.2628133047715903,0.0,0,False
2022-12-23,0.2628133047715903,0.2628133047715903,0.0,0,False
2022-12-24,0.2628133047715903,0.2628133047715903,0.0,0,False
2022-12-25,0.2628133047715903,0.2628133047715903,0.0,0,False
2022-12-26,0.2628133047715903,0.2628133047715903,0.0,0,False
2022-12-27,0.2628133047715903,0.2628133047715903,0.0,0,False
2022-12-28,0.2628133047715903,0.26499023079718,0.8283165220579702,4,True
2022-12-29,0.26499023079718,0.2595318076084291,-2.059858271880488,0,True
2022-12-30,0.2595318076084291,0.26409595395434476,1.7586076974433373,1,True
2022-12-31,0.26409595395434476,0.2653448872888154,0.4729089241126916,0,True
2023-01-01,0.2653448872888154,0.2653448872888154,0.0,0,False
2023-01-02,0.2653448872888154,0.26548748989330295,0.05374235996955523,1,True
2023-01-03,0.26548748989330295,0.2655223339541102,0.013124558457056068,0,True
2023-01-04,0.2655223339541102,0.2655223339541102,0.0,0,False
2023-01-05,0.2655223339541102,0.2655223339541102,0.0,0,False
2023-01-06,0.2655223339541102,0.26509943330885455,-0.15927121419802015,1,True
2023-01-07,0.26509943330885455,0.26598407281769393,0.3337010184434108,0,True
2023-01-08,0.26598407281769393,0.26598407281769393,0.0,0,False
2023-01-09,0.26598407281769393,0.26606096951349684,0.028910263305736983,1,True
2023-01-10,0.26606096951349684,0.26289903595900566,-1.1884244277816869,6,True
2023-01-11,0.26289903595900566,0.2610107490118787,-0.7182555615842579,3,True
2023-01-12,0.2610107490118787,0.2604720496199663,-0.20638973450396447,0,True
2023-01-13,0.2604720496199663,0.26046382653477174,-0.0031569933152342244,1,True
2023-01-14,0.26046382653477174,0.25902016127586297,-0.5542670850364861,6,True
2023-01-15,0.25902016127586297,0.258996540279889,-0.009119365788989864,3,True
2023-01-16,0.258996540279889,0.2590550578862638,0.02259397222510451,2,True
2023-01-17,0.2590550578862638,0.2583578138036515,-0.269148994156454,0,True
2023-01-18,0.2583578138036515,0.2583578138036515,0.0,0,False
2023-01-19,0.2583578138036515,0.2536680579063565,-1.8152173639536917,8,True
2023-01-20,0.2536680579063565,0.2546417960760448,0.383863138987639,0,True
2023-01-21,0.2546417960760448,0.2543986340912598,-0.09549178042728146,4,True
2023-01-22,0.2543986340912598,0.25694395900195255,1.000526170191507,2,True
2023-01-23,0.25694395900195255,0.2558401566262778,-0.4295887632315809,1,True
2023-01-24,0.2558401566262778,0.2685154943019086,4.954397246616171,4,True
2023-01-25,0.2685154943019086,0.26460578067462825,-1.4560476807660039,11,True
2023-01-26,0.26460578067462825,0.2740337930105997,3.563040955467489,2,True
2023-01-27,0.2740337930105997,0.27257408528341903,-0.5326743505404852,3,True
2023-01-28,0.27257408528341903,0.27558214962249805,1.103576789389682,0,True
2023-01-29,0.27558214962249805,0.2742066901024062,-0.4991105272877716,1,True
2023-01-30,0.2742066901024062,0.2744614478781903,0.0929072064904668,5,True
2023-01-31,0.2744614478781903,0.2785843656006169,1.5021846435264719,5,True
2023-02-01,0.2785843656006169,0.2767323992714302,-0.6647775531817612,2,True
2023-02-02,0.2767323992714302,0.2767323992714302,0.0,0,False
2023-02-03,0.2767323992714302,0.27897844917801384,0.8116324335339709,4,True
2023-02-04,0.27897844917801384,0.2794144349918563,0.1562793882921909,0,True
2023-02-05,0.2794144349918563,0.2810084620158304,0.5704884302131896,6,True
2023-02-06,0.2810084620158304,0.27268551588955975,-2.96181334418385,2,True
2023-02-07,0.27268551588955975,0.27268551588955975,0.0,0,False
2023-02-08,0.27268551588955975,0.2671618243516153,-2.025663710052572,5,True
2023-02-09,0.2671618243516153,0.26253847871109975,-1.7305412746510873,10,True
2023-02-10,0.26253847871109975,0.2503881944589267,-4.628001316920627,10,True
2023-02-11,0.2503881944589267,0.24863496001001395,-0.7002065144090963,2,True
2023-02-12,0.24863496001001395,0.25132829432981946,1.0832484376682272,2,True
2023-02-13,0.25132829432981946,0.2514087603374103,0.032016294785019994,3,True
2023-02-14,0.2514087603374103,0.2512362199823301,-0.06862941245509013,1,True
2023-02-15,0.2512362199823301,0.25178096877640316,0.21682733250458774,0,True
2023-02-16,0.25178096877640316,0.25178096877640316,0.0,0,False
2023-02-17,0.25178096877640316,0.25489332557846567,1.2361366378038197,1,True
2023-02-18,0.25489332557846567,0.25472630281324776,-0.06552653540019548,1,True
2023-02-19,0.25472630281324776,0.2554940116599483,0.3013857768992878,2,True
2023-02-20,0.2554940116599483,0.25567550561816144,0.07103648223845127,6,True
2023-02-21,0.25567550561816144,0.2593383732893412,1.4326236149700078,10,True
2023-02-22,0.2593383732893412,0.25461362656295367,-1.821846364832469,3,True
2023-02-23,0.25461362656295367,0.2572125711223584,1.0207405607029152,2,True
2023-02-24,0.2572125711223584,0.2556528166302724,-0.6064067884707036,1,True
2023-02-25,0.2556528166302724,0.25249746378728616,-1.2342335533699789,3,True
2023-02-26,0.25249746378728616,0.2521325317057605,-0.14452900874801777,2,True
2023-02-27,0.2521325317057605,0.25087385195032585,-0.4992135473035786,1,True
2023-02-28,0.25087385195032585,0.24858311966659888,-0.9131012522502924,3,True
2023-03-01,0.24858311966659888,0.24719525914777699,-0.5583084324805698,1,True
2023-03-02,0.24719525914777699,0.2459670144034449,-0.4968722897706668,1,True
2023-03-03,0.2459670144034449,0.24612959283484961,0.06609765614264962,9,True
2023-03-04,0.24612959283484961,0.24732938496942855,0.4874635840250052,0,True
2023-03-05,0.24732938496942855,0.2512342724869048,1.5788206961169893,4,True
2023-03-06,0.2512342724869048,0.250492448740178,-0.2952717156714524,0,True
2023-03-07,0.250492448740178,0.250492448740178,0.0,0,False
2023-03-08,0.250492448740178,0.250492448740178,0.0,0,False
2023-03-09,0.250492448740178,0.250492448740178,0.0,0,False
2023-03-10,0.250492448740178,0.2414957552491414,-3.5916026755634323,12,True
2023-03-11,0.2414957552491414,0.23682324957659973,-1.934818965128915,6,True
2023-03-12,0.23682324957659973,0.2381532164005748,0.5615862574104735,0,True
2023-03-13,0.2381532164005748,0.2381532164005748,0.0,0,False
2023-03-14,0.2381532164005748,0.24064588981897372,1.0466679627816777,1,True
2023-03-15,0.24064588981897372,0.2373000019273618,-1.390378158600114,6,True
2023-03-16,0.2373000019273618,0.2381493137427172,0.35790636681720667,7,True
2023-03-17,0.2381493137427172,0.2368148012133651,-0.5603679928273153,3,True
2023-03-18,0.2368148012133651,0.24236478629975625,2.3435972151887308,3,True
2023-03-19,0.24236478629975625,0.24461653952833862,0.9290760687476363,3,True
2023-03-20,0.24461653952833862,0.24997960427869725,2.192437502672351,5,True
2023-03-21,0.24997960427869725,0.24525513604797644,-1.8899414791670788,3,True
2023-03-22,0.24525513604797644,0.24505997890641232,-0.07957311096878916,0,True
2023-03-23,0.24505997890641232,0.25379657356148627,3.5650842271599315,8,True
2023-03-24,0.25379657356148627,0.25312721657977827,-0.26373759594742197,1,True
2023-03-25,0.25312721657977827,0.2518640336239309,-0.49903087187357364,1,True
2023-03-26,0.2518640336239309,0.2518640336239309,0.0,0,False
2023-03-27,0.2518640336239309,0.2506104282683506,-0.497730993005574,1,True
2023-03-28,0.2506104282683506,0.25808105174359264,2.9809707149307307,4,True
2023-03-29,0.25808105174359264,0.25847977878872713,0.15449683052695118,1,True
2023-03-30,0.25847977878872713,0.2578519859601365,-0.24287889425338438,2,True
2023-03-31,0.2578519859601365,0.2578519859601365,0.0,0,False
2023-04-01,0.2578519859601365,0.2575755105289321,-0.1072225331811616,1,True
2023-04-02,0.2575755105289321,0.2565644705672273,-0.39252177337378846,0,True
2023-04-03,0.2565644705672273,0.2565644705672273,0.0,0,False
2023-04-04,0.2565644705672273,0.2540127294951891,-0.9945808421550573,2,True
2023-04-05,0.2540127294951891,0.25283279261236963,-0.4645187999689715,2,True
2023-04-06,0.25283279261236963,0.24565318461908825,-2.839666452717149,6,True
2023-04-07,0.24565318461908825,0.2436786635364361,-0.8037840363086857,1,True
2023-04-08,0.2436786635364361,0.24444550069865603,0.3146919599324116,1,True
2023-04-09,0.24444550069865603,0.24452807965879433,0.03378215590070788,0,True
2023-04-10,0.24452807965879433,0.24452807965879433,0.0,0,False
2023-04-11,0.24452807965879433,0.24452807965879433,0.0,0,False
2023-04-12,0.24452807965879433,0.2463597056174741,0.7490452471697884,1,True
2023-04-13,0.2463597056174741,0.24652957774886217,0.0689528877956258,0,True
2023-04-14,0.24652957774886217,0.2492856546254043,1.1179497818106565,2,True
2023-04-15,0.2492856546254043,0.24810241268888827,-0.47465303941940373,1,True
2023-04-16,0.24810241268888827,0.24752028396050915,-0.23463243346573126,1,True
2023-04-17,0.24752028396050915,0.2436101812678513,-1.5797100060218394,4,True
2023-04-18,0.2436101812678513,0.24321557314146947,-0.16198342956280642,0,True
2023-04-19,0.24321557314146947,0.2386149826713634,-1.8915690351086423,10,True
2023-04-20,0.2386149826713634,0.23386208314794,-1.9918696932662572,0,True
2023-04-21,0.23386208314794,0.23269554998439126,-0.49881244015550497,1,True
2023-04-22,0.23269554998439126,0.23236723344009325,-0.14109274729149357,1,True
2023-04-23,0.23236723344009325,0.2323997999758576,0.014015115333698702,0,True
2023-04-24,0.2323997999758576,0.2323997999758576,0.0,0,False
2023-04-25,0.2323997999758576,0.2323997999758576,0.0,0,False
2023-04-26,0.2323997999758576,0.2323997999758576,0.0,0,False
2023-04-27,0.2323997999758576,0.22973700976181122,-1.1457799078669617,12,True
2023-04-28,0.22973700976181122,0.23436816471703154,2.0158506285173017,0,True
2023-04-29,0.23436816471703154,0.23320105350735712,-0.4979819725445811,1,True
2023-04-30,0.23320105350735712,0.23320105350735712,0.0,0,False
2023-05-01,0.23320105350735712,0.23320105350735712,0.0,0,False
2023-05-02,0.23320105350735712,0.23320105350735712,0.0,0,False
2023-05-03,0.23320105350735712,0.23320105350735712,0.0,0,False
2023-05-04,0.23320105350735712,0.23320105350735712,0.0,0,False
2023-05-05,0.23320105350735712,0.23320105350735712,0.0,0,False
2023-05-06,0.23320105350735712,0.23088394985001343,-0.9936077142424171,2,True
2023-05-07,0.23088394985001343,0.23088394985001343,0.0,0,False
2023-05-08,0.23088394985001343,0.2259273383060058,-2.1467977948348205,8,True
2023-05-09,0.2259273383060058,0.22427916363444614,-0.7295153760132012,6,True
2023-05-10,0.22427916363444614,0.22279305018077414,-0.6626177080338302,2,True
2023-05-11,0.22279305018077414,0.2210961349326766,-0.761655377813919,5,True
2023-05-12,0.2210961349326766,0.21894709177355767,-0.9719949015722595,0,True
2023-05-13,0.21894709177355767,0.21785396235388793,-0.49926647155482673,1,True
2023-05-14,0.21785396235388793,0.21785396235388793,0.0,0,False
2023-05-15,0.21785396235388793,0.21785396235388793,0.0,0,False
2023-05-16,0.21785396235388793,0.21785396235388793,0.0,0,False
2023-05-17,0.21785396235388793,0.21785396235388793,0.0,0,False
2023-05-18,0.21785396235388793,0.2167673293340568,-0.49878965160431443,1,True
2023-05-19,0.2167673293340568,0.2167673293340568,0.0,0,False
2023-05-20,0.2167673293340568,0.2167673293340568,0.0,0,False
2023-05-21,0.2167673293340568,0.2167673293340568,0.0,0,False
2023-05-22,0.2167673293340568,0.2156858943580193,-0.4988920513805395,1,True
2023-05-23,0.2156858943580193,0.2156858943580193,0.0,0,False
2023-05-24,0.2156858943580193,0.21461137201105487,-0.4981885116607687,1,True
2023-05-25,0.21461137201105487,0.2150924984125456,0.2241849520751238,1,True
2023-05-26,0.2150924984125456,0.21592617636032574,0.3875904338519254,1,True
2023-05-27,0.21592617636032574,0.21377739352794642,-0.9951469843070604,3,True
2023-05-28,0.21377739352794642,0.21377739352794642,0.0,0,False
2023-05-29,0.21377739352794642,0.21482950136444753,0.49215111997498173,1,True
2023-05-30,0.21482950136444753,0.215428978280022,0.27904776195402103,2,True
2023-05-31,0.215428978280022,0.21425763051829627,-0.543728040246827,2,True
2023-06-01,0.21425763051829627,0.21459586045416318,0.15786132566140143,0,True
2023-06-02,0.21459586045416318,0.2182884295508,1.7207084464825995,3,True
2023-06-03,0.2182884295508,0.21351257984231214,-2.187862049452516,3,True
2023-06-04,0.21351257984231214,0.21126234601107474,-1.0539115928903553,4,True
2023-06-05,0.21126234601107474,0.21352161887925455,1.0694157812965788,1,True
2023-06-06,0.21352161887925455,0.20752160910441853,-2.8100244866675617,12,True
2023-06-07,0.20752160910441853,0.20620962026069858,-0.6322179407638351,2,True
2023-06-08,0.20620962026069858,0.20311969744151306,-1.498437762156346,3,True
2023-06-09,0.20311969744151306,0.20225173326045623,-0.427316598040306,1,True
2023-06-10,0.20225173326045623,0.20824460943404233,2.9630777828087096,8,True
2023-06-11,0.20824460943404233,0.20819289011673797,-0.024835849266358068,0,True
2023-06-12,0.20819289011673797,0.20819289011673797,0.0,0,False
2023-06-13,0.20819289011673797,0.20746288699552579,-0.3506378727932802,2,True
2023-06-14,0.20746288699552579,0.20744601764063203,-0.008131263927757537,0,True
2023-06-15,0.20744601764063203,0.20739752179787632,-0.02337757229917692,7,True
2023-06-16,0.20739752179787632,0.21108543141219513,1.7781840314914366,0,True
2023-06-17,0.21108543141219513,0.21160016264701498,0.2438497206444845,1,True
2023-06-18,0.21160016264701498,0.2119984104667614,0.18820770965606304,0,True
2023-06-19,0.2119984104667614,0.21364853358147093,0.7783657957983747,1,True
2023-06-20,0.21364853358147093,0.21284296344876827,-0.3770539021254127,1,True
2023-06-21,0.21284296344876827,0.21284296344876827,0.0,0,False
2023-06-22,0.21284296344876827,0.21461389645340315,0.8320373743814891,6,True
2023-06-23,0.21461389645340315,0.21293193930061588,-0.7837130682506577,0,True
2023-06-24,0.21293193930061588,0.212976101515515,0.020740061375557062,1,True
2023-06-25,0.212976101515515,0.2110302069981049,-0.9136680141871856,7,True
2023-06-26,0.2110302069981049,0.211822842389217,0.37560281174306986,0,True
2023-06-27,0.211822842389217,0.211822842389217,0.0,0,False
2023-06-28,0.211822842389217,0.211822842389217,0.0,0,False
2023-06-29,0.211822842389217,0.2114855881120891,-0.1592152542775449,2,True
2023-06-30,0.2114855881120891,0.21072780711772487,-0.3583133021634488,9,True
2023-07-01,0.21072780711772487,0.21259992863911814,0.8884074422828236,2,True
2023-07-02,0.21259992863911814,0.21253377044481295,-0.031118634295257408,0,True
2023-07-03,0.21253377044481295,0.21253377044481295,0.0,0,False
2023-07-04,0.21253377044481295,0.2121625298633238,-0.17467369101493713,1,True
2023-07-05,0.2121625298633238,0.20935820175446326,-1.3217829324843944,2,True
2023-07-06,0.20935820175446326,0.2095911574958239,0.11127137098447815,4,True
2023-07-07,0.2095911574958239,0.20825349687656358,-0.6382237854127837,0,True
2023-07-08,0.20825349687656358,0.20825349687656358,0.0,0,False
2023-07-09,0.20825349687656358,0.20825349687656358,0.0,0,False
2023-07-10,0.20825349687656358,0.20825238544059482,-0.0005336937844657719,1,True
2023-07-11,0.20825238544059482,0.2075158007940362,-0.3536980596886119,0,True
2023-07-12,0.2075158007940362,0.20692900258000704,-0.28277278731732025,1,True
2023-07-13,0.20692900258000704,0.20668013965888796,-0.12026488216549946,0,True
2023-07-14,0.20668013965888796,0.20564926155189356,-0.4987794708750437,1,True
2023-07-15,0.20564926155189356,0.20729212207885925,0.7988652692298315,7,True
2023-07-16,0.20729212207885925,0.2077248539669632,0.2087546230721271,2,True
2023-07-17,0.2077248539669632,0.20637958609346047,-0.6476200838810953,3,True
2023-07-18,0.20637958609346047,0.20308041468407773,-1.5985938686245316,2,True
2023-07-19,0.20308041468407773,0.20206914108425572,-0.4979670744690967,1,True
2023-07-20,0.20206914108425572,0.2009440322938265,-0.5567939688327139,2,True
2023-07-21,0.2009440322938265,0.20080688918014564,-0.06824940861162032,0,True
2023-07-22,0.20080688918014564,0.20080688918014564,0.0,0,False
2023-07-23,0.20080688918014564,0.20080688918014564,0.0,0,False
2023-07-24,0.20080688918014564,0.19623237202121285,-2.2780678380157293,7,True
2023-07-25,0.19623237202121285,0.19608432698473047,-0.07544373793044734,0,True
2023-07-26,0.19608432698473047,0.19608432698473047,0.0,0,False
2023-07-27,0.19608432698473047,0.19608432698473047,0.0,0,False
2023-07-28,0.19608432698473047,0.19608432698473047,0.0,0,False
2023-07-29,0.19608432698473047,0.19608432698473047,0.0,0,False
2023-07-30,0.19608432698473047,0.19608432698473047,0.0,0,False
2023-07-31,0.19608432698473047,0.1951085127661618,-0.49765028830919267,1,True
2023-08-01,0.1951085127661618,0.19703660074252363,0.988213148173922,3,True
2023-08-02,0.19703660074252363,0.1990324115997794,1.0129137681702982,0,True
2023-08-03,0.1990324115997794,0.1990324115997794,0.0,0,False
2023-08-04,0.1990324115997794,0.1990324115997794,0.0,0,False
2023-08-05,0.1990324115997794,0.1990324115997794,0.0,0,False
2023-08-06,0.1990324115997794,0.1993743571953521,0.1718039754551537,1,True
2023-08-07,0.1993743571953521,0.19699982730829768,-1.1909906170770923,3,True
2023-08-08,0.19699982730829768,0.1926084149054489,-2.2291453057856736,5,True
2023-08-09,0.1926084149054489,0.19156814099295483,-0.5400978524249478,0,True
2023-08-10,0.19156814099295483,0.19061413948060738,-0.4979959127872635,1,True
2023-08-11,0.19061413948060738,0.19061413948060738,0.0,0,False
2023-08-12,0.19061413948060738,0.19061413948060738,0.0,0,False
2023-08-13,0.19061413948060738,0.19385453457415994,1.6999762464537493,2,True
2023-08-14,0.19385453457415994,0.19067119646003616,-1.6421272378882468,7,True
2023-08-15,0.19067119646003616,0.1877294804332128,-1.5428214022037312,2,True
2023-08-16,0.1877294804332128,0.19025315161706854,1.3443126663068572,8,True
2023-08-17,0.19025315161706854,0.18760284115241393,-1.3930441846182973,6,True
2023-08-18,0.18760284115241393,0.19728041627919113,5.158544011023181,7,True
2023-08-19,0.19728041627919113,0.20133130658704473,2.053366666725198,2,True
2023-08-20,0.20133130658704473,0.200776112243132,-0.27576155607608177,1,True
2023-08-21,0.200776112243132,0.20004719511337574,-0.3630497281835843,1,True
2023-08-22,0.20004719511337574,0.19949618159884394,-0.27544175974050233,3,True
2023-08-23,0.19949618159884394,0.20151218215499414,1.0105459362646174,1,True
2023-08-24,0.20151218215499414,0.20166613504728603,0.07639880162355617,0,True
2023-08-25,0.20166613504728603,0.2017882895427176,0.060572636750810815,8,True
2023-08-26,0.2017882895427176,0.20256020999315458,0.3825397659033003,1,True
2023-08-27,0.20256020999315458,0.20244988030809136,-0.054467600061702814,0,True
2023-08-28,0.20244988030809136,0.20043837414715987,-0.9935822920074555,2,True
2023-08-29,0.20043837414715987,0.2019867317277216,0.772485601696693,3,True
2023-08-30,0.2019867317277216,0.198714984016189,-1.6197834796113808,3,True
2023-08-31,0.198714984016189,0.20078829076725513,1.0433570278209237,3,True
2023-09-01,0.20078829076725513,0.1980142412448319,-1.3815793300610224,3,True
2023-09-02,0.1980142412448319,0.20079366172281438,1.4036467581874046,7,True
2023-09-03,0.20079366172281438,0.2058935220243014,2.5398512372004634,3,True
2023-09-04,0.2058935220243014,0.20387125496946681,-0.9821907143809483,7,True
2023-09-05,0.20387125496946681,0.20678546752817528,1.429437690539026,2,True
2023-09-06,0.20678546752817528,0.2103591671317956,1.7282160329440854,5,True
2023-09-07,0.2103591671317956,0.21206191796804358,0.809449314458055,3,True
2023-09-08,0.21206191796804358,0.20824676863964622,-1.7990732918733099,7,True
2023-09-09,0.20824676863964622,0.2044038134270899,-1.8453852790418224,7,True
2023-09-10,0.2044038134270899,0.19779357715378396,-3.2339104454446987,7,True
2023-09-11,0.19779357715378396,0.1962933719131816,-0.7584701496327839,2,True
2023-09-12,0.1962933719131816,0.1957124587241732,-0.2959413164828284,2,True
2023-09-13,0.1957124587241732,0.1946848503204201,-0.5250602902094004,2,True
2023-09-14,0.1946848503204201,0.19428160346655468,-0.20712800878021076,4,True
2023-09-15,0.19428160346655468,0.19518982612274094,0.46747743480644033,0,True
2023-09-16,0.19518982612274094,0.19495010269588603,-0.12281553378922228,6,True
2023-09-17,0.19495010269588603,0.19571731725033284,0.3935440627305775,5,True
2023-09-18,0.19571731725033284,0.18990503273630777,-2.969734408627134,4,True
2023-09-19,0.18990503273630777,0.19215373883109244,1.1841213802411987,1,True
2023-09-20,0.19215373883109244,0.19389746819845413,0.907465750065084,3,True
2023-09-21,0.19389746819845413,0.1954700668293691,0.8110465007750367,2,True
2023-09-22,0.1954700668293691,0.1996172273487968,2.12163457387462,1,True
2023-09-23,0.1996172273487968,0.19823150106776913,-0.6941917285557486,1,True
2023-09-24,0.19823150106776913,0.19724472898081696,-0.4977877288104726,1,True
2023-09-25,0.19724472898081696,0.19718304389010455,-0.03127337852379952,1,True
2023-09-26,0.19718304389010455,0.1975182275412204,0.16998604165106013,1,True
2023-09-27,0.1975182275412204,0.19614959919601727,-0.6929124274960952,1,True
2023-09-28,0.19614959919601727,0.19706087381587953,0.46458143355756487,2,True
2023-09-29,0.19706087381587953,0.19462707165907053,-1.235050931055437,2,True
2023-09-30,0.19462707165907053,0.19462707165907053,0.0,0,False
2023-10-01,0.19462707165907053,0.1944348256785415,-0.09877658790745647,1,True
2023-10-02,0.1944348256785415,0.19638821687043367,1.004650882410174,1,True
2023-10-03,0.19638821687043367,0.19560197842442278,-0.4003490935149179,3,True
2023-10-04,0.19560197842442278,0.18969964038157525,-3.0175247154404894,7,True
2023-10-05,0.18969964038157525,0.1877079404123376,-1.0499229019261147,2,True
2023-10-06,0.1877079404123376,0.18770139157132487,-0.0034888460223592155,0,True
2023-10-07,0.18770139157132487,0.1867671258776582,-0.49774041942126646,1,True
2023-10-08,0.1867671258776582,0.18628472013045783,-0.25829264381161954,1,True
2023-10-09,0.18628472013045783,0.18245199526391614,-2.0574553102678417,5,True
2023-10-10,0.18245199526391614,0.18031752058214645,-1.169882893679608,1,True
2023-10-11,0.18031752058214645,0.18031752058214645,0.0,0,False
2023-10-12,0.18031752058214645,0.18031752058214645,0.0,0,False
2023-10-13,0.18031752058214645,0.18031752058214645,0.0,0,False
2023-10-14,0.18031752058214645,0.18031752058214645,0.0,0,False
2023-10-15,0.18031752058214645,0.18032978594179058,0.006802089782809162,1,True
2023-10-16,0.18032978594179058,0.18085634817213098,0.2919995870845016,2,True
2023-10-17,0.18085634817213098,0.1818747550584324,0.5631026483693846,2,True
2023-10-18,0.1818747550584324,0.17956559009833384,-1.2696456742205209,4,True
2023-10-19,0.17956559009833384,0.17542425996729036,-2.306304971222828,5,True
2023-10-20,0.17542425996729036,0.1747747594229067,-0.37024556609488446,0,True
2023-10-21,0.1747747594229067,0.17500133250492114,0.12963718717884376,2,True
2023-10-22,0.17500133250492114,0.17647284190591436,0.8408561123109504,1,True
2023-10-23,0.17647284190591436,0.17647284190591436,0.0,0,False
2023-10-24,0.17647284190591436,0.17361599828479712,-1.6188573778623372,8,True
2023-10-25,0.17361599828479712,0.17878449184119813,2.976968486465559,7,True
2023-10-26,0.17878449184119813,0.18175005252321344,1.6587348552856707,6,True
2023-10-27,0.18175005252321344,0.18143172878209254,-0.1751436859036115,5,True
2023-10-28,0.18143172878209254,0.1824239855296406,0.546903650320063,2,True
2023-10-29,0.1824239855296406,0.1829275093568087,0.27601843348954436,0,True
2023-10-30,0.1829275093568087,0.182222584613976,-0.3853574267267401,2,True
2023-10-31,0.182222584613976,0.17774868510850678,-2.4551838702907336,6,True
2023-11-01,0.17774868510850678,0.17734630084455064,-0.22637819442123952,5,True
2023-11-02,0.17734630084455064,0.1766003385137201,-0.42062469150929704,4,True
2023-11-03,0.1766003385137201,0.17359919244815708,-1.699399950657432,2,True
2023-11-04,0.17359919244815708,0.17210256679584582,-0.862115561256549,4,True
2023-11-05,0.17210256679584582,0.17159389363956626,-0.29556395686007875,6,True
2023-11-06,0.17159389363956626,0.16954920935919707,-1.1915833582423763,5,True
2023-11-07,0.16954920935919707,0.16640464223491855,-1.8546633960507708,5,True
2023-11-08,0.16640464223491855,0.16714715008136435,0.4462062094383157,0,True
2023-11-09,0.16714715008136435,0.16950589950561482,1.4111813591211497,6,True
2023-11-10,0.16950589950561482,0.1653268403311424,-2.465435826517648,12,True
2023-11-11,0.1653268403311424,0.1649539925249899,-0.2255216427082818,6,True
2023-11-12,0.1649539925249899,0.1652651984806288,0.18866227538671954,6,True
2023-11-13,0.1652651984806288,0.1644024460174272,-0.5220412229152482,4,True
2023-11-14,0.1644024460174272,0.1623603141692569,-1.242154175707244,8,True
2023-11-15,0.1623603141692569,0.1606114397891792,-1.0771563168167742,3,True
2023-11-16,0.1606114397891792,0.1576321438584291,-1.8549711867727137,4,True
2023-11-17,0.1576321438584291,0.15754754945053984,-0.05366570917493263,5,True
2023-11-18,0.15754754945053984,0.1552543736003848,-1.4555452358051113,6,True
2023-11-19,0.1552543736003848,0.15199190100259719,-2.1013724265089073,4,True
2023-11-20,0.15199190100259719,0.15261737286503382,0.411516573127102,2,True
2023-11-21,0.15261737286503382,0.14804737118685177,-2.9944177339649936,5,True
2023-11-22,0.14804737118685177,0.1468917849509921,-0.7805516751805075,6,True
2023-11-23,0.1468917849509921,0.14578104706240638,-0.7561606586483305,3,True
2023-11-24,0.14578104706240638,0.15014516373628248,2.993610460218399,1,True
2023-11-25,0.15014516373628248,0.15017292365288082,0.018488718455889064,5,True
2023-11-26,0.15017292365288082,0.14985944433542508,-0.20874556466672356,0,True
2023-11-27,0.14985944433542508,0.14962580065079104,-0.15590854862046477,6,True
2023-11-28,0.14962580065079104,0.14803844133048286,-1.060886099458802,4,True
2023-11-29,0.14803844133048286,0.14873347826587957,0.4694976042372012,5,True
2023-11-30,0.14873347826587957,0.14674777220889823,-1.3350767292832688,3,True
2023-12-01,0.14674777220889823,0.14670249865642387,-0.030851270716336643,0,True
2023-12-02,0.14670249865642387,0.14801668144294924,0.895814862433375,1,True
2023-12-03,0.14801668144294924,0.14951237126689998,1.0104873378932178,4,True
2023-12-04,0.14951237126689998,0.15085234539566683,0.8962296012112736,6,True
2023-12-05,0.15085234539566683,0.14986226495481614,-0.6563241945319653,5,True
2023-12-06,0.14986226495481614,0.14642442260112515,-2.2940013316410934,6,True
2023-12-07,0.14642442260112515,0.14480138045235144,-1.1084504346621449,5,True
2023-12-08,0.14480138045235144,0.14266530800996152,-1.4751740872337993,2,True
2023-12-09,0.14266530800996152,0.14266530800996152,0.0,0,False
2023-12-10,0.14266530800996152,0.14257769039874943,-0.061414798337644516,3,True
2023-12-11,0.14257769039874943,0.14537829942086283,1.964268753604359,6,True
2023-12-12,0.14537829942086283,0.14853557297141365,2.1717639861852156,1,True
2023-12-13,0.14853557297141365,0.1471987867468395,-0.8999771555271874,6,True
2023-12-14,0.1471987867468395,0.14908840066334653,1.2837156869756505,2,True
2023-12-15,0.14908840066334653,0.14569861119647665,-2.2736775307720225,4,True
2023-12-16,0.14569861119647665,0.14817464360857036,1.699420736931212,5,True
2023-12-17,0.14817464360857036,0.1440411468051901,-2.7896114360157487,6,True
2023-12-18,0.1440411468051901,0.14480926319853074,0.5332617869111322,8,True
2023-12-19,0.14480926319853074,0.14428704072559748,-0.3606278088835402,4,True
2023-12-20,0.14428704072559748,0.1434826476856015,-0.5574950015959867,2,True
2023-12-21,0.1434826476856015,0.14068465553591425,-1.9500561181573728,3,True
2023-12-22,0.14068465553591425,0.13983167311448555,-0.6063080711818936,2,True
2023-12-23,0.13983167311448555,0.13974461952113984,-0.062255990654158655,3,True
2023-12-24,0.13974461952113984,0.1539459571942196,10.162350236984597,3,True
2023-12-25,0.1539459571942196,0.14802536428486765,-3.84589047822963,5,True
2023-12-26,0.14802536428486765,0.1460627570548078,-1.3258587401838051,3,True
2023-12-27,0.1460627570548078,0.14573910739052737,-0.2215826065497306,11,True
2023-12-28,0.14573910739052737,0.14238437283379088,-2.3018767006353524,8,True
2023-12-29,0.14238437283379088,0.14342519517736424,0.730994787460526,3,True
2023-12-30,0.14342519517736424,0.1427659964634171,-0.4596115160463765,3,True
2023-12-31,0.1427659964634171,0.1404774455378114,-1.6030084069718287,3,True
