day,start_equity,end_equity,return_pct,entries,active
2021-09-02,1.0,1.0,0.0,0,False
2021-09-03,1.0,1.0,0.0,0,False
2021-09-04,1.0,1.0,0.0,0,False
2021-09-05,1.0,1.0,0.0,0,False
2021-09-06,1.0,1.0,0.0,0,False
2021-09-07,1.0,1.0,0.0,0,False
2021-09-08,1.0,1.0,0.0,0,False
2021-09-09,1.0,1.0,0.0,0,False
2021-09-10,1.0,1.0,0.0,0,False
2021-09-11,1.0,1.0,0.0,0,False
2021-09-12,1.0,1.0,0.0,0,False
2021-09-13,1.0,1.0,0.0,0,False
2021-09-14,1.0,1.0,0.0,0,False
2021-09-15,1.0,1.0,0.0,0,False
2021-09-16,1.0,1.0,0.0,0,False
2021-09-17,1.0,1.0,0.0,0,False
2021-09-18,1.0,1.0,0.0,0,False
2021-09-19,1.0,1.0,0.0,0,False
2021-09-20,1.0,1.0,0.0,0,False
2021-09-21,1.0,1.0,0.0,0,False
2021-09-22,1.0,1.0,0.0,0,False
2021-09-23,1.0,1.0,0.0,0,False
2021-09-24,1.0,1.0,0.0,0,False
2021-09-25,1.0,1.0,0.0,0,False
2021-09-26,1.0,1.0,0.0,0,False
2021-09-27,1.0,1.0,0.0,0,False
2021-09-28,1.0,1.0,0.0,0,False
2021-09-29,1.0,1.0,0.0,0,False
2021-09-30,1.0,1.0,0.0,0,False
2021-10-01,1.0,1.0,0.0,0,False
2021-10-02,1.0,1.0,0.0,0,False
2021-10-03,1.0,1.0,0.0,0,False
2021-10-04,1.0,1.0,0.0,0,False
2021-10-05,1.0,1.0,0.0,0,False
2021-10-06,1.0,1.0,0.0,0,False
2021-10-07,1.0,1.0,0.0,0,False
2021-10-08,1.0,1.0,0.0,0,False
2021-10-09,1.0,1.0,0.0,0,False
2021-10-10,1.0,1.0,0.0,0,False
2021-10-11,1.0,1.0,0.0,0,False
2021-10-12,1.0,1.0,0.0,0,False
2021-10-13,1.0,1.0044085104710179,0.4408510471017868,1,True
2021-10-14,1.0044085104710179,1.0076726271163816,0.3249789912505907,0,True
2021-10-15,1.0076726271163816,1.0076726271163816,0.0,0,False
2021-10-16,1.0076726271163816,1.0076726271163816,0.0,0,False
2021-10-17,1.0076726271163816,1.0076726271163816,0.0,0,False
2021-10-18,1.0076726271163816,1.0076726271163816,0.0,0,False
2021-10-19,1.0076726271163816,1.0076726271163816,0.0,0,False
2021-10-20,1.0076726271163816,1.0076726271163816,0.0,0,False
2021-10-21,1.0076726271163816,1.0076726271163816,0.0,0,False
2021-10-22,1.0076726271163816,1.0076726271163816,0.0,0,False
2021-10-23,1.0076726271163816,1.0076726271163816,0.0,0,False
2021-10-24,1.0076726271163816,1.0076726271163816,0.0,0,False
2021-10-25,1.0076726271163816,1.0112256039508694,0.3525923736417358,1,True
2021-10-26,1.0112256039508694,1.0112256039508694,0.0,0,False
2021-10-27,1.0112256039508694,1.0198229960771616,0.8501952573888749,4,True
2021-10-28,1.0198229960771616,1.015339962583986,-0.4395893709418175,0,True
2021-10-29,1.015339962583986,1.015339962583986,0.0,0,False
2021-10-30,1.015339962583986,1.015339962583986,0.0,0,False
2021-10-31,1.015339962583986,1.015339962583986,0.0,0,False
2021-11-01,1.015339962583986,1.015339962583986,0.0,0,False
2021-11-02,1.015339962583986,1.015339962583986,0.0,0,False
2021-11-03,1.015339962583986,1.015339962583986,0.0,0,False
2021-11-04,1.015339962583986,1.015339962583986,0.0,0,False
2021-11-05,1.015339962583986,1.015339962583986,0.0,0,False
2021-11-06,1.015339962583986,1.015339962583986,0.0,0,False
2021-11-07,1.015339962583986,1.015339962583986,0.0,0,False
2021-11-08,1.015339962583986,1.015339962583986,0.0,0,False
2021-11-09,1.015339962583986,1.015339962583986,0.0,0,False
2021-11-10,1.015339962583986,1.015339962583986,0.0,0,False
2021-11-11,1.015339962583986,1.0115476392436622,-0.3735028148279085,3,True
2021-11-12,1.0115476392436622,1.0115476392436622,0.0,0,False
2021-11-13,1.0115476392436622,1.0115476392436622,0.0,0,False
2021-11-14,1.0115476392436622,1.0115476392436622,0.0,0,False
2021-11-15,1.0115476392436622,1.0115476392436622,0.0,0,False
2021-11-16,1.0115476392436622,1.0380015132930795,2.6151881555669387,4,True
2021-11-17,1.0380015132930795,1.0455428580130353,0.7265254070806471,0,True
2021-11-18,1.0455428580130353,1.0423008306398847,-0.31008077271091894,1,True
2021-11-19,1.0423008306398847,1.0403156867702126,-0.19045786123507158,0,True
2021-11-20,1.0403156867702126,1.0403156867702126,0.0,0,False
2021-11-21,1.0403156867702126,1.0403156867702126,0.0,0,False
2021-11-22,1.0403156867702126,1.0403156867702126,0.0,0,False
2021-11-23,1.0403156867702126,1.0403156867702126,0.0,0,False
2021-11-24,1.0403156867702126,1.0403156867702126,0.0,0,False
2021-11-25,1.0403156867702126,1.0403156867702126,0.0,0,False
2021-11-26,1.0403156867702126,1.0436211616145625,0.3177376719764924,5,True
2021-11-27,1.0436211616145625,1.0422121817028058,-0.135008752560839,0,True
2021-11-28,1.0422121817028058,1.0422121817028058,0.0,0,False
2021-11-29,1.0422121817028058,1.0422121817028058,0.0,0,False
2021-11-30,1.0422121817028058,1.0422121817028058,0.0,0,False
2021-12-01,1.0422121817028058,1.0401308528793236,-0.19970298371313477,1,True
2021-12-02,1.0401308528793236,1.0409208154523997,0.0759483838874031,1,True
2021-12-03,1.0409208154523997,1.0385283536898773,-0.22984089923138162,1,True
2021-12-04,1.0385283536898773,1.0179133897629358,-1.9850169572835252,4,True
2021-12-05,1.0179133897629358,1.0179133897629358,0.0,0,False
2021-12-06,1.0179133897629358,1.0179133897629358,0.0,0,False
2021-12-07,1.0179133897629358,1.0179133897629358,0.0,0,False
2021-12-08,1.0179133897629358,1.0179133897629358,0.0,0,False
2021-12-09,1.0179133897629358,1.0179133897629358,0.0,0,False
2021-12-10,1.0179133897629358,1.0179133897629358,0.0,0,False
2021-12-11,1.0179133897629358,1.0179133897629358,0.0,0,False
2021-12-12,1.0179133897629358,1.0179133897629358,0.0,0,False
2021-12-13,1.0179133897629358,1.0179133897629358,0.0,0,False
2021-12-14,1.0179133897629358,1.0179133897629358,0.0,0,False
2021-12-15,1.0179133897629358,1.0179133897629358,0.0,0,False
2021-12-16,1.0179133897629358,1.0179133897629358,0.0,0,False
2021-12-17,1.0179133897629358,1.0179133897629358,0.0,0,False
2021-12-18,1.0179133897629358,1.0179133897629358,0.0,0,False
2021-12-19,1.0179133897629358,1.0179133897629358,0.0,0,False
2021-12-20,1.0179133897629358,1.0179133897629358,0.0,0,False
2021-12-21,1.0179133897629358,1.0179133897629358,0.0,0,False
2021-12-22,1.0179133897629358,1.0179133897629358,0.0,0,False
2021-12-23,1.0179133897629358,1.0179133897629358,0.0,0,False
2021-12-24,1.0179133897629358,1.0179133897629358,0.0,0,False
2021-12-25,1.0179133897629358,1.0179133897629358,0.0,0,False
2021-12-26,1.0179133897629358,1.0179133897629358,0.0,0,False
2021-12-27,1.0179133897629358,1.0179133897629358,0.0,0,False
2021-12-28,1.0179133897629358,1.0179133897629358,0.0,0,False
2021-12-29,1.0179133897629358,1.0179133897629358,0.0,0,False
2021-12-30,1.0179133897629358,1.0179133897629358,0.0,0,False
2021-12-31,1.0179133897629358,1.0179133897629358,0.0,0,False
2022-01-01,1.0179133897629358,1.0179133897629358,0.0,0,False
2022-01-02,1.0179133897629358,1.0179133897629358,0.0,0,False
2022-01-03,1.0179133897629358,1.0179133897629358,0.0,0,False
2022-01-04,1.0179133897629358,1.0179133897629358,0.0,0,False
2022-01-05,1.0179133897629358,1.0179133897629358,0.0,0,False
2022-01-06,1.0179133897629358,1.0189546501637885,0.10229361469498155,1,True
2022-01-07,1.0189546501637885,1.0189546501637885,0.0,0,False
2022-01-08,1.0189546501637885,1.0189546501637885,0.0,0,False
2022-01-09,1.0189546501637885,1.0189546501637885,0.0,0,False
2022-01-10,1.0189546501637885,1.0189546501637885,0.0,0,False
2022-01-11,1.0189546501637885,1.0189546501637885,0.0,0,False
2022-01-12,1.0189546501637885,1.0189546501637885,0.0,0,False
2022-01-13,1.0189546501637885,1.0189546501637885,0.0,0,False
2022-01-14,1.0189546501637885,1.0189546501637885,0.0,0,False
2022-01-15,1.0189546501637885,1.0189546501637885,0.0,0,False
2022-01-16,1.0189546501637885,1.0189546501637885,0.0,0,False
2022-01-17,1.0189546501637885,1.0189546501637885,0.0,0,False
2022-01-18,1.0189546501637885,1.0189546501637885,0.0,0,False
2022-01-19,1.0189546501637885,1.0189546501637885,0.0,0,False
2022-01-20,1.0189546501637885,1.0189546501637885,0.0,0,False
2022-01-21,1.0189546501637885,1.0189546501637885,0.0,0,False
2022-01-22,1.0189546501637885,1.0189546501637885,0.0,0,False
2022-01-23,1.0189546501637885,1.0189546501637885,0.0,0,False
2022-01-24,1.0189546501637885,1.0189546501637885,0.0,0,False
2022-01-25,1.0189546501637885,1.0189546501637885,0.0,0,False
2022-01-26,1.0189546501637885,1.0189546501637885,0.0,0,False
2022-01-27,1.0189546501637885,1.0189546501637885,0.0,0,False
2022-01-28,1.0189546501637885,1.0189546501637885,0.0,0,False
2022-01-29,1.0189546501637885,1.0189546501637885,0.0,0,False
2022-01-30,1.0189546501637885,1.0189546501637885,0.0,0,False
2022-01-31,1.0189546501637885,1.0189546501637885,0.0,0,False
2022-02-01,1.0189546501637885,1.0189546501637885,0.0,0,False
2022-02-02,1.0189546501637885,1.0189546501637885,0.0,0,False
2022-02-03,1.0189546501637885,1.0189546501637885,0.0,0,False
2022-02-04,1.0189546501637885,1.0189546501637885,0.0,0,False
2022-02-05,1.0189546501637885,1.0189546501637885,0.0,0,False
2022-02-06,1.0189546501637885,1.0189546501637885,0.0,0,False
2022-02-07,1.0189546501637885,1.0189546501637885,0.0,0,False
2022-02-08,1.0189546501637885,1.0189546501637885,0.0,0,False
2022-02-09,1.0189546501637885,1.0189546501637885,0.0,0,False
2022-02-10,1.0189546501637885,1.018819817059156,-0.013232493184145433,1,True
2022-02-11,1.018819817059156,1.0161767620441717,-0.25942320425348386,0,True
2022-02-12,1.0161767620441717,1.0161767620441717,0.0,0,False
2022-02-13,1.0161767620441717,1.0161767620441717,0.0,0,False
2022-02-14,1.0161767620441717,1.0161767620441717,0.0,0,False
2022-02-15,1.0161767620441717,1.0161767620441717,0.0,0,False
2022-02-16,1.0161767620441717,1.0161767620441717,0.0,0,False
2022-02-17,1.0161767620441717,1.0161767620441717,0.0,0,False
2022-02-18,1.0161767620441717,1.0161767620441717,0.0,0,False
2022-02-19,1.0161767620441717,1.0161767620441717,0.0,0,False
2022-02-20,1.0161767620441717,1.0161767620441717,0.0,0,False
2022-02-21,1.0161767620441717,1.0161767620441717,0.0,0,False
2022-02-22,1.0161767620441717,1.0161767620441717,0.0,0,False
2022-02-23,1.0161767620441717,1.0161767620441717,0.0,0,False
2022-02-24,1.0161767620441717,1.0161767620441717,0.0,0,False
2022-02-25,1.0161767620441717,1.0161767620441717,0.0,0,False
2022-02-26,1.0161767620441717,1.0161767620441717,0.0,0,False
2022-02-27,1.0161767620441717,1.0161767620441717,0.0,0,False
2022-02-28,1.0161767620441717,1.0161767620441717,0.0,0,False
2022-03-01,1.0161767620441717,1.0161767620441717,0.0,0,False
2022-03-02,1.0161767620441717,1.0161767620441717,0.0,0,False
2022-03-03,1.0161767620441717,1.0161767620441717,0.0,0,False
2022-03-04,1.0161767620441717,1.0161767620441717,0.0,0,False
2022-03-05,1.0161767620441717,1.0161767620441717,0.0,0,False
2022-03-06,1.0161767620441717,1.0161767620441717,0.0,0,False
2022-03-07,1.0161767620441717,1.0161767620441717,0.0,0,False
2022-03-08,1.0161767620441717,1.0161767620441717,0.0,0,False
2022-03-09,1.0161767620441717,1.0161767620441717,0.0,0,False
2022-03-10,1.0161767620441717,1.0161767620441717,0.0,0,False
2022-03-11,1.0161767620441717,1.0161767620441717,0.0,0,False
2022-03-12,1.0161767620441717,1.0161767620441717,0.0,0,False
2022-03-13,1.0161767620441717,1.0161767620441717,0.0,0,False
2022-03-14,1.0161767620441717,1.0161767620441717,0.0,0,False
2022-03-15,1.0161767620441717,1.0161767620441717,0.0,0,False
2022-03-16,1.0161767620441717,1.0161767620441717,0.0,0,False
2022-03-17,1.0161767620441717,1.0161767620441717,0.0,0,False
2022-03-18,1.0161767620441717,1.0161767620441717,0.0,0,False
2022-03-19,1.0161767620441717,1.0161767620441717,0.0,0,False
2022-03-20,1.0161767620441717,1.0161767620441717,0.0,0,False
2022-03-21,1.0161767620441717,1.0161767620441717,0.0,0,False
2022-03-22,1.0161767620441717,1.0161767620441717,0.0,0,False
2022-03-23,1.0161767620441717,1.0161767620441717,0.0,0,False
2022-03-24,1.0161767620441717,1.0161767620441717,0.0,0,False
2022-03-25,1.0161767620441717,1.0161767620441717,0.0,0,False
2022-03-26,1.0161767620441717,1.0161767620441717,0.0,0,False
2022-03-27,1.0161767620441717,1.0161767620441717,0.0,0,False
2022-03-28,1.0161767620441717,1.0161767620441717,0.0,0,False
2022-03-29,1.0161767620441717,1.0161767620441717,0.0,0,False
2022-03-30,1.0161767620441717,1.0150399297214368,-0.11187348158288035,1,True
2022-03-31,1.0150399297214368,1.0150399297214368,0.0,0,False
2022-04-01,1.0150399297214368,1.0150399297214368,0.0,0,False
2022-04-02,1.0150399297214368,1.0150399297214368,0.0,0,False
2022-04-03,1.0150399297214368,1.0150399297214368,0.0,0,False
2022-04-04,1.0150399297214368,1.0150399297214368,0.0,0,False
2022-04-05,1.0150399297214368,1.0150399297214368,0.0,0,False
2022-04-06,1.0150399297214368,1.0161480586217884,0.10917096637328427,1,True
2022-04-07,1.0161480586217884,1.0161480586217884,0.0,0,False
2022-04-08,1.0161480586217884,1.0161480586217884,0.0,0,False
2022-04-09,1.0161480586217884,1.0161480586217884,0.0,0,False
2022-04-10,1.0161480586217884,1.0161480586217884,0.0,0,False
2022-04-11,1.0161480586217884,1.0161480586217884,0.0,0,False
2022-04-12,1.0161480586217884,1.0161480586217884,0.0,0,False
2022-04-13,1.0161480586217884,1.0161480586217884,0.0,0,False
2022-04-14,1.0161480586217884,1.0161480586217884,0.0,0,False
2022-04-15,1.0161480586217884,1.0161480586217884,0.0,0,False
2022-04-16,1.0161480586217884,1.0161480586217884,0.0,0,False
2022-04-17,1.0161480586217884,1.0161480586217884,0.0,0,False
2022-04-18,1.0161480586217884,1.0184569890385862,0.22722381814412884,1,True
2022-04-19,1.0184569890385862,1.017324204442582,-0.11122557046551185,0,True
2022-04-20,1.017324204442582,1.017324204442582,0.0,0,False
2022-04-21,1.017324204442582,1.017324204442582,0.0,0,False
2022-04-22,1.017324204442582,1.017324204442582,0.0,0,False
2022-04-23,1.017324204442582,1.017324204442582,0.0,0,False
2022-04-24,1.017324204442582,1.017324204442582,0.0,0,False
2022-04-25,1.017324204442582,1.017324204442582,0.0,0,False
2022-04-26,1.017324204442582,1.017324204442582,0.0,0,False
2022-04-27,1.017324204442582,1.017324204442582,0.0,0,False
2022-04-28,1.017324204442582,1.017324204442582,0.0,0,False
2022-04-29,1.017324204442582,1.017324204442582,0.0,0,False
2022-04-30,1.017324204442582,1.017324204442582,0.0,0,False
2022-05-01,1.017324204442582,1.0309544507750574,1.3398134314462462,4,True
2022-05-02,1.0309544507750574,1.0309544507750574,0.0,0,False
2022-05-03,1.0309544507750574,1.0309544507750574,0.0,0,False
2022-05-04,1.0309544507750574,1.0309544507750574,0.0,0,False
2022-05-05,1.0309544507750574,1.0309544507750574,0.0,0,False
2022-05-06,1.0309544507750574,1.031701491623215,0.07246109152503344,1,True
2022-05-07,1.031701491623215,1.0309218136706841,-0.07557204858783528,0,True
2022-05-08,1.0309218136706841,1.0309218136706841,0.0,0,False
2022-05-09,1.0309218136706841,1.0309218136706841,0.0,0,False
2022-05-10,1.0309218136706841,1.0309218136706841,0.0,0,False
2022-05-11,1.0309218136706841,1.0309218136706841,0.0,0,False
2022-05-12,1.0309218136706841,1.0309218136706841,0.0,0,False
2022-05-13,1.0309218136706841,1.0309218136706841,0.0,0,False
2022-05-14,1.0309218136706841,1.0309218136706841,0.0,0,False
2022-05-15,1.0309218136706841,1.0309218136706841,0.0,0,False
2022-05-16,1.0309218136706841,1.0309218136706841,0.0,0,False
2022-05-17,1.0309218136706841,1.0309218136706841,0.0,0,False
2022-05-18,1.0309218136706841,1.0309218136706841,0.0,0,False
2022-05-19,1.0309218136706841,1.0309218136706841,0.0,0,False
2022-05-20,1.0309218136706841,1.0341461155030318,0.31275910448216315,1,True
2022-05-21,1.0341461155030318,1.0341461155030318,0.0,0,False
2022-05-22,1.0341461155030318,1.0341461155030318,0.0,0,False
2022-05-23,1.0341461155030318,1.0341461155030318,0.0,0,False
2022-05-24,1.0341461155030318,1.0341461155030318,0.0,0,False
2022-05-25,1.0341461155030318,1.0289837239415065,-0.4991936327115809,1,True
2022-05-26,1.0289837239415065,1.0289837239415065,0.0,0,False
2022-05-27,1.0289837239415065,1.0289837239415065,0.0,0,False
2022-05-28,1.0289837239415065,1.0289837239415065,0.0,0,False
2022-05-29,1.0289837239415065,1.0289837239415065,0.0,0,False
2022-05-30,1.0289837239415065,1.0289837239415065,0.0,0,False
2022-05-31,1.0289837239415065,1.0289837239415065,0.0,0,False
2022-06-01,1.0289837239415065,1.0289837239415065,0.0,0,False
2022-06-02,1.0289837239415065,1.0289837239415065,0.0,0,False
2022-06-03,1.0289837239415065,1.0289837239415065,0.0,0,False
2022-06-04,1.0289837239415065,1.0289837239415065,0.0,0,False
2022-06-05,1.0289837239415065,1.0289837239415065,0.0,0,False
2022-06-06,1.0289837239415065,1.0289837239415065,0.0,0,False
2022-06-07,1.0289837239415065,1.0289837239415065,0.0,0,False
2022-06-08,1.0289837239415065,1.0289837239415065,0.0,0,False
2022-06-09,1.0289837239415065,1.0289837239415065,0.0,0,False
2022-06-10,1.0289837239415065,1.0289837239415065,0.0,0,False
2022-06-11,1.0289837239415065,1.0289837239415065,0.0,0,False
2022-06-12,1.0289837239415065,1.0289837239415065,0.0,0,False
2022-06-13,1.0289837239415065,1.0289837239415065,0.0,0,False
2022-06-14,1.0289837239415065,1.0289837239415065,0.0,0,False
2022-06-15,1.0289837239415065,1.0289837239415065,0.0,0,False
2022-06-16,1.0289837239415065,1.0289837239415065,0.0,0,False
2022-06-17,1.0289837239415065,1.0289837239415065,0.0,0,False
2022-06-18,1.0289837239415065,1.021777352024456,-0.7003387662388505,4,True
2022-06-19,1.021777352024456,1.0216225322033308,-0.015152011425823009,0,True
2022-06-20,1.0216225322033308,1.0216225322033308,0.0,0,False
2022-06-21,1.0216225322033308,1.0216225322033308,0.0,0,False
2022-06-22,1.0216225322033308,1.0216225322033308,0.0,0,False
2022-06-23,1.0216225322033308,1.0216225322033308,0.0,0,False
2022-06-24,1.0216225322033308,1.0216225322033308,0.0,0,False
2022-06-25,1.0216225322033308,1.0216225322033308,0.0,0,False
2022-06-26,1.0216225322033308,1.0216225322033308,0.0,0,False
2022-06-27,1.0216225322033308,1.0216225322033308,0.0,0,False
2022-06-28,1.0216225322033308,1.0229515203440658,0.1300860248127922,1,True
2022-06-29,1.0229515203440658,1.0273714341075975,0.4320746072155046,0,True
2022-06-30,1.0273714341075975,1.0273714341075975,0.0,0,False
2022-07-01,1.0273714341075975,1.0273714341075975,0.0,0,False
2022-07-02,1.0273714341075975,1.0273714341075975,0.0,0,False
2022-07-03,1.0273714341075975,1.0273714341075975,0.0,0,False
2022-07-04,1.0273714341075975,1.0273714341075975,0.0,0,False
2022-07-05,1.0273714341075975,1.0273714341075975,0.0,0,False
2022-07-06,1.0273714341075975,1.0273714341075975,0.0,0,False
2022-07-07,1.0273714341075975,1.0273714341075975,0.0,0,False
2022-07-08,1.0273714341075975,1.0273714341075975,0.0,0,False
2022-07-09,1.0273714341075975,1.0273714341075975,0.0,0,False
2022-07-10,1.0273714341075975,1.0273714341075975,0.0,0,False
2022-07-11,1.0273714341075975,1.0273714341075975,0.0,0,False
2022-07-12,1.0273714341075975,1.0273714341075975,0.0,0,False
2022-07-13,1.0273714341075975,1.0366604518366442,0.9041537870979832,4,True
2022-07-14,1.0366604518366442,1.0557628076582364,1.8426820264772825,0,True
2022-07-15,1.0557628076582364,1.0557628076582364,0.0,0,False
2022-07-16,1.0557628076582364,1.0557628076582364,0.0,0,False
2022-07-17,1.0557628076582364,1.0557628076582364,0.0,0,False
2022-07-18,1.0557628076582364,1.0557628076582364,0.0,0,False
2022-07-19,1.0557628076582364,1.0557628076582364,0.0,0,False
2022-07-20,1.0557628076582364,1.0557628076582364,0.0,0,False
2022-07-21,1.0557628076582364,1.0536606853572312,-0.1991093345737216,3,True
2022-07-22,1.0536606853572312,1.0536606853572312,0.0,0,False
2022-07-23,1.0536606853572312,1.0536606853572312,0.0,0,False
2022-07-24,1.0536606853572312,1.0536606853572312,0.0,0,False
2022-07-25,1.0536606853572312,1.0545518815251629,0.08458094530019444,1,True
2022-07-26,1.0545518815251629,1.0545518815251629,0.0,0,False
2022-07-27,1.0545518815251629,1.0545518815251629,0.0,0,False
2022-07-28,1.0545518815251629,1.0545518815251629,0.0,0,False
2022-07-29,1.0545518815251629,1.0545518815251629,0.0,0,False
2022-07-30,1.0545518815251629,1.0545518815251629,0.0,0,False
2022-07-31,1.0545518815251629,1.0545518815251629,0.0,0,False
2022-08-01,1.0545518815251629,1.0545518815251629,0.0,0,False
2022-08-02,1.0545518815251629,1.0545518815251629,0.0,0,False
2022-08-03,1.0545518815251629,1.0545518815251629,0.0,0,False
2022-08-04,1.0545518815251629,1.0545518815251629,0.0,0,False
2022-08-05,1.0545518815251629,1.0545518815251629,0.0,0,False
2022-08-06,1.0545518815251629,1.0545518815251629,0.0,0,False
2022-08-07,1.0545518815251629,1.0545518815251629,0.0,0,False
2022-08-08,1.0545518815251629,1.0545518815251629,0.0,0,False
2022-08-09,1.0545518815251629,1.0562102420837407,0.15725737041778487,1,True
2022-08-10,1.0562102420837407,1.0562102420837407,0.0,0,False
2022-08-11,1.0562102420837407,1.0562102420837407,0.0,0,False
2022-08-12,1.0562102420837407,1.0565075407416553,0.028147677997147902,1,True
2022-08-13,1.0565075407416553,1.0565075407416553,0.0,0,False
2022-08-14,1.0565075407416553,1.0565075407416553,0.0,0,False
2022-08-15,1.0565075407416553,1.0565075407416553,0.0,0,False
2022-08-16,1.0565075407416553,1.0565075407416553,0.0,0,False
2022-08-17,1.0565075407416553,1.0565075407416553,0.0,0,False
2022-08-18,1.0565075407416553,1.0565075407416553,0.0,0,False
2022-08-19,1.0565075407416553,1.0330891401599214,-2.2165862219302723,7,True
2022-08-20,1.0330891401599214,1.0330891401599214,0.0,0,False
2022-08-21,1.0330891401599214,1.0330891401599214,0.0,0,False
2022-08-22,1.0330891401599214,1.0330891401599214,0.0,0,False
2022-08-23,1.0330891401599214,1.0330891401599214,0.0,0,False
2022-08-24,1.0330891401599214,1.0330891401599214,0.0,0,False
2022-08-25,1.0330891401599214,1.0330891401599214,0.0,0,False
2022-08-26,1.0330891401599214,1.0330891401599214,0.0,0,False
2022-08-27,1.0330891401599214,1.0330891401599214,0.0,0,False
2022-08-28,1.0330891401599214,1.0330891401599214,0.0,0,False
2022-08-29,1.0330891401599214,1.0330891401599214,0.0,0,False
2022-08-30,1.0330891401599214,1.0330891401599214,0.0,0,False
2022-08-31,1.0330891401599214,1.0330891401599214,0.0,0,False
2022-09-01,1.0330891401599214,1.0330891401599214,0.0,0,False
2022-09-02,1.0330891401599214,1.0330891401599214,0.0,0,False
2022-09-03,1.0330891401599214,1.0330891401599214,0.0,0,False
2022-09-04,1.0330891401599214,1.0330891401599214,0.0,0,False
2022-09-05,1.0330891401599214,1.0330891401599214,0.0,0,False
2022-09-06,1.0330891401599214,1.0330891401599214,0.0,0,False
2022-09-07,1.0330891401599214,1.0197241414675637,-1.293692690476711,4,True
2022-09-08,1.0197241414675637,1.0197241414675637,0.0,0,False
2022-09-09,1.0197241414675637,1.0197241414675637,0.0,0,False
2022-09-10,1.0197241414675637,1.0197241414675637,0.0,0,False
2022-09-11,1.0197241414675637,1.0197241414675637,0.0,0,False
2022-09-12,1.0197241414675637,1.0197241414675637,0.0,0,False
2022-09-13,1.0197241414675637,1.0134663107726105,-0.6136787823760925,4,True
2022-09-14,1.0134663107726105,1.0085396932237922,-0.48611557152428153,0,True
2022-09-15,1.0085396932237922,1.0124578545539467,0.3884984752191567,1,True
2022-09-16,1.0124578545539467,1.0124578545539467,0.0,0,False
2022-09-17,1.0124578545539467,1.0124578545539467,0.0,0,False
2022-09-18,1.0124578545539467,1.0124578545539467,0.0,0,False
2022-09-19,1.0124578545539467,1.0095212263694784,-0.2900494248979868,5,True
2022-09-20,1.0095212263694784,1.0095212263694784,0.0,0,False
2022-09-21,1.0095212263694784,1.0095212263694784,0.0,0,False
2022-09-22,1.0095212263694784,1.0095212263694784,0.0,0,False
2022-09-23,1.0095212263694784,1.0095212263694784,0.0,0,False
2022-09-24,1.0095212263694784,1.0095212263694784,0.0,0,False
2022-09-25,1.0095212263694784,1.0095212263694784,0.0,0,False
2022-09-26,1.0095212263694784,1.0095212263694784,0.0,0,False
2022-09-27,1.0095212263694784,1.0095212263694784,0.0,0,False
2022-09-28,1.0095212263694784,1.0095212263694784,0.0,0,False
2022-09-29,1.0095212263694784,1.0095212263694784,0.0,0,False
2022-09-30,1.0095212263694784,1.0095212263694784,0.0,0,False
2022-10-01,1.0095212263694784,1.0095212263694784,0.0,0,False
2022-10-02,1.0095212263694784,1.0095212263694784,0.0,0,False
2022-10-03,1.0095212263694784,1.0095212263694784,0.0,0,False
2022-10-04,1.0095212263694784,1.0095212263694784,0.0,0,False
2022-10-05,1.0095212263694784,1.0095212263694784,0.0,0,False
2022-10-06,1.0095212263694784,1.0095212263694784,0.0,0,False
2022-10-07,1.0095212263694784,1.0095212263694784,0.0,0,False
2022-10-08,1.0095212263694784,1.0095212263694784,0.0,0,False
2022-10-09,1.0095212263694784,1.0095212263694784,0.0,0,False
2022-10-10,1.0095212263694784,1.0095212263694784,0.0,0,False
2022-10-11,1.0095212263694784,1.0291675909641493,1.9461071329153423,4,True
2022-10-12,1.0291675909641493,1.0291675909641493,0.0,0,False
2022-10-13,1.0291675909641493,1.0291675909641493,0.0,0,False
2022-10-14,1.0291675909641493,1.0291675909641493,0.0,0,False
2022-10-15,1.0291675909641493,1.0291675909641493,0.0,0,False
2022-10-16,1.0291675909641493,1.0291675909641493,0.0,0,False
2022-10-17,1.0291675909641493,1.0291675909641493,0.0,0,False
2022-10-18,1.0291675909641493,1.0291675909641493,0.0,0,False
2022-10-19,1.0291675909641493,1.0291675909641493,0.0,0,False
2022-10-20,1.0291675909641493,1.032457943498033,0.3197100805322872,1,True
2022-10-21,1.032457943498033,1.032457943498033,0.0,0,False
2022-10-22,1.032457943498033,1.032457943498033,0.0,0,False
2022-10-23,1.032457943498033,1.032457943498033,0.0,0,False
2022-10-24,1.032457943498033,1.032457943498033,0.0,0,False
2022-10-25,1.032457943498033,1.032457943498033,0.0,0,False
2022-10-26,1.032457943498033,1.032457943498033,0.0,0,False
2022-10-27,1.032457943498033,1.032457943498033,0.0,0,False
2022-10-28,1.032457943498033,1.032457943498033,0.0,0,False
2022-10-29,1.032457943498033,1.032457943498033,0.0,0,False
2022-10-30,1.032457943498033,1.032457943498033,0.0,0,False
2022-10-31,1.032457943498033,1.032457943498033,0.0,0,False
2022-11-01,1.032457943498033,1.032457943498033,0.0,0,False
2022-11-02,1.032457943498033,1.0360884578091987,0.3516379852592566,1,True
2022-11-03,1.0360884578091987,1.0360884578091987,0.0,0,False
2022-11-04,1.0360884578091987,1.0309162734775463,-0.49920296791925445,1,True
2022-11-05,1.0309162734775463,1.0309162734775463,0.0,0,False
2022-11-06,1.0309162734775463,1.0309162734775463,0.0,0,False
2022-11-07,1.0309162734775463,1.0309162734775463,0.0,0,False
2022-11-08,1.0309162734775463,1.0277649703868448,-0.3056798279138073,2,True
2022-11-09,1.0277649703868448,1.0302477598297308,0.2415717128354311,0,True
2022-11-10,1.0302477598297308,1.0302477598297308,0.0,0,False
2022-11-11,1.0302477598297308,1.0270829706960372,-0.30718718905214937,2,True
2022-11-12,1.0270829706960372,1.028857717172529,0.17279484979575432,0,True
2022-11-13,1.028857717172529,1.0237174718746307,-0.499607011941805,1,True
2022-11-14,1.0237174718746307,1.0237174718746307,0.0,0,False
2022-11-15,1.0237174718746307,1.0237174718746307,0.0,0,False
2022-11-16,1.0237174718746307,1.0237174718746307,0.0,0,False
2022-11-17,1.0237174718746307,1.0237174718746307,0.0,0,False
2022-11-18,1.0237174718746307,1.0237174718746307,0.0,0,False
2022-11-19,1.0237174718746307,1.023974283954106,0.02508622608590194,2,True
2022-11-20,1.023974283954106,1.018675876288464,-0.5174356181272377,0,True
2022-11-21,1.018675876288464,1.018675876288464,0.0,0,False
2022-11-22,1.018675876288464,1.018675876288464,0.0,0,False
2022-11-23,1.018675876288464,1.018675876288464,0.0,0,False
2022-11-24,1.018675876288464,1.018675876288464,0.0,0,False
2022-11-25,1.018675876288464,1.018675876288464,0.0,0,False
2022-11-26,1.018675876288464,1.018675876288464,0.0,0,False
2022-11-27,1.018675876288464,1.018675876288464,0.0,0,False
2022-11-28,1.018675876288464,1.0160432905202021,-0.2584321303311543,2,True
2022-11-29,1.0160432905202021,1.0160432905202021,0.0,0,False
2022-11-30,1.0160432905202021,1.0160432905202021,0.0,0,False
2022-12-01,1.0160432905202021,1.0159930735179659,-0.004942407740382571,1,True
2022-12-02,1.0159930735179659,1.0159930735179659,0.0,0,False
2022-12-03,1.0159930735179659,1.0159930735179659,0.0,0,False
2022-12-04,1.0159930735179659,1.0159930735179659,0.0,0,False
2022-12-05,1.0159930735179659,1.0159930735179659,0.0,0,False
2022-12-06,1.0159930735179659,1.0159930735179659,0.0,0,False
2022-12-07,1.0159930735179659,1.0159930735179659,0.0,0,False
2022-12-08,1.0159930735179659,1.0109203853168116,-0.4992837385780269,1,True
2022-12-09,1.0109203853168116,1.0109203853168116,0.0,0,False
2022-12-10,1.0109203853168116,1.0109203853168116,0.0,0,False
2022-12-11,1.0109203853168116,1.0109203853168116,0.0,0,False
2022-12-12,1.0109203853168116,1.0109203853168116,0.0,0,False
2022-12-13,1.0109203853168116,1.0109203853168116,0.0,0,False
2022-12-14,1.0109203853168116,1.0109203853168116,0.0,0,False
2022-12-15,1.0109203853168116,1.0109203853168116,0.0,0,False
2022-12-16,1.0109203853168116,1.0109203853168116,0.0,0,False
2022-12-17,1.0109203853168116,1.013823089504735,0.28713479618018845,4,True
2022-12-18,1.013823089504735,1.013823089504735,0.0,0,False
2022-12-19,1.013823089504735,1.013823089504735,0.0,0,False
2022-12-20,1.013823089504735,1.013823089504735,0.0,0,False
2022-12-21,1.013823089504735,1.013823089504735,0.0,0,False
2022-12-22,1.013823089504735,1.013823089504735,0.0,0,False
2022-12-23,1.013823089504735,1.013823089504735,0.0,0,False
2022-12-24,1.013823089504735,1.013823089504735,0.0,0,False
2022-12-25,1.013823089504735,1.013823089504735,0.0,0,False
2022-12-26,1.013823089504735,1.013823089504735,0.0,0,False
2022-12-27,1.013823089504735,1.013823089504735,0.0,0,False
2022-12-28,1.013823089504735,1.0159158166665305,0.2064193628513289,1,True
2022-12-29,1.0159158166665305,1.0151308103507677,-0.07727080363200134,0,True
2022-12-30,1.0151308103507677,1.0151308103507677,0.0,0,False
2022-12-31,1.0151308103507677,1.0151308103507677,0.0,0,False
2023-01-01,1.0151308103507677,1.0151308103507677,0.0,0,False
2023-01-02,1.0151308103507677,1.0151308103507677,0.0,0,False
2023-01-03,1.0151308103507677,1.0151308103507677,0.0,0,False
2023-01-04,1.0151308103507677,1.0151308103507677,0.0,0,False
2023-01-05,1.0151308103507677,1.0151308103507677,0.0,0,False
2023-01-06,1.0151308103507677,1.0151308103507677,0.0,0,False
2023-01-07,1.0151308103507677,1.0151308103507677,0.0,0,False
2023-01-08,1.0151308103507677,1.0151308103507677,0.0,0,False
2023-01-09,1.0151308103507677,1.0151308103507677,0.0,0,False
2023-01-10,1.0151308103507677,1.0135706101032431,-0.15369450238491567,2,True
2023-01-11,1.0135706101032431,1.0141096906513567,0.05318628448180984,0,True
2023-01-12,1.0141096906513567,1.0141096906513567,0.0,0,False
2023-01-13,1.0141096906513567,1.0141096906513567,0.0,0,False
2023-01-14,1.0141096906513567,1.0141096906513567,0.0,0,False
2023-01-15,1.0141096906513567,1.0141096906513567,0.0,0,False
2023-01-16,1.0141096906513567,1.0141096906513567,0.0,0,False
2023-01-17,1.0141096906513567,1.0141096906513567,0.0,0,False
2023-01-18,1.0141096906513567,1.0141096906513567,0.0,0,False
2023-01-19,1.0141096906513567,1.0141096906513567,0.0,0,False
2023-01-20,1.0141096906513567,1.0141096906513567,0.0,0,False
2023-01-21,1.0141096906513567,1.0141096906513567,0.0,0,False
2023-01-22,1.0141096906513567,1.0141096906513567,0.0,0,False
2023-01-23,1.0141096906513567,1.0141096906513567,0.0,0,False
2023-01-24,1.0141096906513567,1.0141096906513567,0.0,0,False
2023-01-25,1.0141096906513567,1.0231597516266626,0.8924144063245487,4,True
2023-01-26,1.0231597516266626,1.0231597516266626,0.0,0,False
2023-01-27,1.0231597516266626,1.0231597516266626,0.0,0,False
2023-01-28,1.0231597516266626,1.0231597516266626,0.0,0,False
2023-01-29,1.0231597516266626,1.0231597516266626,0.0,0,False
2023-01-30,1.0231597516266626,1.0242527796962062,0.10682868123046418,1,True
2023-01-31,1.0242527796962062,1.0217025630414314,-0.24898313241885628,1,True
2023-02-01,1.0217025630414314,1.0217025630414314,0.0,0,False
2023-02-02,1.0217025630414314,1.0217025630414314,0.0,0,False
2023-02-03,1.0217025630414314,1.0217025630414314,0.0,0,False
2023-02-04,1.0217025630414314,1.0217025630414314,0.0,0,False
2023-02-05,1.0217025630414314,1.0241123173241868,0.23585673266610652,4,True
2023-02-06,1.0241123173241868,1.0353956868891656,1.1017707114840736,0,True
2023-02-07,1.0353956868891656,1.0353956868891656,0.0,0,False
2023-02-08,1.0353956868891656,1.0353956868891656,0.0,0,False
2023-02-09,1.0353956868891656,1.0353956868891656,0.0,0,False
2023-02-10,1.0353956868891656,1.0353956868891656,0.0,0,False
2023-02-11,1.0353956868891656,1.0353956868891656,0.0,0,False
2023-02-12,1.0353956868891656,1.0353956868891656,0.0,0,False
2023-02-13,1.0353956868891656,1.0353956868891656,0.0,0,False
2023-02-14,1.0353956868891656,1.0353956868891656,0.0,0,False
2023-02-15,1.0353956868891656,1.0353956868891656,0.0,0,False
2023-02-16,1.0353956868891656,1.0353956868891656,0.0,0,False
2023-02-17,1.0353956868891656,1.0353956868891656,0.0,0,False
2023-02-18,1.0353956868891656,1.0353956868891656,0.0,0,False
2023-02-19,1.0353956868891656,1.0353956868891656,0.0,0,False
2023-02-20,1.0353956868891656,1.0353956868891656,0.0,0,False
2023-02-21,1.0353956868891656,1.0353956868891656,0.0,0,False
2023-02-22,1.0353956868891656,1.0353956868891656,0.0,0,False
2023-02-23,1.0353956868891656,1.044295386007828,0.8595457013541585,1,True
2023-02-24,1.044295386007828,1.044295386007828,0.0,0,False
2023-02-25,1.044295386007828,1.044295386007828,0.0,0,False
2023-02-26,1.044295386007828,1.044295386007828,0.0,0,False
2023-02-27,1.044295386007828,1.044295386007828,0.0,0,False
2023-02-28,1.044295386007828,1.044295386007828,0.0,0,False
2023-03-01,1.044295386007828,1.044295386007828,0.0,0,False
2023-03-02,1.044295386007828,1.044295386007828,0.0,0,False
2023-03-03,1.044295386007828,1.045122561161656,0.0792089254545214,1,True
2023-03-04,1.045122561161656,1.045122561161656,0.0,0,False
2023-03-05,1.045122561161656,1.045122561161656,0.0,0,False
2023-03-06,1.045122561161656,1.045122561161656,0.0,0,False
2023-03-07,1.045122561161656,1.045122561161656,0.0,0,False
2023-03-08,1.045122561161656,1.045122561161656,0.0,0,False
2023-03-09,1.045122561161656,1.045122561161656,0.0,0,False
2023-03-10,1.045122561161656,1.045122561161656,0.0,0,False
2023-03-11,1.045122561161656,1.045122561161656,0.0,0,False
2023-03-12,1.045122561161656,1.045122561161656,0.0,0,False
2023-03-13,1.045122561161656,1.045122561161656,0.0,0,False
2023-03-14,1.045122561161656,1.045122561161656,0.0,0,False
2023-03-15,1.045122561161656,1.045122561161656,0.0,0,False
2023-03-16,1.045122561161656,1.045122561161656,0.0,0,False
2023-03-17,1.045122561161656,1.045122561161656,0.0,0,False
2023-03-18,1.045122561161656,1.045122561161656,0.0,0,False
2023-03-19,1.045122561161656,1.045122561161656,0.0,0,False
2023-03-20,1.045122561161656,1.045122561161656,0.0,0,False
2023-03-21,1.045122561161656,1.045122561161656,0.0,0,False
2023-03-22,1.045122561161656,1.045122561161656,0.0,0,False
2023-03-23,1.045122561161656,1.0529495947257659,0.7489105924007866,3,True
2023-03-24,1.0529495947257659,1.0539291435860958,0.09302903626502435,0,True
2023-03-25,1.0539291435860958,1.049647944630789,-0.4062131673045588,1,True
2023-03-26,1.049647944630789,1.0499390085766571,0.02772967330209042,0,True
2023-03-27,1.0499390085766571,1.0499390085766571,0.0,0,False
2023-03-28,1.0499390085766571,1.0499390085766571,0.0,0,False
2023-03-29,1.0499390085766571,1.0499390085766571,0.0,0,False
2023-03-30,1.0499390085766571,1.0499390085766571,0.0,0,False
2023-03-31,1.0499390085766571,1.0499390085766571,0.0,0,False
2023-04-01,1.0499390085766571,1.0499390085766571,0.0,0,False
2023-04-02,1.0499390085766571,1.0499390085766571,0.0,0,False
2023-04-03,1.0499390085766571,1.0499390085766571,0.0,0,False
2023-04-04,1.0499390085766571,1.0499390085766571,0.0,0,False
2023-04-05,1.0499390085766571,1.0499390085766571,0.0,0,False
2023-04-06,1.0499390085766571,1.0499390085766571,0.0,0,False
2023-04-07,1.0499390085766571,1.0469192307591102,-0.2876145940744368,1,True
2023-04-08,1.0469192307591102,1.0469192307591102,0.0,0,False
2023-04-09,1.0469192307591102,1.0469192307591102,0.0,0,False
2023-04-10,1.0469192307591102,1.0469192307591102,0.0,0,False
2023-04-11,1.0469192307591102,1.0469192307591102,0.0,0,False
2023-04-12,1.0469192307591102,1.0469192307591102,0.0,0,False
2023-04-13,1.0469192307591102,1.0469192307591102,0.0,0,False
2023-04-14,1.0469192307591102,1.0469192307591102,0.0,0,False
2023-04-15,1.0469192307591102,1.0469192307591102,0.0,0,False
2023-04-16,1.0469192307591102,1.0469192307591102,0.0,0,False
2023-04-17,1.0469192307591102,1.0469192307591102,0.0,0,False
2023-04-18,1.0469192307591102,1.0469192307591102,0.0,0,False
2023-04-19,1.0469192307591102,1.0409073367680641,-0.5742462087249045,2,True
2023-04-20,1.0409073367680641,1.0395072687171494,-0.13450458090360495,0,True
2023-04-21,1.0395072687171494,1.0395072687171494,0.0,0,False
2023-04-22,1.0395072687171494,1.0395072687171494,0.0,0,False
2023-04-23,1.0395072687171494,1.0395072687171494,0.0,0,False
2023-04-24,1.0395072687171494,1.0395072687171494,0.0,0,False
2023-04-25,1.0395072687171494,1.0395072687171494,0.0,0,False
2023-04-26,1.0395072687171494,1.0395072687171494,0.0,0,False
2023-04-27,1.0395072687171494,1.0395072687171494,0.0,0,False
2023-04-28,1.0395072687171494,1.0395072687171494,0.0,0,False
2023-04-29,1.0395072687171494,1.0395072687171494,0.0,0,False
2023-04-30,1.0395072687171494,1.0395072687171494,0.0,0,False
2023-05-01,1.0395072687171494,1.0395072687171494,0.0,0,False
2023-05-02,1.0395072687171494,1.0395072687171494,0.0,0,False
2023-05-03,1.0395072687171494,1.0395072687171494,0.0,0,False
2023-05-04,1.0395072687171494,1.0395072687171494,0.0,0,False
2023-05-05,1.0395072687171494,1.0395072687171494,0.0,0,False
2023-05-06,1.0395072687171494,1.0395072687171494,0.0,0,False
2023-05-07,1.0395072687171494,1.0395072687171494,0.0,0,False
2023-05-08,1.0395072687171494,1.0488712652863574,0.9008110718421447,4,True
2023-05-09,1.0488712652863574,1.0436352818679293,-0.49920172205295543,1,True
2023-05-10,1.0436352818679293,1.0436352818679293,0.0,0,False
2023-05-11,1.0436352818679293,1.0436352818679293,0.0,0,False
2023-05-12,1.0436352818679293,1.0436352818679293,0.0,0,False
2023-05-13,1.0436352818679293,1.0436352818679293,0.0,0,False
2023-05-14,1.0436352818679293,1.0436352818679293,0.0,0,False
2023-05-15,1.0436352818679293,1.0436352818679293,0.0,0,False
2023-05-16,1.0436352818679293,1.0436352818679293,0.0,0,False
2023-05-17,1.0436352818679293,1.0436352818679293,0.0,0,False
2023-05-18,1.0436352818679293,1.0436352818679293,0.0,0,False
2023-05-19,1.0436352818679293,1.0436352818679293,0.0,0,False
2023-05-20,1.0436352818679293,1.0436352818679293,0.0,0,False
2023-05-21,1.0436352818679293,1.0436352818679293,0.0,0,False
2023-05-22,1.0436352818679293,1.0436352818679293,0.0,0,False
2023-05-23,1.0436352818679293,1.0436352818679293,0.0,0,False
2023-05-24,1.0436352818679293,1.0436352818679293,0.0,0,False
2023-05-25,1.0436352818679293,1.0436352818679293,0.0,0,False
2023-05-26,1.0436352818679293,1.0452056689940858,0.15047279001010327,1,True
2023-05-27,1.0452056689940858,1.04793264849174,0.2609036267741116,0,True
2023-05-28,1.04793264849174,1.04793264849174,0.0,0,False
2023-05-29,1.04793264849174,1.04793264849174,0.0,0,False
2023-05-30,1.04793264849174,1.04793264849174,0.0,0,False
2023-05-31,1.04793264849174,1.04793264849174,0.0,0,False
2023-06-01,1.04793264849174,1.04793264849174,0.0,0,False
2023-06-02,1.04793264849174,1.04793264849174,0.0,0,False
2023-06-03,1.04793264849174,1.04793264849174,0.0,0,False
2023-06-04,1.04793264849174,1.04793264849174,0.0,0,False
2023-06-05,1.04793264849174,1.04793264849174,0.0,0,False
2023-06-06,1.04793264849174,1.0398328895842397,-0.7729274318495571,4,True
2023-06-07,1.0398328895842397,1.0398328895842397,0.0,0,False
2023-06-08,1.0398328895842397,1.0398328895842397,0.0,0,False
2023-06-09,1.0398328895842397,1.0398328895842397,0.0,0,False
2023-06-10,1.0398328895842397,1.0488355146459112,0.8657761407480535,5,True
2023-06-11,1.0488355146459112,1.0479025240033908,-0.08895490565413722,0,True
2023-06-12,1.0479025240033908,1.0479025240033908,0.0,0,False
2023-06-13,1.0479025240033908,1.0479025240033908,0.0,0,False
2023-06-14,1.0479025240033908,1.0479025240033908,0.0,0,False
2023-06-15,1.0479025240033908,1.0479025240033908,0.0,0,False
2023-06-16,1.0479025240033908,1.0479025240033908,0.0,0,False
2023-06-17,1.0479025240033908,1.0479025240033908,0.0,0,False
2023-06-18,1.0479025240033908,1.0479025240033908,0.0,0,False
2023-06-19,1.0479025240033908,1.0479025240033908,0.0,0,False
2023-06-20,1.0479025240033908,1.0479025240033908,0.0,0,False
2023-06-21,1.0479025240033908,1.0479025240033908,0.0,0,False
2023-06-22,1.0479025240033908,1.0479025240033908,0.0,0,False
2023-06-23,1.0479025240033908,1.0479025240033908,0.0,0,False
2023-06-24,1.0479025240033908,1.0479025240033908,0.0,0,False
2023-06-25,1.0479025240033908,1.0479025240033908,0.0,0,False
2023-06-26,1.0479025240033908,1.0479025240033908,0.0,0,False
2023-06-27,1.0479025240033908,1.0479025240033908,0.0,0,False
2023-06-28,1.0479025240033908,1.0479025240033908,0.0,0,False
2023-06-29,1.0479025240033908,1.0479025240033908,0.0,0,False
2023-06-30,1.0479025240033908,1.0359634203140307,-1.1393334223252172,3,True
2023-07-01,1.0359634203140307,1.039692585627745,0.35997075191940286,0,True
2023-07-02,1.039692585627745,1.039692585627745,0.0,0,False
2023-07-03,1.039692585627745,1.039692585627745,0.0,0,False
2023-07-04,1.039692585627745,1.039692585627745,0.0,0,False
2023-07-05,1.039692585627745,1.039692585627745,0.0,0,False
2023-07-06,1.039692585627745,1.039692585627745,0.0,0,False
2023-07-07,1.039692585627745,1.039692585627745,0.0,0,False
2023-07-08,1.039692585627745,1.039692585627745,0.0,0,False
2023-07-09,1.039692585627745,1.039692585627745,0.0,0,False
2023-07-10,1.039692585627745,1.039692585627745,0.0,0,False
2023-07-11,1.039692585627745,1.039692585627745,0.0,0,False
2023-07-12,1.039692585627745,1.039692585627745,0.0,0,False
2023-07-13,1.039692585627745,1.039692585627745,0.0,0,False
2023-07-14,1.039692585627745,1.039692585627745,0.0,0,False
2023-07-15,1.039692585627745,1.039692585627745,0.0,0,False
2023-07-16,1.039692585627745,1.039692585627745,0.0,0,False
2023-07-17,1.039692585627745,1.039692585627745,0.0,0,False
2023-07-18,1.039692585627745,1.039692585627745,0.0,0,False
2023-07-19,1.039692585627745,1.039692585627745,0.0,0,False
2023-07-20,1.039692585627745,1.039692585627745,0.0,0,False
2023-07-21,1.039692585627745,1.039692585627745,0.0,0,False
2023-07-22,1.039692585627745,1.039692585627745,0.0,0,False
2023-07-23,1.039692585627745,1.039692585627745,0.0,0,False
2023-07-24,1.039692585627745,1.0396645484362173,-0.0026966809146600212,1,True
2023-07-25,1.0396645484362173,1.0399396970287416,0.026465131752173576,0,True
2023-07-26,1.0399396970287416,1.0399396970287416,0.0,0,False
2023-07-27,1.0399396970287416,1.0399396970287416,0.0,0,False
2023-07-28,1.0399396970287416,1.0399396970287416,0.0,0,False
2023-07-29,1.0399396970287416,1.0399396970287416,0.0,0,False
2023-07-30,1.0399396970287416,1.0399396970287416,0.0,0,False
2023-07-31,1.0399396970287416,1.0399396970287416,0.0,0,False
2023-08-01,1.0399396970287416,1.0399396970287416,0.0,0,False
2023-08-02,1.0399396970287416,1.0399396970287416,0.0,0,False
2023-08-03,1.0399396970287416,1.0399396970287416,0.0,0,False
2023-08-04,1.0399396970287416,1.0399396970287416,0.0,0,False
2023-08-05,1.0399396970287416,1.0399396970287416,0.0,0,False
2023-08-06,1.0399396970287416,1.0399396970287416,0.0,0,False
2023-08-07,1.0399396970287416,1.0399396970287416,0.0,0,False
2023-08-08,1.0399396970287416,1.0399396970287416,0.0,0,False
2023-08-09,1.0399396970287416,1.0399396970287416,0.0,0,False
2023-08-10,1.0399396970287416,1.0399396970287416,0.0,0,False
2023-08-11,1.0399396970287416,1.0399396970287416,0.0,0,False
2023-08-12,1.0399396970287416,1.0399396970287416,0.0,0,False
2023-08-13,1.0399396970287416,1.0399396970287416,0.0,0,False
2023-08-14,1.0399396970287416,1.0399396970287416,0.0,0,False
2023-08-15,1.0399396970287416,1.0399396970287416,0.0,0,False
2023-08-16,1.0399396970287416,1.043344982417774,0.32745027416127837,4,True
2023-08-17,1.043344982417774,1.043344982417774,0.0,0,False
2023-08-18,1.043344982417774,1.0758688304943047,3.117266927489526,4,True
2023-08-19,1.0758688304943047,1.0758688304943047,0.0,0,False
2023-08-20,1.0758688304943047,1.0758688304943047,0.0,0,False
2023-08-21,1.0758688304943047,1.0758688304943047,0.0,0,False
2023-08-22,1.0758688304943047,1.0758688304943047,0.0,0,False
2023-08-23,1.0758688304943047,1.0758688304943047,0.0,0,False
2023-08-24,1.0758688304943047,1.0758688304943047,0.0,0,False
2023-08-25,1.0758688304943047,1.0611038677909364,-1.3723757287944283,3,True
2023-08-26,1.0611038677909364,1.0611038677909364,0.0,0,False
2023-08-27,1.0611038677909364,1.0611038677909364,0.0,0,False
2023-08-28,1.0611038677909364,1.0611038677909364,0.0,0,False
2023-08-29,1.0611038677909364,1.0611038677909364,0.0,0,False
2023-08-30,1.0611038677909364,1.0611038677909364,0.0,0,False
2023-08-31,1.0611038677909364,1.0611038677909364,0.0,0,False
2023-09-01,1.0611038677909364,1.0611038677909364,0.0,0,False
2023-09-02,1.0611038677909364,1.0611038677909364,0.0,0,False
2023-09-03,1.0611038677909364,1.0611038677909364,0.0,0,False
2023-09-04,1.0611038677909364,1.0611038677909364,0.0,0,False
2023-09-05,1.0611038677909364,1.0611038677909364,0.0,0,False
2023-09-06,1.0611038677909364,1.0611038677909364,0.0,0,False
2023-09-07,1.0611038677909364,1.0611038677909364,0.0,0,False
2023-09-08,1.0611038677909364,1.0611038677909364,0.0,0,False
2023-09-09,1.0611038677909364,1.0611038677909364,0.0,0,False
2023-09-10,1.0611038677909364,1.0603546021032206,-0.07061190807602369,1,True
2023-09-11,1.0603546021032206,1.0599071979781276,-0.04219382121845028,0,True
2023-09-12,1.0599071979781276,1.0599071979781276,0.0,0,False
2023-09-13,1.0599071979781276,1.0599071979781276,0.0,0,False
2023-09-14,1.0599071979781276,1.0599071979781276,0.0,0,False
2023-09-15,1.0599071979781276,1.0599071979781276,0.0,0,False
2023-09-16,1.0599071979781276,1.0599071979781276,0.0,0,False
2023-09-17,1.0599071979781276,1.0599071979781276,0.0,0,False
2023-09-18,1.0599071979781276,1.0599071979781276,0.0,0,False
2023-09-19,1.0599071979781276,1.0599071979781276,0.0,0,False
2023-09-20,1.0599071979781276,1.0599071979781276,0.0,0,False
2023-09-21,1.0599071979781276,1.0599071979781276,0.0,0,False
2023-09-22,1.0599071979781276,1.0599071979781276,0.0,0,False
2023-09-23,1.0599071979781276,1.0599071979781276,0.0,0,False
2023-09-24,1.0599071979781276,1.0599071979781276,0.0,0,False
2023-09-25,1.0599071979781276,1.0599071979781276,0.0,0,False
2023-09-26,1.0599071979781276,1.0599071979781276,0.0,0,False
2023-09-27,1.0599071979781276,1.0599071979781276,0.0,0,False
2023-09-28,1.0599071979781276,1.0599071979781276,0.0,0,False
2023-09-29,1.0599071979781276,1.0599071979781276,0.0,0,False
2023-09-30,1.0599071979781276,1.0599071979781276,0.0,0,False
2023-10-01,1.0599071979781276,1.0599071979781276,0.0,0,False
2023-10-02,1.0599071979781276,1.0599071979781276,0.0,0,False
2023-10-03,1.0599071979781276,1.0602177975765077,0.029304414478237284,1,True
2023-10-04,1.0602177975765077,1.0546078213789984,-0.529134316584079,0,True
2023-10-05,1.0546078213789984,1.0546078213789984,0.0,0,False
2023-10-06,1.0546078213789984,1.0546078213789984,0.0,0,False
2023-10-07,1.0546078213789984,1.0546078213789984,0.0,0,False
2023-10-08,1.0546078213789984,1.0546078213789984,0.0,0,False
2023-10-09,1.0546078213789984,1.0546078213789984,0.0,0,False
2023-10-10,1.0546078213789984,1.0546078213789984,0.0,0,False
2023-10-11,1.0546078213789984,1.0546078213789984,0.0,0,False
2023-10-12,1.0546078213789984,1.0546078213789984,0.0,0,False
2023-10-13,1.0546078213789984,1.0546078213789984,0.0,0,False
2023-10-14,1.0546078213789984,1.0546078213789984,0.0,0,False
2023-10-15,1.0546078213789984,1.0546078213789984,0.0,0,False
2023-10-16,1.0546078213789984,1.0546078213789984,0.0,0,False
2023-10-17,1.0546078213789984,1.0546078213789984,0.0,0,False
2023-10-18,1.0546078213789984,1.0546078213789984,0.0,0,False
2023-10-19,1.0546078213789984,1.0493427239528226,-0.49924695412283393,1,True
2023-10-20,1.0493427239528226,1.0493427239528226,0.0,0,False
2023-10-21,1.0493427239528226,1.0501333553986072,0.07534539743185853,1,True
2023-10-22,1.0501333553986072,1.0501333553986072,0.0,0,False
2023-10-23,1.0501333553986072,1.0501333553986072,0.0,0,False
2023-10-24,1.0501333553986072,1.0501333553986072,0.0,0,False
2023-10-25,1.0501333553986072,1.0501333553986072,0.0,0,False
2023-10-26,1.0501333553986072,1.0501333553986072,0.0,0,False
2023-10-27,1.0501333553986072,1.0509106419433647,0.0740178893243959,1,True
2023-10-28,1.0509106419433647,1.0519473159865835,0.09864530834913232,0,True
2023-10-29,1.0519473159865835,1.0519473159865835,0.0,0,False
2023-10-30,1.0519473159865835,1.0519473159865835,0.0,0,False
2023-10-31,1.0519473159865835,1.0519473159865835,0.0,0,False
2023-11-01,1.0519473159865835,1.0519473159865835,0.0,0,False
2023-11-02,1.0519473159865835,1.0519473159865835,0.0,0,False
2023-11-03,1.0519473159865835,1.0519473159865835,0.0,0,False
2023-11-04,1.0519473159865835,1.0519473159865835,0.0,0,False
2023-11-05,1.0519473159865835,1.0519473159865835,0.0,0,False
2023-11-06,1.0519473159865835,1.0519473159865835,0.0,0,False
2023-11-07,1.0519473159865835,1.0519473159865835,0.0,0,False
2023-11-08,1.0519473159865835,1.0519473159865835,0.0,0,False
2023-11-09,1.0519473159865835,1.0519473159865835,0.0,0,False
2023-11-10,1.0519473159865835,1.0664423654811825,1.3779254221495618,4,True
2023-11-11,1.0664423654811825,1.0664423654811825,0.0,0,False
2023-11-12,1.0664423654811825,1.0664423654811825,0.0,0,False
2023-11-13,1.0664423654811825,1.0664423654811825,0.0,0,False
2023-11-14,1.0664423654811825,1.0664423654811825,0.0,0,False
2023-11-15,1.0664423654811825,1.0664423654811825,0.0,0,False
2023-11-16,1.0664423654811825,1.0664423654811825,0.0,0,False
2023-11-17,1.0664423654811825,1.0664423654811825,0.0,0,False
2023-11-18,1.0664423654811825,1.0664423654811825,0.0,0,False
2023-11-19,1.0664423654811825,1.0664423654811825,0.0,0,False
2023-11-20,1.0664423654811825,1.0664423654811825,0.0,0,False
2023-11-21,1.0664423654811825,1.0664423654811825,0.0,0,False
2023-11-22,1.0664423654811825,1.0664423654811825,0.0,0,False
2023-11-23,1.0664423654811825,1.0664423654811825,0.0,0,False
2023-11-24,1.0664423654811825,1.0664423654811825,0.0,0,False
2023-11-25,1.0664423654811825,1.0664423654811825,0.0,0,False
2023-11-26,1.0664423654811825,1.0664423654811825,0.0,0,False
2023-11-27,1.0664423654811825,1.0664423654811825,0.0,0,False
2023-11-28,1.0664423654811825,1.0664423654811825,0.0,0,False
2023-11-29,1.0664423654811825,1.0664423654811825,0.0,0,False
2023-11-30,1.0664423654811825,1.0664423654811825,0.0,0,False
2023-12-01,1.0664423654811825,1.0664423654811825,0.0,0,False
2023-12-02,1.0664423654811825,1.0664423654811825,0.0,0,False
2023-12-03,1.0664423654811825,1.0671025284948226,0.061903299700794,1,True
2023-12-04,1.0671025284948226,1.074770286223471,0.7185586692840085,4,True
2023-12-05,1.074770286223471,1.079293484805922,0.4208525896584492,0,True
2023-12-06,1.079293484805922,1.079293484805922,0.0,0,False
2023-12-07,1.079293484805922,1.079293484805922,0.0,0,False
2023-12-08,1.079293484805922,1.079293484805922,0.0,0,False
2023-12-09,1.079293484805922,1.079293484805922,0.0,0,False
2023-12-10,1.079293484805922,1.079293484805922,0.0,0,False
2023-12-11,1.079293484805922,1.0906220467281305,1.0496275648551379,4,True
2023-12-12,1.0906220467281305,1.0906220467281305,0.0,0,False
2023-12-13,1.0906220467281305,1.0906220467281305,0.0,0,False
2023-12-14,1.0906220467281305,1.0906220467281305,0.0,0,False
2023-12-15,1.0906220467281305,1.0906220467281305,0.0,0,False
2023-12-16,1.0906220467281305,1.0906220467281305,0.0,0,False
2023-12-17,1.0906220467281305,1.0906220467281305,0.0,0,False
2023-12-18,1.0906220467281305,1.0906220467281305,0.0,0,False
2023-12-19,1.0906220467281305,1.0906220467281305,0.0,0,False
2023-12-20,1.0906220467281305,1.0906220467281305,0.0,0,False
2023-12-21,1.0906220467281305,1.0906220467281305,0.0,0,False
2023-12-22,1.0906220467281305,1.0906220467281305,0.0,0,False
2023-12-23,1.0906220467281305,1.0906220467281305,0.0,0,False
2023-12-24,1.0906220467281305,1.0894449675037792,-0.1079273271508252,1,True
2023-12-25,1.0894449675037792,1.092050025440621,0.2391179008160993,0,True
2023-12-26,1.092050025440621,1.092050025440621,0.0,0,False
2023-12-27,1.092050025440621,1.086596330897521,-0.4993996992856964,1,True
2023-12-28,1.086596330897521,1.086596330897521,0.0,0,False
2023-12-29,1.086596330897521,1.086596330897521,0.0,0,False
2023-12-30,1.086596330897521,1.086596330897521,0.0,0,False
2023-12-31,1.086596330897521,1.086596330897521,0.0,0,False
