day,start_equity,end_equity,return_pct,entries,active
2024-01-02,1.0,0.9985290200988501,-0.14709799011498603,1,True
2024-01-03,0.9985290200988501,0.9938446512759953,-0.4691269586126867,9,True
2024-01-04,0.9938446512759953,1.0129172030898006,1.9190677123751776,7,True
2024-01-05,1.0129172030898006,0.9980307856927605,-1.4696578705180041,4,True
2024-01-06,0.9980307856927605,0.9919957210461454,-0.6046972431242192,7,True
2024-01-07,0.9919957210461454,0.9831960795695666,-0.8870644590380783,3,True
2024-01-08,0.9831960795695666,0.981545361845174,-0.1678930336169726,8,True
2024-01-09,0.981545361845174,0.9795557673727394,-0.2027002062028438,0,True
2024-01-10,0.9795557673727394,0.9782993445498572,-0.12826455264022263,4,True
2024-01-11,0.9782993445498572,0.9796258179398686,0.13558972490386179,3,True
2024-01-12,0.9796258179398686,0.9719978001778572,-0.7786664685964451,7,True
2024-01-13,0.9719978001778572,0.9652515183937896,-0.6940634827396819,10,True
2024-01-14,0.9652515183937896,0.9718674685753015,0.6854120460251689,0,True
2024-01-15,0.9718674685753015,0.9671439861222835,-0.48602125348864433,2,True
2024-01-16,0.9671439861222835,0.9667409072763588,-0.04167723231582876,1,True
2024-01-17,0.9667409072763588,0.9696123567030221,0.29702368080744,0,True
2024-01-18,0.9696123567030221,0.9673041788315443,-0.23805161470160652,1,True
2024-01-19,0.9673041788315443,0.9637559677071662,-0.3668144108158522,1,True
2024-01-20,0.9637559677071662,0.9888058909636877,2.5991977321932147,7,True
2024-01-21,0.9888058909636877,0.9880625151954298,-0.07517914031978101,1,True
2024-01-22,0.9880625151954298,0.9710607175756178,-1.7207208408720032,4,True
2024-01-23,0.9710607175756178,0.949156330413081,-2.2557175639051796,9,True
2024-01-24,0.949156330413081,0.9516047337355802,0.2579557491265483,1,True
2024-01-25,0.9516047337355802,0.9464480529422561,-0.5418931422378703,2,True
2024-01-26,0.9464480529422561,0.9464480529422561,0.0,0,False
2024-01-27,0.9464480529422561,0.9464480529422561,0.0,0,False
2024-01-28,0.9464480529422561,0.9438756805849118,-0.27179223934662433,2,True
2024-01-29,0.9438756805849118,0.9438756805849118,0.0,0,False
2024-01-30,0.9438756805849118,0.9438756805849118,0.0,0,False
2024-01-31,0.9438756805849118,0.9396285040052108,-0.449972032023227,1,True
2024-02-01,0.9396285040052108,0.9396285040052108,0.0,0,False
2024-02-02,0.9396285040052108,0.9393771731239468,-0.026747898791146252,2,True
2024-02-03,0.9393771731239468,0.9489679988682928,1.0209770919226369,1,True
2024-02-04,0.9489679988682928,0.9465936907617467,-0.2501989644938085,1,True
2024-02-05,0.9465936907617467,0.9465936907617467,0.0,0,False
2024-02-06,0.9465936907617467,0.9402431360324975,-0.6708849627065194,2,True
2024-02-07,0.9402431360324975,0.9377918670928108,-0.2607058584899846,4,True
2024-02-08,0.9377918670928108,0.9556373199306496,1.902922542201213,1,True
2024-02-09,0.9556373199306496,0.968852291759859,1.3828438418634015,0,True
2024-02-10,0.968852291759859,0.9631225329367769,-0.5913965288428469,2,True
2024-02-11,0.9631225329367769,0.9618983072010123,-0.12711007103443084,0,True
2024-02-12,0.9618983072010123,0.9628323532588882,0.09710444969943666,1,True
2024-02-13,0.9628323532588882,0.9628323532588882,0.0,0,False
2024-02-14,0.9628323532588882,0.9646124885059161,0.1848852753028929,2,True
2024-02-15,0.9646124885059161,0.979333758125076,1.5261330113983451,1,True
2024-02-16,0.979333758125076,0.978948145653378,-0.03937498003093731,3,True
2024-02-17,0.978948145653378,0.976186388288724,-0.28211477563101495,5,True
2024-02-18,0.976186388288724,0.9836596104381594,0.7655527918737137,1,True
2024-02-19,0.9836596104381594,0.9840405240587317,0.0387241294173446,2,True
2024-02-20,0.9840405240587317,0.9828369251019266,-0.12231192998443108,10,True
2024-02-21,0.9828369251019266,0.9701414282397673,-1.2917195658722957,7,True
2024-02-22,0.9701414282397673,0.9957759581668005,2.642349783324338,4,True
2024-02-23,0.9957759581668005,0.9905730205979767,-0.5225008222132899,3,True
2024-02-24,0.9905730205979767,0.9803537912756339,-1.0316482591231635,8,True
2024-02-25,0.9803537912756339,0.9629829654311697,-1.7718935754674203,4,True
2024-02-26,0.9629829654311697,0.9551548087396999,-0.8129070785758641,5,True
2024-02-27,0.9551548087396999,0.9551396746154782,-0.0015844682017207568,3,True
2024-02-28,0.9551396746154782,0.9893807356268864,3.5849270972010405,5,True
2024-02-29,0.9893807356268864,1.0005173344664375,1.1256130666921438,8,True
2024-03-01,1.0005173344664375,0.9991930260719815,-0.1323623638327387,6,True
2024-03-02,0.9991930260719815,0.9966681267074717,-0.25269385380276566,5,True
2024-03-03,0.9966681267074717,1.0044687604288849,0.7826711331868186,10,True
2024-03-04,1.0044687604288849,1.0134047429303719,0.8896227392548806,1,True
2024-03-05,1.0134047429303719,1.0428858407315442,2.9091138567128194,12,True
2024-03-06,1.0428858407315442,1.0239281079350993,-1.8178147651469523,16,True
2024-03-07,1.0239281079350993,1.025106166356628,0.11505284525341608,5,True
2024-03-08,1.025106166356628,1.022419599367286,-0.26207695139426335,5,True
2024-03-09,1.022419599367286,1.0094243155073241,-1.2710323499279363,5,True
2024-03-10,1.0094243155073241,1.020673510604376,1.1144168932960774,9,True
2024-03-11,1.020673510604376,1.0309268178158804,1.0045628798020845,3,True
2024-03-12,1.0309268178158804,1.030495729520371,-0.041815605924644395,4,True
2024-03-13,1.030495729520371,1.0449850787886215,1.4060562167486523,5,True
2024-03-14,1.0449850787886215,1.046150334652238,0.11150933035017907,5,True
2024-03-15,1.046150334652238,1.0285875725410232,-1.6787990721288781,18,True
2024-03-16,1.0285875725410232,1.0256957515028862,-0.2811448548802775,3,True
2024-03-17,1.0256957515028862,1.0139856509519165,-1.141673886609318,8,True
2024-03-18,1.0139856509519165,1.0163720882571203,0.235352177120407,4,True
2024-03-19,1.0163720882571203,0.9736374637169067,-4.20462397914676,16,True
2024-03-20,0.9736374637169067,0.9593093152082607,-1.4716102289190514,4,True
2024-03-21,0.9593093152082607,0.9546768126752134,-0.4828997758706821,4,True
2024-03-22,0.9546768126752134,0.953177067785228,-0.1570945130407786,9,True
2024-03-23,0.953177067785228,0.95788101523394,0.4935019533822693,7,True
2024-03-24,0.95788101523394,0.951869964795118,-0.627536232916559,4,True
2024-03-25,0.951869964795118,0.9611109487583278,0.9708241992065547,4,True
2024-03-26,0.9611109487583278,0.9866269373060673,2.6548431875325074,5,True
2024-03-27,0.9866269373060673,0.9814477473722566,-0.5249390360202666,7,True
2024-03-28,0.9814477473722566,0.9711670709194354,-1.047501151268293,2,True
2024-03-29,0.9711670709194354,0.9664362693933006,-0.4871254048653073,6,True
2024-03-30,0.9664362693933006,0.9569282459156969,-0.9838231219915339,2,True
2024-03-31,0.9569282459156969,0.9569282459156969,0.0,0,False
2024-04-01,0.9569282459156969,0.958389099902724,0.15266076565951803,5,True
2024-04-02,0.958389099902724,0.9539353484873401,-0.46471223596303846,6,True
2024-04-03,0.9539353484873401,0.9461689049058996,-0.8141477924846541,3,True
2024-04-04,0.9461689049058996,0.9455779754614495,-0.06245496352564883,1,True
2024-04-05,0.9455779754614495,0.9379997636643002,-0.8014370040134611,5,True
2024-04-06,0.9379997636643002,0.9361780460407608,-0.19421301519552125,1,True
2024-04-07,0.9361780460407608,0.9492555676039786,1.3969053876583093,3,True
2024-04-08,0.9492555676039786,0.9425152364987689,-0.7100649535533354,1,True
2024-04-09,0.9425152364987689,0.9310144836350311,-1.2202193045133591,3,True
2024-04-10,0.9310144836350311,0.9261771341728153,-0.5195783252832986,5,True
2024-04-11,0.9261771341728153,0.9283441109004463,0.23397000937259715,1,True
2024-04-12,0.9283441109004463,0.9160985508214974,-1.3190755383875263,9,True
2024-04-13,0.9160985508214974,0.897830490456839,-1.9941151908030808,13,True
2024-04-14,0.897830490456839,0.8757481545789974,-2.459521715129731,16,True
2024-04-15,0.8757481545789974,0.8743242293873482,-0.16259528315348826,4,True
2024-04-16,0.8743242293873482,0.8697015018127092,-0.5287200582189344,1,True
2024-04-17,0.8697015018127092,0.8729500873934434,0.3735287997046255,1,True
2024-04-18,0.8729500873934434,0.8710001047607109,-0.22337847958238122,1,True
2024-04-19,0.8710001047607109,0.881789474196683,1.2387334257481175,5,True
2024-04-20,0.881789474196683,0.882707023275045,0.1040553448653947,0,True
2024-04-21,0.882707023275045,0.882707023275045,0.0,0,False
2024-04-22,0.882707023275045,0.882707023275045,0.0,0,False
2024-04-23,0.882707023275045,0.895730394722609,1.475390033631352,3,True
2024-04-24,0.895730394722609,0.8932703454956353,-0.27464170485533845,3,True
2024-04-25,0.8932703454956353,0.8946459220228452,0.15399330495480257,2,True
2024-04-26,0.8946459220228452,0.893993088140662,-0.07297120191495088,2,True
2024-04-27,0.893993088140662,0.8926342928966852,-0.15199169456699968,6,True
2024-04-28,0.8926342928966852,0.8933673092823596,0.082118331270431,3,True
2024-04-29,0.8933673092823596,0.8981766433521675,0.5383378169133257,2,True
2024-04-30,0.8981766433521675,0.8895722014541304,-0.9579899412573978,2,True
2024-05-01,0.8895722014541304,0.8793619825356169,-1.1477673090305007,6,True
2024-05-02,0.8793619825356169,0.8761771033011169,-0.36218068301253625,4,True
2024-05-03,0.8761771033011169,0.8736703535452502,-0.286100806152334,1,True
2024-05-04,0.8736703535452502,0.8743468548650695,0.07743210205932716,0,True
2024-05-05,0.8743468548650695,0.8726973325314442,-0.18865766193896238,1,True
2024-05-06,0.8726973325314442,0.8726973325314442,0.0,0,False
2024-05-07,0.8726973325314442,0.8765610036472625,0.4427275037739431,3,True
2024-05-08,0.8765610036472625,0.8798148800741109,0.37120935260746,3,True
2024-05-09,0.8798148800741109,0.8732943739527483,-0.741122509864045,1,True
2024-05-10,0.8732943739527483,0.8715766770481043,-0.19669162608586532,2,True
2024-05-11,0.8715766770481043,0.8653923758512116,-0.7095533140971444,4,True
2024-05-12,0.8653923758512116,0.8593968201689975,-0.6928135548128433,1,True
2024-05-13,0.8593968201689975,0.8598070088693014,0.04772983686665011,5,True
2024-05-14,0.8598070088693014,0.8598130536148139,0.0007030351520942446,4,True
2024-05-15,0.8598130536148139,0.8650483885264433,0.6088922341454417,3,True
2024-05-16,0.8650483885264433,0.8739033896661458,1.0236422906684473,2,True
2024-05-17,0.8739033896661458,0.8739033896661458,0.0,0,False
2024-05-18,0.8739033896661458,0.8706287967514007,-0.3747088011634814,2,True
2024-05-19,0.8706287967514007,0.8705452503807096,-0.009596095489006196,0,True
2024-05-20,0.8705452503807096,0.8770368674075281,0.7456955309307123,2,True
2024-05-21,0.8770368674075281,0.8706457183144589,-0.728720687872686,2,True
2024-05-22,0.8706457183144589,0.8744867707660824,0.4411728411252813,1,True
2024-05-23,0.8744867707660824,0.8689962924468917,-0.627851501330412,6,True
2024-05-24,0.8689962924468917,0.8692720744612186,0.031735695160484134,3,True
2024-05-25,0.8692720744612186,0.8678307935038383,-0.16580320474157695,0,True
2024-05-26,0.8678307935038383,0.8727333708808199,0.5649231870636484,3,True
2024-05-27,0.8727333708808199,0.8782152311516568,0.6281254336939268,3,True
2024-05-28,0.8782152311516568,0.8878385192649517,1.0957778653730932,2,True
2024-05-29,0.8878385192649517,0.8840620600342035,-0.4253542900881091,1,True
2024-05-30,0.8840620600342035,0.8682886765976745,-1.784194136316486,5,True
2024-05-31,0.8682886765976745,0.865613751584547,-0.3080686280061862,1,True
2024-06-01,0.865613751584547,0.8612964170035555,-0.4987599345653182,2,True
2024-06-02,0.8612964170035555,0.8717334501903511,1.211781795529343,0,True
2024-06-03,0.8717334501903511,0.8601008278517257,-1.3344242252130267,5,True
2024-06-04,0.8601008278517257,0.8631866244598912,0.35877149611318604,7,True
2024-06-05,0.8631866244598912,0.8629243304328399,-0.030386711241670028,0,True
2024-06-06,0.8629243304328399,0.8600149301746374,-0.33715589601502893,2,True
2024-06-07,0.8600149301746374,0.8577047664785468,-0.2686190221862228,0,True
2024-06-08,0.8577047664785468,0.8826809344346018,2.9119772831156077,7,True
2024-06-09,0.8826809344346018,0.8895432172141795,0.7774363886055013,1,True
2024-06-10,0.8895432172141795,0.8887044431173746,-0.09429267522624851,0,True
2024-06-11,0.8887044431173746,0.8863898893477121,-0.2604413410541295,2,True
2024-06-12,0.8863898893477121,0.8816704570618561,-0.532433000711352,3,True
2024-06-13,0.8816704570618561,0.8730887915968539,-0.9733416149158902,4,True
2024-06-14,0.8730887915968539,0.8611650501852064,-1.3656963102045228,6,True
2024-06-15,0.8611650501852064,0.8689346115723171,0.9022151311690818,5,True
2024-06-16,0.8689346115723171,0.8699615639255084,0.11818522815347787,0,True
2024-06-17,0.8699615639255084,0.8601557589350487,-1.1271538188667996,4,True
2024-06-18,0.8601557589350487,0.8658138432721006,0.6577976463306046,5,True
2024-06-19,0.8658138432721006,0.8604168530152373,-0.623343031391943,2,True
2024-06-20,0.8604168530152373,0.8603429041084664,-0.008594544203988086,1,True
2024-06-21,0.8603429041084664,0.8566900563183757,-0.42458045189271987,1,True
2024-06-22,0.8566900563183757,0.8599300003010086,0.37819325189283326,2,True
2024-06-23,0.8599300003010086,0.8600537322499087,0.014388607079274252,2,True
2024-06-24,0.8600537322499087,0.86041624815291,0.042150378448213566,1,True
2024-06-25,0.86041624815291,0.8696460979675836,1.0727191443080875,0,True
2024-06-26,0.8696460979675836,0.8696460979675836,0.0,0,False
2024-06-27,0.8696460979675836,0.8656683407265859,-0.4573995387657015,2,True
2024-06-28,0.8656683407265859,0.8656464187145081,-0.002532380017439273,2,True
2024-06-29,0.8656464187145081,0.8497928363898928,-1.8314154580756026,5,True
2024-06-30,0.8497928363898928,0.8467537889424147,-0.35762215416978993,0,True
2024-07-01,0.8467537889424147,0.8397217773774275,-0.8304670917115287,2,True
2024-07-02,0.8397217773774275,0.8397217773774275,0.0,0,False
2024-07-03,0.8397217773774275,0.8375232642244541,-0.26181447381770084,1,True
2024-07-04,0.8375232642244541,0.8316546479857081,-0.7007108326931522,5,True
2024-07-05,0.8316546479857081,0.789314124923579,-5.091118430550356,19,True
2024-07-06,0.789314124923579,0.7945883050981893,0.6681978705399327,3,True
2024-07-07,0.7945883050981893,0.7957807126724459,0.1500660866269765,2,True
2024-07-08,0.7957807126724459,0.7967832231293837,0.1259782300542467,2,True
2024-07-09,0.7967832231293837,0.8084437691800209,1.463452757556838,2,True
2024-07-10,0.8084437691800209,0.8093761218084015,0.11532683705710589,1,True
2024-07-11,0.8093761218084015,0.7999222620609541,-1.168042828632565,2,True
2024-07-12,0.7999222620609541,0.7999222620609541,0.0,0,False
2024-07-13,0.7999222620609541,0.7989734508538443,-0.11861292679431479,2,True
2024-07-14,0.7989734508538443,0.8156601680487159,2.088519609386119,1,True
2024-07-15,0.8156601680487159,0.8181252243369985,0.3022160925400863,0,True
2024-07-16,0.8181252243369985,0.8150282297766603,-0.37854774161839577,3,True
2024-07-17,0.8150282297766603,0.8109589941007562,-0.49927542718603,1,True
2024-07-18,0.8109589941007562,0.8109589941007562,0.0,0,False
2024-07-19,0.8109589941007562,0.8052044445876989,-0.7095980875627794,2,True
2024-07-20,0.8052044445876989,0.8061360065888235,0.11569260544774806,1,True
2024-07-21,0.8061360065888235,0.8058985064622594,-0.029461545523701282,1,True
2024-07-22,0.8058985064622594,0.8064841802994581,0.07267339900773884,1,True
2024-07-23,0.8064841802994581,0.8058899976119148,-0.07367567796837671,3,True
2024-07-24,0.8058899976119148,0.8050303868152768,-0.10666602131621516,1,True
2024-07-25,0.8050303868152768,0.8032192246572132,-0.22498059548144989,3,True
2024-07-26,0.8032192246572132,0.7975476126065594,-0.7061100975358614,0,True
2024-07-27,0.7975476126065594,0.8008093662970219,0.40897291132280245,2,True
2024-07-28,0.8008093662970219,0.7942910025961252,-0.8139719607723861,2,True
2024-07-29,0.7942910025961252,0.7942910025961252,0.0,0,False
2024-07-30,0.7942910025961252,0.7909334100872418,-0.42271566691667317,2,True
2024-07-31,0.7909334100872418,0.7804847950975324,-1.3210486314589875,8,True
2024-08-01,0.7804847950975324,0.7767936597733953,-0.47292853715054095,1,True
2024-08-02,0.7767936597733953,0.767322984343753,-1.2192009178351282,4,True
2024-08-03,0.767322984343753,0.7624755578495043,-0.6317322161794037,7,True
2024-08-04,0.7624755578495043,0.7479174996792294,-1.9093147341450067,5,True
2024-08-05,0.7479174996792294,0.7238136316500169,-3.222797706906211,16,True
2024-08-06,0.7238136316500169,0.723870094385487,0.007800728392104439,0,True
2024-08-07,0.723870094385487,0.7236285224139304,-0.033372282323895774,1,True
2024-08-08,0.7236285224139304,0.7203561168652162,-0.4522217473957313,0,True
2024-08-09,0.7203561168652162,0.7203561168652162,0.0,0,False
2024-08-10,0.7203561168652162,0.7203561168652162,0.0,0,False
2024-08-11,0.7203561168652162,0.7199140364224703,-0.06136970762039562,1,True
2024-08-12,0.7199140364224703,0.7209868775401486,0.14902350327958835,1,True
2024-08-13,0.7209868775401486,0.7184204557615204,-0.3559595685547423,0,True
2024-08-14,0.7184204557615204,0.7184204557615204,0.0,0,False
2024-08-15,0.7184204557615204,0.7184204557615204,0.0,0,False
2024-08-16,0.7184204557615204,0.7184204557615204,0.0,0,False
2024-08-17,0.7184204557615204,0.739367061181887,2.9156471328706024,1,True
2024-08-18,0.739367061181887,0.7566946175466093,2.3435661763216764,1,True
2024-08-19,0.7566946175466093,0.7469762078588698,-1.2843238821030556,3,True
2024-08-20,0.7469762078588698,0.7418960140088315,-0.6801011593930206,2,True
2024-08-21,0.7418960140088315,0.7418960140088315,0.0,0,False
2024-08-22,0.7418960140088315,0.7423755223742804,0.06463282675666093,1,True
2024-08-23,0.7423755223742804,0.7428838175969378,0.0684687475998258,0,True
2024-08-24,0.7428838175969378,0.7410504622968691,-0.2467889670822454,2,True
2024-08-25,0.7410504622968691,0.7394019595925418,-0.22245485134949616,2,True
2024-08-26,0.7394019595925418,0.7415673666018199,0.29285924674467,2,True
2024-08-27,0.7415673666018199,0.7366754501771596,-0.6596725590929275,1,True
2024-08-28,0.7366754501771596,0.7369418393480478,0.03616099475340917,4,True
2024-08-29,0.7369418393480478,0.7373599241802424,0.05673240544525893,3,True
2024-08-30,0.7373599241802424,0.7395362676070678,0.2951534732844152,0,True
2024-08-31,0.7395362676070678,0.7395362676070678,0.0,0,False
2024-09-01,0.7395362676070678,0.7358515500652268,-0.49824703712824103,1,True
2024-09-02,0.7358515500652268,0.7369652088462425,0.15134285997182584,1,True
2024-09-03,0.7369652088462425,0.737117327628597,0.02064124337601836,0,True
2024-09-04,0.737117327628597,0.737117327628597,0.0,0,False
2024-09-05,0.737117327628597,0.737117327628597,0.0,0,False
2024-09-06,0.737117327628597,0.7370070556922804,-0.014959889312515795,1,True
2024-09-07,0.7370070556922804,0.7359951123563231,-0.13730442987507363,0,True
2024-09-08,0.7359951123563231,0.7359951123563231,0.0,0,False
2024-09-09,0.7359951123563231,0.7359951123563231,0.0,0,False
2024-09-10,0.7359951123563231,0.7359951123563231,0.0,0,False
2024-09-11,0.7359951123563231,0.7286729272971567,-0.9948687071744344,2,True
2024-09-12,0.7286729272971567,0.7286729272971567,0.0,0,False
2024-09-13,0.7286729272971567,0.7268212797455635,-0.2541123022727687,1,True
2024-09-14,0.7268212797455635,0.7268212797455635,0.0,0,False
2024-09-15,0.7268212797455635,0.7287508074462674,0.2654748497979309,2,True
2024-09-16,0.7287508074462674,0.7266375665774671,-0.2899812730507434,3,True
2024-09-17,0.7266375665774671,0.732152283670197,0.7589364142986277,1,True
2024-09-18,0.732152283670197,0.7322375298844271,0.01164323544862178,0,True
2024-09-19,0.7322375298844271,0.7318812464424996,-0.04865681249413001,1,True
2024-09-20,0.7318812464424996,0.7342921955848067,0.32941807896105235,2,True
2024-09-21,0.7342921955848067,0.7265176233016063,-1.0587845451644262,2,True
2024-09-22,0.7265176233016063,0.7323553645812444,0.8035236988620964,2,True
2024-09-23,0.7323553645812444,0.7293798358958605,-0.40629574511074074,0,True
2024-09-24,0.7293798358958605,0.7293798358958605,0.0,0,False
2024-09-25,0.7293798358958605,0.7293798358958605,0.0,0,False
2024-09-26,0.7293798358958605,0.7293798358958605,0.0,0,False
2024-09-27,0.7293798358958605,0.7293798358958605,0.0,0,False
2024-09-28,0.7293798358958605,0.7293798358958605,0.0,0,False
2024-09-29,0.7293798358958605,0.7293798358958605,0.0,0,False
2024-09-30,0.7293798358958605,0.7262704874594396,-0.4263003010772759,2,True
2024-10-01,0.7262704874594396,0.7249982795672282,-0.17516998338479306,0,True
2024-10-02,0.7249982795672282,0.7063978631041806,-2.565580772708964,13,True
2024-10-03,0.7063978631041806,0.7055448768023507,-0.1207515405102777,3,True
2024-10-04,0.7055448768023507,0.6988152061624255,-0.9538260231475526,2,True
2024-10-05,0.6988152061624255,0.6988152061624255,0.0,0,False
2024-10-06,0.6988152061624255,0.6988152061624255,0.0,0,False
2024-10-07,0.6988152061624255,0.6988152061624255,0.0,0,False
2024-10-08,0.6988152061624255,0.6937788046462171,-0.7207057705378328,2,True
2024-10-09,0.6937788046462171,0.6937788046462171,0.0,0,False
2024-10-10,0.6937788046462171,0.6937788046462171,0.0,0,False
2024-10-11,0.6937788046462171,0.6930979791134568,-0.09813293923088828,1,True
2024-10-12,0.6930979791134568,0.6933786890103916,0.040500752475680635,1,True
2024-10-13,0.6933786890103916,0.6933786890103916,0.0,0,False
2024-10-14,0.6933786890103916,0.6933786890103916,0.0,0,False
2024-10-15,0.6933786890103916,0.6935950320080491,0.031201275880898827,1,True
2024-10-16,0.6935950320080491,0.6893989968722379,-0.604969029790059,5,True
2024-10-17,0.6893989968722379,0.6872340531459927,-0.3140334894694452,2,True
2024-10-18,0.6872340531459927,0.6877237507556427,0.07125630742659261,2,True
2024-10-19,0.6877237507556427,0.6782570379796327,-1.376528404844013,3,True
2024-10-20,0.6782570379796327,0.6773936597528404,-0.12729366279251586,2,True
2024-10-21,0.6773936597528404,0.6841060261988241,0.990910728103489,2,True
2024-10-22,0.6841060261988241,0.6826063194348964,-0.21922139354052517,0,True
2024-10-23,0.6826063194348964,0.6791978578032373,-0.4993305122754865,1,True
2024-10-24,0.6791978578032373,0.6744082419270337,-0.7051871293726975,3,True
2024-10-25,0.6744082419270337,0.673377476514804,-0.1528399785394874,2,True
2024-10-26,0.673377476514804,0.6649587873034235,-1.2502184146331974,10,True
2024-10-27,0.6649587873034235,0.6613205173601279,-0.5471421707275659,2,True
2024-10-28,0.6613205173601279,0.658856901009211,-0.3725298529601351,1,True
2024-10-29,0.658856901009211,0.6705880917843472,1.780536981120906,2,True
2024-10-30,0.6705880917843472,0.6728934456628344,0.3437809150999005,0,True
2024-10-31,0.6728934456628344,0.6728934456628344,0.0,0,False
2024-11-01,0.6728934456628344,0.6701952920749036,-0.4009778376237505,3,True
2024-11-02,0.6701952920749036,0.6697019915136181,-0.0736054948637821,1,True
2024-11-03,0.6697019915136181,0.668531105399014,-0.17483688706939615,2,True
2024-11-04,0.668531105399014,0.6781883133525816,1.444541304896152,4,True
2024-11-05,0.6781883133525816,0.6730923293435027,-0.7514113571033376,1,True
2024-11-06,0.6730923293435027,0.6731197581935274,0.004075050157159588,2,True
2024-11-07,0.6731197581935274,0.6718074144399518,-0.194964378567275,2,True
2024-11-08,0.6718074144399518,0.6706687759454082,-0.1694888252302018,2,True
2024-11-09,0.6706687759454082,0.6705100146837416,-0.023672081862280425,2,True
2024-11-10,0.6705100146837416,0.6796191333010861,1.3585358037703665,3,True
2024-11-11,0.6796191333010861,0.6733044802046212,-0.9291458681854659,7,True
2024-11-12,0.6733044802046212,0.6590597301282698,-2.1156476000311675,6,True
2024-11-13,0.6590597301282698,0.6585841848145421,-0.07215511614329095,2,True
2024-11-14,0.6585841848145421,0.6637595017294315,0.7858246575336292,4,True
2024-11-15,0.6637595017294315,0.6665067988546006,0.4138994798584372,8,True
2024-11-16,0.6665067988546006,0.6649780558306203,-0.22936645606728145,1,True
2024-11-17,0.6649780558306203,0.6596401020787958,-0.8027263012697405,7,True
2024-11-18,0.6596401020787958,0.659256482154898,-0.05815594332255758,2,True
2024-11-19,0.659256482154898,0.6527151489293447,-0.9922288824785963,4,True
2024-11-20,0.6527151489293447,0.6508260846127956,-0.289416343354032,1,True
2024-11-21,0.6508260846127956,0.6591362309564908,1.2768612906225663,4,True
2024-11-22,0.6591362309564908,0.6604086435490791,0.19304242929294446,5,True
2024-11-23,0.6604086435490791,0.6669070434829609,0.9839968021858381,1,True
2024-11-24,0.6669070434829609,0.6683729160543302,0.21980163288031207,13,True
2024-11-25,0.6683729160543302,0.6759337960776186,1.13123674548683,3,True
2024-11-26,0.6759337960776186,0.6710180134990764,-0.7272579958374714,5,True
2024-11-27,0.6710180134990764,0.6752349175606883,0.6284338090452257,3,True
2024-11-28,0.6752349175606883,0.677250461041735,0.2984951501512789,3,True
2024-11-29,0.677250461041735,0.6824906955431593,0.7737513376312677,5,True
2024-11-30,0.6824906955431593,0.6816324537699147,-0.1257514247225977,1,True
2024-12-01,0.6816324537699147,0.6818733737897749,0.03534456414564513,3,True
2024-12-02,0.6818733737897749,0.6883658054044325,0.952146228935935,10,True
2024-12-03,0.6883658054044325,0.6782487234779437,-1.4697246503324934,6,True
2024-12-04,0.6782487234779437,0.6939256001231917,2.3113757685911507,3,True
2024-12-05,0.6939256001231917,0.7002030172847478,0.9046239482217722,9,True
2024-12-06,0.7002030172847478,0.6994518049929574,-0.10728492640653675,2,True
2024-12-07,0.6994518049929574,0.7001998669085486,0.10694974410692115,2,True
2024-12-08,0.7001998669085486,0.6987306953408947,-0.2098217433460059,0,True
2024-12-09,0.6987306953408947,0.6968635116168335,-0.26722508922415456,3,True
2024-12-10,0.6968635116168335,0.6641781377812329,-4.6903551830064005,16,True
2024-12-11,0.6641781377812329,0.6770880138654464,1.9437369810666238,9,True
2024-12-12,0.6770880138654464,0.6763461433743656,-0.10956780741775418,0,True
2024-12-13,0.6763461433743656,0.6763461433743656,0.0,0,False
2024-12-14,0.6763461433743656,0.6763461433743656,0.0,0,False
2024-12-15,0.6763461433743656,0.669524448566935,-1.008609995674159,3,True
2024-12-16,0.669524448566935,0.6675089437842635,-0.30103527764901994,0,True
2024-12-17,0.6675089437842635,0.6675089437842635,0.0,0,False
2024-12-18,0.6675089437842635,0.6643251180776064,-0.47697124305290384,2,True
2024-12-19,0.6643251180776064,0.6596464414888581,-0.7042751299675798,10,True
2024-12-20,0.6596464414888581,0.645120823730627,-2.202030791744436,17,True
2024-12-21,0.645120823730627,0.663748903453564,2.887533472445347,2,True
2024-12-22,0.663748903453564,0.6615004752536349,-0.3387468044361741,1,True
2024-12-23,0.6615004752536349,0.6654285429581456,0.5938117736052462,3,True
2024-12-24,0.6654285429581456,0.6637506091875632,-0.25215837047252165,0,True
2024-12-25,0.6637506091875632,0.6679097646172296,0.6266141788942692,3,True
2024-12-26,0.6679097646172296,0.6630491617292987,-0.7277334672171509,1,True
2024-12-27,0.6630491617292987,0.6630491617292987,0.0,0,False
2024-12-28,0.6630491617292987,0.6597459441694762,-0.49818591900597786,1,True
2024-12-29,0.6597459441694762,0.6875128153831773,4.2087217752669215,4,True
2024-12-30,0.6875128153831773,0.6877765576488523,0.0383617962856464,2,True
2024-12-31,0.6877765576488523,0.6869932877518792,-0.11388435506592964,2,True
