day,start_equity,end_equity,return_pct,entries,active
2021-09-02,1.0,1.0,0.0,0,False
2021-09-03,1.0,1.0,0.0,0,False
2021-09-04,1.0,1.0,0.0,0,False
2021-09-05,1.0,1.0,0.0,0,False
2021-09-06,1.0,1.0,0.0,0,False
2021-09-07,1.0,1.0,0.0,0,False
2021-09-08,1.0,1.0,0.0,0,False
2021-09-09,1.0,1.0,0.0,0,False
2021-09-10,1.0,1.0,0.0,0,False
2021-09-11,1.0,1.0,0.0,0,False
2021-09-12,1.0,1.0,0.0,0,False
2021-09-13,1.0,1.0,0.0,0,False
2021-09-14,1.0,1.0,0.0,0,False
2021-09-15,1.0,1.0,0.0,0,False
2021-09-16,1.0,1.0,0.0,0,False
2021-09-17,1.0,1.0,0.0,0,False
2021-09-18,1.0,1.0,0.0,0,False
2021-09-19,1.0,1.0,0.0,0,False
2021-09-20,1.0,1.0,0.0,0,False
2021-09-21,1.0,1.0,0.0,0,False
2021-09-22,1.0,1.0,0.0,0,False
2021-09-23,1.0,1.0,0.0,0,False
2021-09-24,1.0,1.0,0.0,0,False
2021-09-25,1.0,1.0,0.0,0,False
2021-09-26,1.0,1.0,0.0,0,False
2021-09-27,1.0,1.0,0.0,0,False
2021-09-28,1.0,1.0,0.0,0,False
2021-09-29,1.0,1.0,0.0,0,False
2021-09-30,1.0,1.0,0.0,0,False
2021-10-01,1.0,1.0,0.0,0,False
2021-10-02,1.0,1.0,0.0,0,False
2021-10-03,1.0,1.0,0.0,0,False
2021-10-04,1.0,1.0,0.0,0,False
2021-10-05,1.0,1.0,0.0,0,False
2021-10-06,1.0,0.9950029632797638,-0.4997036720236214,1,True
2021-10-07,0.9950029632797638,0.9950029632797638,0.0,0,False
2021-10-08,0.9950029632797638,0.9950029632797638,0.0,0,False
2021-10-09,0.9950029632797638,0.9950029632797638,0.0,0,False
2021-10-10,0.9950029632797638,0.9950029632797638,0.0,0,False
2021-10-11,0.9950029632797638,0.9950029632797638,0.0,0,False
2021-10-12,0.9950029632797638,0.9950029632797638,0.0,0,False
2021-10-13,0.9950029632797638,1.0004023398410244,0.5426492945772798,1,True
2021-10-14,1.0004023398410244,1.0037435908105368,0.33399071917836753,0,True
2021-10-15,1.0037435908105368,1.0037435908105368,0.0,0,False
2021-10-16,1.0037435908105368,0.9999606306702636,-0.3768851103914228,1,True
2021-10-17,0.9999606306702636,1.0002050543991954,0.024443335210899697,0,True
2021-10-18,1.0002050543991954,1.0002050543991954,0.0,0,False
2021-10-19,1.0002050543991954,1.0002050543991954,0.0,0,False
2021-10-20,1.0002050543991954,1.0002050543991954,0.0,0,False
2021-10-21,1.0002050543991954,1.0002050543991954,0.0,0,False
2021-10-22,1.0002050543991954,1.0002050543991954,0.0,0,False
2021-10-23,1.0002050543991954,1.0002050543991954,0.0,0,False
2021-10-24,1.0002050543991954,1.0002050543991954,0.0,0,False
2021-10-25,1.0002050543991954,1.0044879967812383,0.428206432591538,1,True
2021-10-26,1.0044879967812383,1.0044879967812383,0.0,0,False
2021-10-27,1.0044879967812383,1.019107641095569,1.4554324552585651,4,True
2021-10-28,1.019107641095569,1.0161304402053621,-0.29213802057320715,0,True
2021-10-29,1.0161304402053621,1.0161304402053621,0.0,0,False
2021-10-30,1.0161304402053621,1.0148908753042805,-0.12198875774562801,1,True
2021-10-31,1.0148908753042805,1.0151755063121277,0.028045479053284694,0,True
2021-11-01,1.0151755063121277,1.0151755063121277,0.0,0,False
2021-11-02,1.0151755063121277,1.0151755063121277,0.0,0,False
2021-11-03,1.0151755063121277,1.0151755063121277,0.0,0,False
2021-11-04,1.0151755063121277,1.0151755063121277,0.0,0,False
2021-11-05,1.0151755063121277,1.0151755063121277,0.0,0,False
2021-11-06,1.0151755063121277,1.0151755063121277,0.0,0,False
2021-11-07,1.0151755063121277,1.0151755063121277,0.0,0,False
2021-11-08,1.0151755063121277,1.0151755063121277,0.0,0,False
2021-11-09,1.0151755063121277,1.0151755063121277,0.0,0,False
2021-11-10,1.0151755063121277,1.0151755063121277,0.0,0,False
2021-11-11,1.0151755063121277,1.0296827709166074,1.429040054086883,6,True
2021-11-12,1.0296827709166074,1.0296827709166074,0.0,0,False
2021-11-13,1.0296827709166074,1.0296827709166074,0.0,0,False
2021-11-14,1.0296827709166074,1.0296827709166074,0.0,0,False
2021-11-15,1.0296827709166074,1.0296827709166074,0.0,0,False
2021-11-16,1.0296827709166074,1.064272977530024,3.3593071177276057,4,True
2021-11-17,1.064272977530024,1.0633082327406465,-0.0906482462437852,0,True
2021-11-18,1.0633082327406465,1.05893688633065,-0.4111081129062,1,True
2021-11-19,1.05893688633065,1.057992572280323,-0.08917566877846284,0,True
2021-11-20,1.057992572280323,1.057992572280323,0.0,0,False
2021-11-21,1.057992572280323,1.057992572280323,0.0,0,False
2021-11-22,1.057992572280323,1.057992572280323,0.0,0,False
2021-11-23,1.057992572280323,1.057992572280323,0.0,0,False
2021-11-24,1.057992572280323,1.057992572280323,0.0,0,False
2021-11-25,1.057992572280323,1.057992572280323,0.0,0,False
2021-11-26,1.057992572280323,1.0629513782406272,0.4686995060481758,5,True
2021-11-27,1.0629513782406272,1.061133684065724,-0.17100445157819388,0,True
2021-11-28,1.061133684065724,1.0558338035921515,-0.49945455065246724,1,True
2021-11-29,1.0558338035921515,1.0558338035921515,0.0,0,False
2021-11-30,1.0558338035921515,1.0558338035921515,0.0,0,False
2021-12-01,1.0558338035921515,1.0529782121102687,-0.2704584255748932,1,True
2021-12-02,1.0529782121102687,1.0538325493248948,0.0811353174073659,1,True
2021-12-03,1.0538325493248948,1.0505716193726513,-0.30943530396100316,1,True
2021-12-04,1.0505716193726513,1.0192722114920496,-2.979274073603111,11,True
2021-12-05,1.0192722114920496,1.018977968595688,-0.028867940579968554,0,True
2021-12-06,1.018977968595688,1.018977968595688,0.0,0,False
2021-12-07,1.018977968595688,1.018977968595688,0.0,0,False
2021-12-08,1.018977968595688,1.018977968595688,0.0,0,False
2021-12-09,1.018977968595688,1.018977968595688,0.0,0,False
2021-12-10,1.018977968595688,1.018977968595688,0.0,0,False
2021-12-11,1.018977968595688,1.018977968595688,0.0,0,False
2021-12-12,1.018977968595688,1.018977968595688,0.0,0,False
2021-12-13,1.018977968595688,1.018977968595688,0.0,0,False
2021-12-14,1.018977968595688,1.018977968595688,0.0,0,False
2021-12-15,1.018977968595688,1.018977968595688,0.0,0,False
2021-12-16,1.018977968595688,1.018977968595688,0.0,0,False
2021-12-17,1.018977968595688,1.0182169132395378,-0.07468810706466877,1,True
2021-12-18,1.0182169132395378,1.0182169132395378,0.0,0,False
2021-12-19,1.0182169132395378,1.0182169132395378,0.0,0,False
2021-12-20,1.0182169132395378,1.0182169132395378,0.0,0,False
2021-12-21,1.0182169132395378,1.0182169132395378,0.0,0,False
2021-12-22,1.0182169132395378,1.0182169132395378,0.0,0,False
2021-12-23,1.0182169132395378,1.0182169132395378,0.0,0,False
2021-12-24,1.0182169132395378,1.0182169132395378,0.0,0,False
2021-12-25,1.0182169132395378,1.0182169132395378,0.0,0,False
2021-12-26,1.0182169132395378,1.0182169132395378,0.0,0,False
2021-12-27,1.0182169132395378,1.0182169132395378,0.0,0,False
2021-12-28,1.0182169132395378,1.0182169132395378,0.0,0,False
2021-12-29,1.0182169132395378,1.0182169132395378,0.0,0,False
2021-12-30,1.0182169132395378,1.0182169132395378,0.0,0,False
2021-12-31,1.0182169132395378,1.0182169132395378,0.0,0,False
2022-01-01,1.0182169132395378,1.0182169132395378,0.0,0,False
2022-01-02,1.0182169132395378,1.0182169132395378,0.0,0,False
2022-01-03,1.0182169132395378,1.0182169132395378,0.0,0,False
2022-01-04,1.0182169132395378,1.0182169132395378,0.0,0,False
2022-01-05,1.0182169132395378,1.0182169132395378,0.0,0,False
2022-01-06,1.0182169132395378,1.019343692651324,0.11066202074774267,1,True
2022-01-07,1.019343692651324,1.019343692651324,0.0,0,False
2022-01-08,1.019343692651324,1.019343692651324,0.0,0,False
2022-01-09,1.019343692651324,1.019343692651324,0.0,0,False
2022-01-10,1.019343692651324,1.019343692651324,0.0,0,False
2022-01-11,1.019343692651324,1.019343692651324,0.0,0,False
2022-01-12,1.019343692651324,1.019343692651324,0.0,0,False
2022-01-13,1.019343692651324,1.019343692651324,0.0,0,False
2022-01-14,1.019343692651324,1.019343692651324,0.0,0,False
2022-01-15,1.019343692651324,1.019343692651324,0.0,0,False
2022-01-16,1.019343692651324,1.019343692651324,0.0,0,False
2022-01-17,1.019343692651324,1.019343692651324,0.0,0,False
2022-01-18,1.019343692651324,1.019343692651324,0.0,0,False
2022-01-19,1.019343692651324,1.019343692651324,0.0,0,False
2022-01-20,1.019343692651324,1.019343692651324,0.0,0,False
2022-01-21,1.019343692651324,1.019343692651324,0.0,0,False
2022-01-22,1.019343692651324,1.019343692651324,0.0,0,False
2022-01-23,1.019343692651324,1.019343692651324,0.0,0,False
2022-01-24,1.019343692651324,1.019343692651324,0.0,0,False
2022-01-25,1.019343692651324,1.019343692651324,0.0,0,False
2022-01-26,1.019343692651324,1.019343692651324,0.0,0,False
2022-01-27,1.019343692651324,1.019343692651324,0.0,0,False
2022-01-28,1.019343692651324,1.019343692651324,0.0,0,False
2022-01-29,1.019343692651324,1.019343692651324,0.0,0,False
2022-01-30,1.019343692651324,1.019343692651324,0.0,0,False
2022-01-31,1.019343692651324,1.019343692651324,0.0,0,False
2022-02-01,1.019343692651324,1.019343692651324,0.0,0,False
2022-02-02,1.019343692651324,1.019343692651324,0.0,0,False
2022-02-03,1.019343692651324,1.019343692651324,0.0,0,False
2022-02-04,1.019343692651324,1.019343692651324,0.0,0,False
2022-02-05,1.019343692651324,1.019343692651324,0.0,0,False
2022-02-06,1.019343692651324,1.019343692651324,0.0,0,False
2022-02-07,1.019343692651324,1.019343692651324,0.0,0,False
2022-02-08,1.019343692651324,1.019343692651324,0.0,0,False
2022-02-09,1.019343692651324,1.019343692651324,0.0,0,False
2022-02-10,1.019343692651324,1.020120113293286,0.07616868064808102,2,True
2022-02-11,1.020120113293286,1.0105473821120907,-0.9383925536269766,0,True
2022-02-12,1.0105473821120907,1.0105473821120907,0.0,0,False
2022-02-13,1.0105473821120907,1.0105473821120907,0.0,0,False
2022-02-14,1.0105473821120907,1.0105473821120907,0.0,0,False
2022-02-15,1.0105473821120907,1.0105473821120907,0.0,0,False
2022-02-16,1.0105473821120907,1.0105473821120907,0.0,0,False
2022-02-17,1.0105473821120907,1.0105473821120907,0.0,0,False
2022-02-18,1.0105473821120907,1.0105473821120907,0.0,0,False
2022-02-19,1.0105473821120907,1.0105473821120907,0.0,0,False
2022-02-20,1.0105473821120907,1.0105473821120907,0.0,0,False
2022-02-21,1.0105473821120907,1.0105473821120907,0.0,0,False
2022-02-22,1.0105473821120907,1.0105473821120907,0.0,0,False
2022-02-23,1.0105473821120907,1.0105473821120907,0.0,0,False
2022-02-24,1.0105473821120907,1.0105473821120907,0.0,0,False
2022-02-25,1.0105473821120907,1.0105473821120907,0.0,0,False
2022-02-26,1.0105473821120907,1.0105473821120907,0.0,0,False
2022-02-27,1.0105473821120907,1.0105473821120907,0.0,0,False
2022-02-28,1.0105473821120907,1.0105473821120907,0.0,0,False
2022-03-01,1.0105473821120907,1.0105473821120907,0.0,0,False
2022-03-02,1.0105473821120907,1.0105473821120907,0.0,0,False
2022-03-03,1.0105473821120907,1.0105473821120907,0.0,0,False
2022-03-04,1.0105473821120907,1.0105473821120907,0.0,0,False
2022-03-05,1.0105473821120907,1.0105473821120907,0.0,0,False
2022-03-06,1.0105473821120907,1.0105473821120907,0.0,0,False
2022-03-07,1.0105473821120907,1.0105473821120907,0.0,0,False
2022-03-08,1.0105473821120907,1.0105473821120907,0.0,0,False
2022-03-09,1.0105473821120907,1.0105473821120907,0.0,0,False
2022-03-10,1.0105473821120907,1.0105473821120907,0.0,0,False
2022-03-11,1.0105473821120907,1.0105473821120907,0.0,0,False
2022-03-12,1.0105473821120907,1.0105473821120907,0.0,0,False
2022-03-13,1.0105473821120907,1.0105473821120907,0.0,0,False
2022-03-14,1.0105473821120907,1.0105473821120907,0.0,0,False
2022-03-15,1.0105473821120907,1.0105473821120907,0.0,0,False
2022-03-16,1.0105473821120907,1.0105473821120907,0.0,0,False
2022-03-17,1.0105473821120907,1.0105473821120907,0.0,0,False
2022-03-18,1.0105473821120907,1.0105473821120907,0.0,0,False
2022-03-19,1.0105473821120907,1.0105473821120907,0.0,0,False
2022-03-20,1.0105473821120907,1.0105473821120907,0.0,0,False
2022-03-21,1.0105473821120907,1.0105473821120907,0.0,0,False
2022-03-22,1.0105473821120907,1.0105473821120907,0.0,0,False
2022-03-23,1.0105473821120907,1.0105473821120907,0.0,0,False
2022-03-24,1.0105473821120907,1.0105473821120907,0.0,0,False
2022-03-25,1.0105473821120907,1.0105473821120907,0.0,0,False
2022-03-26,1.0105473821120907,1.012260431836901,0.16951701178324896,1,True
2022-03-27,1.012260431836901,1.012260431836901,0.0,0,False
2022-03-28,1.012260431836901,1.012260431836901,0.0,0,False
2022-03-29,1.012260431836901,1.012260431836901,0.0,0,False
2022-03-30,1.012260431836901,1.0106460554559702,-0.1594823160282366,1,True
2022-03-31,1.0106460554559702,1.0106460554559702,0.0,0,False
2022-04-01,1.0106460554559702,1.0106460554559702,0.0,0,False
2022-04-02,1.0106460554559702,1.0106460554559702,0.0,0,False
2022-04-03,1.0106460554559702,1.0106460554559702,0.0,0,False
2022-04-04,1.0106460554559702,1.0055982013817168,-0.49946804294169755,1,True
2022-04-05,1.0055982013817168,1.0055982013817168,0.0,0,False
2022-04-06,1.0055982013817168,1.0068418789686702,0.12367539890629775,1,True
2022-04-07,1.0068418789686702,1.0039260474090481,-0.2896017359358183,1,True
2022-04-08,1.0039260474090481,1.0039260474090481,0.0,0,False
2022-04-09,1.0039260474090481,1.0039260474090481,0.0,0,False
2022-04-10,1.0039260474090481,1.0039260474090481,0.0,0,False
2022-04-11,1.0039260474090481,1.0039260474090481,0.0,0,False
2022-04-12,1.0039260474090481,1.0039260474090481,0.0,0,False
2022-04-13,1.0039260474090481,1.0039260474090481,0.0,0,False
2022-04-14,1.0039260474090481,1.0039260474090481,0.0,0,False
2022-04-15,1.0039260474090481,1.0039260474090481,0.0,0,False
2022-04-16,1.0039260474090481,1.0039260474090481,0.0,0,False
2022-04-17,1.0039260474090481,1.0039260474090481,0.0,0,False
2022-04-18,1.0039260474090481,1.0066617396131583,0.2724993749460447,1,True
2022-04-19,1.0066617396131583,1.0052380366870173,-0.14142813520340303,0,True
2022-04-20,1.0052380366870173,1.0052380366870173,0.0,0,False
2022-04-21,1.0052380366870173,1.0052380366870173,0.0,0,False
2022-04-22,1.0052380366870173,1.0052380366870173,0.0,0,False
2022-04-23,1.0052380366870173,1.0052380366870173,0.0,0,False
2022-04-24,1.0052380366870173,1.0052380366870173,0.0,0,False
2022-04-25,1.0052380366870173,1.0052380366870173,0.0,0,False
2022-04-26,1.0052380366870173,1.0052380366870173,0.0,0,False
2022-04-27,1.0052380366870173,1.0052380366870173,0.0,0,False
2022-04-28,1.0052380366870173,1.0052380366870173,0.0,0,False
2022-04-29,1.0052380366870173,1.0052380366870173,0.0,0,False
2022-04-30,1.0052380366870173,1.0052380366870173,0.0,0,False
2022-05-01,1.0052380366870173,1.0220176235969514,1.6692152801176308,4,True
2022-05-02,1.0220176235969514,1.0220176235969514,0.0,0,False
2022-05-03,1.0220176235969514,1.0220176235969514,0.0,0,False
2022-05-04,1.0220176235969514,1.0220176235969514,0.0,0,False
2022-05-05,1.0220176235969514,1.0220176235969514,0.0,0,False
2022-05-06,1.0220176235969514,1.0176922074707808,-0.4232232425647853,2,True
2022-05-07,1.0176922074707808,1.0167114354778306,-0.09637216299294149,0,True
2022-05-08,1.0167114354778306,1.0167114354778306,0.0,0,False
2022-05-09,1.0167114354778306,1.0167114354778306,0.0,0,False
2022-05-10,1.0167114354778306,1.0065516821552292,-0.999275995929616,2,True
2022-05-11,1.0065516821552292,0.9916203589925979,-1.4834134627503937,5,True
2022-05-12,0.9916203589925979,0.9766354783086412,-1.5111509710409865,1,True
2022-05-13,0.9766354783086412,0.9766354783086412,0.0,0,False
2022-05-14,0.9766354783086412,0.9766354783086412,0.0,0,False
2022-05-15,0.9766354783086412,0.9736035328693747,-0.31044801326665095,1,True
2022-05-16,0.9736035328693747,0.9823830149887147,0.9017512594130972,1,True
2022-05-17,0.9823830149887147,0.9823830149887147,0.0,0,False
2022-05-18,0.9823830149887147,0.9823830149887147,0.0,0,False
2022-05-19,0.9823830149887147,0.9823830149887147,0.0,0,False
2022-05-20,0.9823830149887147,0.9774778329520057,-0.4993146218804867,1,True
2022-05-21,0.9774778329520057,0.9774778329520057,0.0,0,False
2022-05-22,0.9774778329520057,0.9774778329520057,0.0,0,False
2022-05-23,0.9774778329520057,0.9771079752490313,-0.037837963225983984,1,True
2022-05-24,0.9771079752490313,0.9721391831198541,-0.5085202715606418,1,True
2022-05-25,0.9721391831198541,0.971957956484568,-0.018642046163042103,1,True
2022-05-26,0.971957956484568,0.9769164056147763,0.5101505777207027,1,True
2022-05-27,0.9769164056147763,0.9806235127740898,0.37947025334073015,0,True
2022-05-28,0.9806235127740898,0.9806235127740898,0.0,0,False
2022-05-29,0.9806235127740898,0.9806235127740898,0.0,0,False
2022-05-30,0.9806235127740898,0.9806235127740898,0.0,0,False
2022-05-31,0.9806235127740898,0.9806235127740898,0.0,0,False
2022-06-01,0.9806235127740898,0.9806235127740898,0.0,0,False
2022-06-02,0.9806235127740898,0.9757244883212326,-0.4995826011756854,1,True
2022-06-03,0.9757244883212326,0.9757244883212326,0.0,0,False
2022-06-04,0.9757244883212326,0.9757244883212326,0.0,0,False
2022-06-05,0.9757244883212326,0.9757244883212326,0.0,0,False
2022-06-06,0.9757244883212326,0.9757244883212326,0.0,0,False
2022-06-07,0.9757244883212326,0.9765755801198093,0.08722665145373121,1,True
2022-06-08,0.9765755801198093,0.9766779292877382,0.010480414420799278,1,True
2022-06-09,0.9766779292877382,0.9766779292877382,0.0,0,False
2022-06-10,0.9766779292877382,0.9831364200367684,0.6612712907048124,1,True
2022-06-11,0.9831364200367684,0.9831364200367684,0.0,0,False
2022-06-12,0.9831364200367684,0.9835718936001078,0.04429431709214171,4,True
2022-06-13,0.9835718936001078,0.9835718936001078,0.0,0,False
2022-06-14,0.9835718936001078,0.9835718936001078,0.0,0,False
2022-06-15,0.9835718936001078,0.9835718936001078,0.0,0,False
2022-06-16,0.9835718936001078,0.9927206079231381,0.9301520694683374,2,True
2022-06-17,0.9927206079231381,0.9959049005427888,0.32076423056357495,0,True
2022-06-18,0.9959049005427888,0.9854584421119092,-1.0489413622913224,4,True
2022-06-19,0.9854584421119092,0.9929328926934842,0.7584744584009595,0,True
2022-06-20,0.9929328926934842,0.9929328926934842,0.0,0,False
2022-06-21,0.9929328926934842,0.9929328926934842,0.0,0,False
2022-06-22,0.9929328926934842,0.9929328926934842,0.0,0,False
2022-06-23,0.9929328926934842,0.9929328926934842,0.0,0,False
2022-06-24,0.9929328926934842,0.9929328926934842,0.0,0,False
2022-06-25,0.9929328926934842,0.9929328926934842,0.0,0,False
2022-06-26,0.9929328926934842,0.9929328926934842,0.0,0,False
2022-06-27,0.9929328926934842,0.9929328926934842,0.0,0,False
2022-06-28,0.9929328926934842,0.9944161910279858,0.14938555721304425,1,True
2022-06-29,0.9944161910279858,1.0017195190803063,0.7344337429553205,0,True
2022-06-30,1.0017195190803063,1.0017195190803063,0.0,0,False
2022-07-01,1.0017195190803063,1.0017195190803063,0.0,0,False
2022-07-02,1.0017195190803063,1.0017195190803063,0.0,0,False
2022-07-03,1.0017195190803063,1.0017195190803063,0.0,0,False
2022-07-04,1.0017195190803063,1.0017195190803063,0.0,0,False
2022-07-05,1.0017195190803063,1.0017195190803063,0.0,0,False
2022-07-06,1.0017195190803063,1.0017195190803063,0.0,0,False
2022-07-07,1.0017195190803063,1.0017195190803063,0.0,0,False
2022-07-08,1.0017195190803063,1.0017195190803063,0.0,0,False
2022-07-09,1.0017195190803063,1.0017195190803063,0.0,0,False
2022-07-10,1.0017195190803063,1.0017195190803063,0.0,0,False
2022-07-11,1.0017195190803063,1.0017195190803063,0.0,0,False
2022-07-12,1.0017195190803063,1.0017195190803063,0.0,0,False
2022-07-13,1.0017195190803063,1.0126980918051014,1.0959727264648667,4,True
2022-07-14,1.0126980918051014,1.0294511068689158,1.6542951151367058,0,True
2022-07-15,1.0294511068689158,1.0294511068689158,0.0,0,False
2022-07-16,1.0294511068689158,1.0294511068689158,0.0,0,False
2022-07-17,1.0294511068689158,1.0294511068689158,0.0,0,False
2022-07-18,1.0294511068689158,1.0294511068689158,0.0,0,False
2022-07-19,1.0294511068689158,1.0294511068689158,0.0,0,False
2022-07-20,1.0294511068689158,1.0294511068689158,0.0,0,False
2022-07-21,1.0294511068689158,1.0262385410944914,-0.3120658915211072,3,True
2022-07-22,1.0262385410944914,1.0262385410944914,0.0,0,False
2022-07-23,1.0262385410944914,1.0262385410944914,0.0,0,False
2022-07-24,1.0262385410944914,1.032111445693887,0.5722748039780345,1,True
2022-07-25,1.032111445693887,1.0330475917749125,0.0907020346427867,1,True
2022-07-26,1.0330475917749125,1.0330475917749125,0.0,0,False
2022-07-27,1.0330475917749125,1.0330475917749125,0.0,0,False
2022-07-28,1.0330475917749125,1.0330475917749125,0.0,0,False
2022-07-29,1.0330475917749125,1.0330475917749125,0.0,0,False
2022-07-30,1.0330475917749125,1.0330475917749125,0.0,0,False
2022-07-31,1.0330475917749125,1.0330475917749125,0.0,0,False
2022-08-01,1.0330475917749125,1.0330475917749125,0.0,0,False
2022-08-02,1.0330475917749125,1.0330475917749125,0.0,0,False
2022-08-03,1.0330475917749125,1.0330475917749125,0.0,0,False
2022-08-04,1.0330475917749125,1.0330475917749125,0.0,0,False
2022-08-05,1.0330475917749125,1.0330475917749125,0.0,0,False
2022-08-06,1.0330475917749125,1.0330475917749125,0.0,0,False
2022-08-07,1.0330475917749125,1.0330475917749125,0.0,0,False
2022-08-08,1.0330475917749125,1.0330475917749125,0.0,0,False
2022-08-09,1.0330475917749125,1.0349097636261717,0.18026002539339725,1,True
2022-08-10,1.0349097636261717,1.0349097636261717,0.0,0,False
2022-08-11,1.0349097636261717,1.0349097636261717,0.0,0,False
2022-08-12,1.0349097636261717,1.035112458733073,0.01958577588359045,1,True
2022-08-13,1.035112458733073,1.035112458733073,0.0,0,False
2022-08-14,1.035112458733073,1.035112458733073,0.0,0,False
2022-08-15,1.035112458733073,1.035112458733073,0.0,0,False
2022-08-16,1.035112458733073,1.035112458733073,0.0,0,False
2022-08-17,1.035112458733073,1.035112458733073,0.0,0,False
2022-08-18,1.035112458733073,1.035112458733073,0.0,0,False
2022-08-19,1.035112458733073,1.014205544770121,-2.019772227313432,8,True
2022-08-20,1.014205544770121,1.017627627717355,0.3374151290022498,0,True
2022-08-21,1.017627627717355,1.017627627717355,0.0,0,False
2022-08-22,1.017627627717355,1.017627627717355,0.0,0,False
2022-08-23,1.017627627717355,1.017627627717355,0.0,0,False
2022-08-24,1.017627627717355,1.017627627717355,0.0,0,False
2022-08-25,1.017627627717355,1.017627627717355,0.0,0,False
2022-08-26,1.017627627717355,1.017627627717355,0.0,0,False
2022-08-27,1.017627627717355,1.017627627717355,0.0,0,False
2022-08-28,1.017627627717355,1.017627627717355,0.0,0,False
2022-08-29,1.017627627717355,1.017627627717355,0.0,0,False
2022-08-30,1.017627627717355,1.017627627717355,0.0,0,False
2022-08-31,1.017627627717355,1.017627627717355,0.0,0,False
2022-09-01,1.017627627717355,1.017627627717355,0.0,0,False
2022-09-02,1.017627627717355,1.017627627717355,0.0,0,False
2022-09-03,1.017627627717355,1.017627627717355,0.0,0,False
2022-09-04,1.017627627717355,1.017627627717355,0.0,0,False
2022-09-05,1.017627627717355,1.017627627717355,0.0,0,False
2022-09-06,1.017627627717355,1.017627627717355,0.0,0,False
2022-09-07,1.017627627717355,1.0093408950953207,-0.8143187543583452,4,True
2022-09-08,1.0093408950953207,1.0093408950953207,0.0,0,False
2022-09-09,1.0093408950953207,1.0093408950953207,0.0,0,False
2022-09-10,1.0093408950953207,1.0093408950953207,0.0,0,False
2022-09-11,1.0093408950953207,1.0093408950953207,0.0,0,False
2022-09-12,1.0093408950953207,1.0093408950953207,0.0,0,False
2022-09-13,1.0093408950953207,1.0005898544646417,-0.8670054560558138,4,True
2022-09-14,1.0005898544646417,0.9961090227242232,-0.447819025990015,0,True
2022-09-15,0.9961090227242232,1.0008709474159885,0.4780525608273356,1,True
2022-09-16,1.0008709474159885,1.0008709474159885,0.0,0,False
2022-09-17,1.0008709474159885,1.0008709474159885,0.0,0,False
2022-09-18,1.0008709474159885,1.0008709474159885,0.0,0,False
2022-09-19,1.0008709474159885,1.0003438488262402,-0.0526639914075977,5,True
2022-09-20,1.0003438488262402,1.0003438488262402,0.0,0,False
2022-09-21,1.0003438488262402,1.0003438488262402,0.0,0,False
2022-09-22,1.0003438488262402,1.0003438488262402,0.0,0,False
2022-09-23,1.0003438488262402,1.0003438488262402,0.0,0,False
2022-09-24,1.0003438488262402,1.0003438488262402,0.0,0,False
2022-09-25,1.0003438488262402,1.0003438488262402,0.0,0,False
2022-09-26,1.0003438488262402,1.0003438488262402,0.0,0,False
2022-09-27,1.0003438488262402,1.0003438488262402,0.0,0,False
2022-09-28,1.0003438488262402,1.0003438488262402,0.0,0,False
2022-09-29,1.0003438488262402,1.0003438488262402,0.0,0,False
2022-09-30,1.0003438488262402,1.0003438488262402,0.0,0,False
2022-10-01,1.0003438488262402,1.0003438488262402,0.0,0,False
2022-10-02,1.0003438488262402,1.0003438488262402,0.0,0,False
2022-10-03,1.0003438488262402,1.0003438488262402,0.0,0,False
2022-10-04,1.0003438488262402,1.0003438488262402,0.0,0,False
2022-10-05,1.0003438488262402,1.0003438488262402,0.0,0,False
2022-10-06,1.0003438488262402,1.0003438488262402,0.0,0,False
2022-10-07,1.0003438488262402,1.0003438488262402,0.0,0,False
2022-10-08,1.0003438488262402,1.0003438488262402,0.0,0,False
2022-10-09,1.0003438488262402,1.0003438488262402,0.0,0,False
2022-10-10,1.0003438488262402,1.0003438488262402,0.0,0,False
2022-10-11,1.0003438488262402,1.0249849979129142,2.46326791688547,4,True
2022-10-12,1.0249849979129142,1.0249849979129142,0.0,0,False
2022-10-13,1.0249849979129142,1.0249849979129142,0.0,0,False
2022-10-14,1.0249849979129142,1.0249849979129142,0.0,0,False
2022-10-15,1.0249849979129142,1.0249849979129142,0.0,0,False
2022-10-16,1.0249849979129142,1.0249849979129142,0.0,0,False
2022-10-17,1.0249849979129142,1.0249849979129142,0.0,0,False
2022-10-18,1.0249849979129142,1.0249849979129142,0.0,0,False
2022-10-19,1.0249849979129142,1.0249849979129142,0.0,0,False
2022-10-20,1.0249849979129142,1.028945923190965,0.3864373904121532,1,True
2022-10-21,1.028945923190965,1.028945923190965,0.0,0,False
2022-10-22,1.028945923190965,1.028945923190965,0.0,0,False
2022-10-23,1.028945923190965,1.028945923190965,0.0,0,False
2022-10-24,1.028945923190965,1.028945923190965,0.0,0,False
2022-10-25,1.028945923190965,1.028945923190965,0.0,0,False
2022-10-26,1.028945923190965,1.028945923190965,0.0,0,False
2022-10-27,1.028945923190965,1.028945923190965,0.0,0,False
2022-10-28,1.028945923190965,1.028945923190965,0.0,0,False
2022-10-29,1.028945923190965,1.028945923190965,0.0,0,False
2022-10-30,1.028945923190965,1.028945923190965,0.0,0,False
2022-10-31,1.028945923190965,1.028945923190965,0.0,0,False
2022-11-01,1.028945923190965,1.028945923190965,0.0,0,False
2022-11-02,1.028945923190965,1.0380079867141256,0.8807132929840922,1,True
2022-11-03,1.0380079867141256,1.0380079867141256,0.0,0,False
2022-11-04,1.0380079867141256,1.0422613498541324,0.4097620822235637,2,True
2022-11-05,1.0422613498541324,1.0422613498541324,0.0,0,False
2022-11-06,1.0422613498541324,1.0422613498541324,0.0,0,False
2022-11-07,1.0422613498541324,1.0425357311941423,0.026325579476615957,1,True
2022-11-08,1.0425357311941423,1.0345393982514253,-0.7670080461950168,3,True
2022-11-09,1.0345393982514253,1.0309350597794287,-0.3484003101369204,4,True
2022-11-10,1.0309350597794287,1.039370946675027,0.818275294411186,1,True
2022-11-11,1.039370946675027,1.0448033706719513,0.5226645996121881,5,True
2022-11-12,1.0448033706719513,1.0546622631329452,0.9436122372627143,1,True
2022-11-13,1.0546622631329452,1.0483390974972948,-0.5995441248525357,1,True
2022-11-14,1.0483390974972948,1.0531652557420776,0.46036232515838105,2,True
2022-11-15,1.0531652557420776,1.0531652557420776,0.0,0,False
2022-11-16,1.0531652557420776,1.0531652557420776,0.0,0,False
2022-11-17,1.0531652557420776,1.0531652557420776,0.0,0,False
2022-11-18,1.0531652557420776,1.0531652557420776,0.0,0,False
2022-11-19,1.0531652557420776,1.0531161622022427,-0.004661522925042405,2,True
2022-11-20,1.0531161622022427,1.0485345651979099,-0.4350514377019832,1,True
2022-11-21,1.0485345651979099,1.0424359856892194,-0.5816288476421794,1,True
2022-11-22,1.0424359856892194,1.0424359856892194,0.0,0,False
2022-11-23,1.0424359856892194,1.0424359856892194,0.0,0,False
2022-11-24,1.0424359856892194,1.0424359856892194,0.0,0,False
2022-11-25,1.0424359856892194,1.0424359856892194,0.0,0,False
2022-11-26,1.0424359856892194,1.0424359856892194,0.0,0,False
2022-11-27,1.0424359856892194,1.0424359856892194,0.0,0,False
2022-11-28,1.0424359856892194,1.0386525277478849,-0.3629439114990807,2,True
2022-11-29,1.0386525277478849,1.0386525277478849,0.0,0,False
2022-11-30,1.0386525277478849,1.0386525277478849,0.0,0,False
2022-12-01,1.0386525277478849,1.0384251340860353,-0.021893140947015777,1,True
2022-12-02,1.0384251340860353,1.0384251340860353,0.0,0,False
2022-12-03,1.0384251340860353,1.0384251340860353,0.0,0,False
2022-12-04,1.0384251340860353,1.0384251340860353,0.0,0,False
2022-12-05,1.0384251340860353,1.0384251340860353,0.0,0,False
2022-12-06,1.0384251340860353,1.0384251340860353,0.0,0,False
2022-12-07,1.0384251340860353,1.0384251340860353,0.0,0,False
2022-12-08,1.0384251340860353,1.033242354702138,-0.4990999556707343,1,True
2022-12-09,1.033242354702138,1.033242354702138,0.0,0,False
2022-12-10,1.033242354702138,1.033242354702138,0.0,0,False
2022-12-11,1.033242354702138,1.033242354702138,0.0,0,False
2022-12-12,1.033242354702138,1.033242354702138,0.0,0,False
2022-12-13,1.033242354702138,1.033242354702138,0.0,0,False
2022-12-14,1.033242354702138,1.033242354702138,0.0,0,False
2022-12-15,1.033242354702138,1.033242354702138,0.0,0,False
2022-12-16,1.033242354702138,1.033242354702138,0.0,0,False
2022-12-17,1.033242354702138,1.048229304798301,1.4504777149290549,4,True
2022-12-18,1.048229304798301,1.048229304798301,0.0,0,False
2022-12-19,1.048229304798301,1.048229304798301,0.0,0,False
2022-12-20,1.048229304798301,1.048229304798301,0.0,0,False
2022-12-21,1.048229304798301,1.048229304798301,0.0,0,False
2022-12-22,1.048229304798301,1.048229304798301,0.0,0,False
2022-12-23,1.048229304798301,1.048229304798301,0.0,0,False
2022-12-24,1.048229304798301,1.048229304798301,0.0,0,False
2022-12-25,1.048229304798301,1.048229304798301,0.0,0,False
2022-12-26,1.048229304798301,1.048229304798301,0.0,0,False
2022-12-27,1.048229304798301,1.048229304798301,0.0,0,False
2022-12-28,1.048229304798301,1.05066584043149,0.2324429990685939,1,True
2022-12-29,1.05066584043149,1.0496564596219438,-0.0960705840718723,0,True
2022-12-30,1.0496564596219438,1.0496564596219438,0.0,0,False
2022-12-31,1.0496564596219438,1.0496564596219438,0.0,0,False
2023-01-01,1.0496564596219438,1.0496564596219438,0.0,0,False
2023-01-02,1.0496564596219438,1.0498929449300147,0.02252978161598751,1,True
2023-01-03,1.0498929449300147,1.0499842880226684,0.008700229208580268,0,True
2023-01-04,1.0499842880226684,1.0499842880226684,0.0,0,False
2023-01-05,1.0499842880226684,1.0499842880226684,0.0,0,False
2023-01-06,1.0499842880226684,1.0499842880226684,0.0,0,False
2023-01-07,1.0499842880226684,1.0499842880226684,0.0,0,False
2023-01-08,1.0499842880226684,1.0499842880226684,0.0,0,False
2023-01-09,1.0499842880226684,1.0499842880226684,0.0,0,False
2023-01-10,1.0499842880226684,1.0475810704632165,-0.2288812877359936,2,True
2023-01-11,1.0475810704632165,1.0482897185964184,0.06764613767682448,0,True
2023-01-12,1.0482897185964184,1.0482897185964184,0.0,0,False
2023-01-13,1.0482897185964184,1.0482897185964184,0.0,0,False
2023-01-14,1.0482897185964184,1.0482897185964184,0.0,0,False
2023-01-15,1.0482897185964184,1.0497947014745899,0.1435655479085085,1,True
2023-01-16,1.0497947014745899,1.0497947014745899,0.0,0,False
2023-01-17,1.0497947014745899,1.0497947014745899,0.0,0,False
2023-01-18,1.0497947014745899,1.0497947014745899,0.0,0,False
2023-01-19,1.0497947014745899,1.0445517655995769,-0.4994248749444541,1,True
2023-01-20,1.0445517655995769,1.0445517655995769,0.0,0,False
2023-01-21,1.0445517655995769,1.0457310669790243,0.11290023321826048,1,True
2023-01-22,1.0457310669790243,1.0450291219866432,-0.06712481005358706,0,True
2023-01-23,1.0450291219866432,1.0450291219866432,0.0,0,False
2023-01-24,1.0450291219866432,1.0510955525150658,0.5805034903611173,1,True
2023-01-25,1.0510955525150658,1.056815685729807,0.5442067755927704,5,True
2023-01-26,1.056815685729807,1.056815685729807,0.0,0,False
2023-01-27,1.056815685729807,1.056815685729807,0.0,0,False
2023-01-28,1.056815685729807,1.056815685729807,0.0,0,False
2023-01-29,1.056815685729807,1.056815685729807,0.0,0,False
2023-01-30,1.056815685729807,1.056654562362445,-0.015246118082612448,2,True
2023-01-31,1.056654562362445,1.0528294585302522,-0.3620013548837342,2,True
2023-02-01,1.0528294585302522,1.0528294585302522,0.0,0,False
2023-02-02,1.0528294585302522,1.0528294585302522,0.0,0,False
2023-02-03,1.0528294585302522,1.0528294585302522,0.0,0,False
2023-02-04,1.0528294585302522,1.0528294585302522,0.0,0,False
2023-02-05,1.0528294585302522,1.0552236904399066,0.22740928174604935,4,True
2023-02-06,1.0552236904399066,1.0700568980900715,1.405693198944502,1,True
2023-02-07,1.0700568980900715,1.0695831334190309,-0.04427471771699665,0,True
2023-02-08,1.0695831334190309,1.0695831334190309,0.0,0,False
2023-02-09,1.0695831334190309,1.0695831334190309,0.0,0,False
2023-02-10,1.0695831334190309,1.0695831334190309,0.0,0,False
2023-02-11,1.0695831334190309,1.0695831334190309,0.0,0,False
2023-02-12,1.0695831334190309,1.0695831334190309,0.0,0,False
2023-02-13,1.0695831334190309,1.0695831334190309,0.0,0,False
2023-02-14,1.0695831334190309,1.0695831334190309,0.0,0,False
2023-02-15,1.0695831334190309,1.0695831334190309,0.0,0,False
2023-02-16,1.0695831334190309,1.0695831334190309,0.0,0,False
2023-02-17,1.0695831334190309,1.0695831334190309,0.0,0,False
2023-02-18,1.0695831334190309,1.0695831334190309,0.0,0,False
2023-02-19,1.0695831334190309,1.0695831334190309,0.0,0,False
2023-02-20,1.0695831334190309,1.0695831334190309,0.0,0,False
2023-02-21,1.0695831334190309,1.0679853158333221,-0.14938694672579356,2,True
2023-02-22,1.0679853158333221,1.0683541289702791,0.03453354006737186,0,True
2023-02-23,1.0683541289702791,1.077721149961339,0.8767711695080171,1,True
2023-02-24,1.077721149961339,1.077721149961339,0.0,0,False
2023-02-25,1.077721149961339,1.077721149961339,0.0,0,False
2023-02-26,1.077721149961339,1.077721149961339,0.0,0,False
2023-02-27,1.077721149961339,1.0723381665298177,-0.49947831419234756,1,True
2023-02-28,1.0723381665298177,1.0723381665298177,0.0,0,False
2023-03-01,1.0723381665298177,1.0723381665298177,0.0,0,False
2023-03-02,1.0723381665298177,1.0723381665298177,0.0,0,False
2023-03-03,1.0723381665298177,1.0666016480845453,-0.5349542359232018,5,True
2023-03-04,1.0666016480845453,1.0666016480845453,0.0,0,False
2023-03-05,1.0666016480845453,1.0666016480845453,0.0,0,False
2023-03-06,1.0666016480845453,1.0666016480845453,0.0,0,False
2023-03-07,1.0666016480845453,1.0666016480845453,0.0,0,False
2023-03-08,1.0666016480845453,1.0666016480845453,0.0,0,False
2023-03-09,1.0666016480845453,1.0666016480845453,0.0,0,False
2023-03-10,1.0666016480845453,1.0666016480845453,0.0,0,False
2023-03-11,1.0666016480845453,1.0720044971685037,0.5065479782129678,1,True
2023-03-12,1.0720044971685037,1.0688737032446358,-0.29205044681596126,0,True
2023-03-13,1.0688737032446358,1.0688737032446358,0.0,0,False
2023-03-14,1.0688737032446358,1.0688737032446358,0.0,0,False
2023-03-15,1.0688737032446358,1.0688737032446358,0.0,0,False
2023-03-16,1.0688737032446358,1.0713867025442643,0.23510722473572,1,True
2023-03-17,1.0713867025442643,1.066036316388533,-0.49938888946685633,1,True
2023-03-18,1.066036316388533,1.066036316388533,0.0,0,False
2023-03-19,1.066036316388533,1.066036316388533,0.0,0,False
2023-03-20,1.066036316388533,1.066036316388533,0.0,0,False
2023-03-21,1.066036316388533,1.0607135868271347,-0.4993009599738918,1,True
2023-03-22,1.0607135868271347,1.0607135868271347,0.0,0,False
2023-03-23,1.0607135868271347,1.0701226457304764,0.887049908683335,3,True
2023-03-24,1.0701226457304764,1.071364191880885,0.11601905214901898,0,True
2023-03-25,1.071364191880885,1.0660122030284722,-0.49954897624651107,1,True
2023-03-26,1.0660122030284722,1.0660122030284722,0.0,0,False
2023-03-27,1.0660122030284722,1.0660122030284722,0.0,0,False
2023-03-28,1.0660122030284722,1.0660122030284722,0.0,0,False
2023-03-29,1.0660122030284722,1.0660122030284722,0.0,0,False
2023-03-30,1.0660122030284722,1.0660122030284722,0.0,0,False
2023-03-31,1.0660122030284722,1.0660122030284722,0.0,0,False
2023-04-01,1.0660122030284722,1.0660122030284722,0.0,0,False
2023-04-02,1.0660122030284722,1.0660122030284722,0.0,0,False
2023-04-03,1.0660122030284722,1.0660122030284722,0.0,0,False
2023-04-04,1.0660122030284722,1.0660122030284722,0.0,0,False
2023-04-05,1.0660122030284722,1.0660122030284722,0.0,0,False
2023-04-06,1.0660122030284722,1.060683552891497,-0.49986764896656766,1,True
2023-04-07,1.060683552891497,1.0566292521710994,-0.38223471169561707,1,True
2023-04-08,1.0566292521710994,1.0566292521710994,0.0,0,False
2023-04-09,1.0566292521710994,1.0566292521710994,0.0,0,False
2023-04-10,1.0566292521710994,1.0566292521710994,0.0,0,False
2023-04-11,1.0566292521710994,1.0566292521710994,0.0,0,False
2023-04-12,1.0566292521710994,1.0566292521710994,0.0,0,False
2023-04-13,1.0566292521710994,1.0566292521710994,0.0,0,False
2023-04-14,1.0566292521710994,1.0566292521710994,0.0,0,False
2023-04-15,1.0566292521710994,1.0566292521710994,0.0,0,False
2023-04-16,1.0566292521710994,1.0566292521710994,0.0,0,False
2023-04-17,1.0566292521710994,1.0566292521710994,0.0,0,False
2023-04-18,1.0566292521710994,1.0566292521710994,0.0,0,False
2023-04-19,1.0566292521710994,1.0460877157308963,-0.9976570702110443,2,True
2023-04-20,1.0460877157308963,1.0460877157308963,0.0,0,False
2023-04-21,1.0460877157308963,1.0460877157308963,0.0,0,False
2023-04-22,1.0460877157308963,1.0460877157308963,0.0,0,False
2023-04-23,1.0460877157308963,1.0460877157308963,0.0,0,False
2023-04-24,1.0460877157308963,1.0460877157308963,0.0,0,False
2023-04-25,1.0460877157308963,1.0460877157308963,0.0,0,False
2023-04-26,1.0460877157308963,1.0460877157308963,0.0,0,False
2023-04-27,1.0460877157308963,1.0460877157308963,0.0,0,False
2023-04-28,1.0460877157308963,1.0460877157308963,0.0,0,False
2023-04-29,1.0460877157308963,1.0460877157308963,0.0,0,False
2023-04-30,1.0460877157308963,1.0460877157308963,0.0,0,False
2023-05-01,1.0460877157308963,1.0460877157308963,0.0,0,False
2023-05-02,1.0460877157308963,1.0460877157308963,0.0,0,False
2023-05-03,1.0460877157308963,1.0460877157308963,0.0,0,False
2023-05-04,1.0460877157308963,1.0460877157308963,0.0,0,False
2023-05-05,1.0460877157308963,1.0460877157308963,0.0,0,False
2023-05-06,1.0460877157308963,1.0460877157308963,0.0,0,False
2023-05-07,1.0460877157308963,1.0460877157308963,0.0,0,False
2023-05-08,1.0460877157308963,1.0433426472361687,-0.26241284105030793,5,True
2023-05-09,1.0433426472361687,1.0409973994918615,-0.22478212220307103,2,True
2023-05-10,1.0409973994918615,1.0423876846408728,0.13355318175529707,1,True
2023-05-11,1.0423876846408728,1.043892525667037,0.14436481247210864,0,True
2023-05-12,1.043892525667037,1.043892525667037,0.0,0,False
2023-05-13,1.043892525667037,1.043892525667037,0.0,0,False
2023-05-14,1.043892525667037,1.043892525667037,0.0,0,False
2023-05-15,1.043892525667037,1.043892525667037,0.0,0,False
2023-05-16,1.043892525667037,1.043892525667037,0.0,0,False
2023-05-17,1.043892525667037,1.043892525667037,0.0,0,False
2023-05-18,1.043892525667037,1.043892525667037,0.0,0,False
2023-05-19,1.043892525667037,1.043892525667037,0.0,0,False
2023-05-20,1.043892525667037,1.043892525667037,0.0,0,False
2023-05-21,1.043892525667037,1.043892525667037,0.0,0,False
2023-05-22,1.043892525667037,1.043892525667037,0.0,0,False
2023-05-23,1.043892525667037,1.043892525667037,0.0,0,False
2023-05-24,1.043892525667037,1.043892525667037,0.0,0,False
2023-05-25,1.043892525667037,1.043892525667037,0.0,0,False
2023-05-26,1.043892525667037,1.045718910532774,0.17495909021572054,1,True
2023-05-27,1.045718910532774,1.0491894230543193,0.33187814493831347,0,True
2023-05-28,1.0491894230543193,1.0491894230543193,0.0,0,False
2023-05-29,1.0491894230543193,1.0491894230543193,0.0,0,False
2023-05-30,1.0491894230543193,1.0491894230543193,0.0,0,False
2023-05-31,1.0491894230543193,1.0491894230543193,0.0,0,False
2023-06-01,1.0491894230543193,1.0491894230543193,0.0,0,False
2023-06-02,1.0491894230543193,1.0587189973934539,0.9082796804596782,1,True
2023-06-03,1.0587189973934539,1.0587189973934539,0.0,0,False
2023-06-04,1.0587189973934539,1.0587189973934539,0.0,0,False
2023-06-05,1.0587189973934539,1.0587189973934539,0.0,0,False
2023-06-06,1.0587189973934539,1.0507056443138203,-0.7568914036077845,4,True
2023-06-07,1.0507056443138203,1.0507056443138203,0.0,0,False
2023-06-08,1.0507056443138203,1.0502927244207132,-0.03929929332174842,1,True
2023-06-09,1.0502927244207132,1.0502927244207132,0.0,0,False
2023-06-10,1.0502927244207132,1.066159122043323,1.5106643370647932,5,True
2023-06-11,1.066159122043323,1.0653995804029457,-0.0712409268629366,0,True
2023-06-12,1.0653995804029457,1.0653995804029457,0.0,0,False
2023-06-13,1.0653995804029457,1.0653995804029457,0.0,0,False
2023-06-14,1.0653995804029457,1.0653995804029457,0.0,0,False
2023-06-15,1.0653995804029457,1.0653995804029457,0.0,0,False
2023-06-16,1.0653995804029457,1.0653995804029457,0.0,0,False
2023-06-17,1.0653995804029457,1.0653995804029457,0.0,0,False
2023-06-18,1.0653995804029457,1.0653995804029457,0.0,0,False
2023-06-19,1.0653995804029457,1.0707615958564571,0.5032867998205459,1,True
2023-06-20,1.0707615958564571,1.0716238306349635,0.08052537388743009,0,True
2023-06-21,1.0716238306349635,1.0716238306349635,0.0,0,False
2023-06-22,1.0716238306349635,1.0662660461167717,-0.4999687730924407,1,True
2023-06-23,1.0662660461167717,1.0662660461167717,0.0,0,False
2023-06-24,1.0662660461167717,1.0662660461167717,0.0,0,False
2023-06-25,1.0662660461167717,1.0662660461167717,0.0,0,False
2023-06-26,1.0662660461167717,1.0662660461167717,0.0,0,False
2023-06-27,1.0662660461167717,1.0662660461167717,0.0,0,False
2023-06-28,1.0662660461167717,1.0662660461167717,0.0,0,False
2023-06-29,1.0662660461167717,1.0662660461167717,0.0,0,False
2023-06-30,1.0662660461167717,1.0450122378506543,-1.9932931695163192,4,True
2023-07-01,1.0450122378506543,1.0397933719635908,-0.49940715505853994,1,True
2023-07-02,1.0397933719635908,1.0397933719635908,0.0,0,False
2023-07-03,1.0397933719635908,1.0397933719635908,0.0,0,False
2023-07-04,1.0397933719635908,1.0397933719635908,0.0,0,False
2023-07-05,1.0397933719635908,1.0397933719635908,0.0,0,False
2023-07-06,1.0397933719635908,1.0397933719635908,0.0,0,False
2023-07-07,1.0397933719635908,1.0397933719635908,0.0,0,False
2023-07-08,1.0397933719635908,1.0397933719635908,0.0,0,False
2023-07-09,1.0397933719635908,1.0397933719635908,0.0,0,False
2023-07-10,1.0397933719635908,1.0397933719635908,0.0,0,False
2023-07-11,1.0397933719635908,1.0397933719635908,0.0,0,False
2023-07-12,1.0397933719635908,1.0397933719635908,0.0,0,False
2023-07-13,1.0397933719635908,1.0397933719635908,0.0,0,False
2023-07-14,1.0397933719635908,1.0397933719635908,0.0,0,False
2023-07-15,1.0397933719635908,1.0397933719635908,0.0,0,False
2023-07-16,1.0397933719635908,1.0397933719635908,0.0,0,False
2023-07-17,1.0397933719635908,1.0397933719635908,0.0,0,False
2023-07-18,1.0397933719635908,1.0397933719635908,0.0,0,False
2023-07-19,1.0397933719635908,1.0397933719635908,0.0,0,False
2023-07-20,1.0397933719635908,1.0397933719635908,0.0,0,False
2023-07-21,1.0397933719635908,1.0397933719635908,0.0,0,False
2023-07-22,1.0397933719635908,1.0397933719635908,0.0,0,False
2023-07-23,1.0397933719635908,1.0397933719635908,0.0,0,False
2023-07-24,1.0397933719635908,1.0395580962662234,-0.02262715879051136,1,True
2023-07-25,1.0395580962662234,1.0399054310437084,0.03341177166840126,0,True
2023-07-26,1.0399054310437084,1.0399054310437084,0.0,0,False
2023-07-27,1.0399054310437084,1.0399054310437084,0.0,0,False
2023-07-28,1.0399054310437084,1.0399054310437084,0.0,0,False
2023-07-29,1.0399054310437084,1.0399054310437084,0.0,0,False
2023-07-30,1.0399054310437084,1.0399054310437084,0.0,0,False
2023-07-31,1.0399054310437084,1.0399054310437084,0.0,0,False
2023-08-01,1.0399054310437084,1.0399054310437084,0.0,0,False
2023-08-02,1.0399054310437084,1.0399054310437084,0.0,0,False
2023-08-03,1.0399054310437084,1.0399054310437084,0.0,0,False
2023-08-04,1.0399054310437084,1.0399054310437084,0.0,0,False
2023-08-05,1.0399054310437084,1.0399054310437084,0.0,0,False
2023-08-06,1.0399054310437084,1.0399054310437084,0.0,0,False
2023-08-07,1.0399054310437084,1.0399054310437084,0.0,0,False
2023-08-08,1.0399054310437084,1.0399054310437084,0.0,0,False
2023-08-09,1.0399054310437084,1.0399054310437084,0.0,0,False
2023-08-10,1.0399054310437084,1.0399054310437084,0.0,0,False
2023-08-11,1.0399054310437084,1.0399054310437084,0.0,0,False
2023-08-12,1.0399054310437084,1.0399054310437084,0.0,0,False
2023-08-13,1.0399054310437084,1.0399054310437084,0.0,0,False
2023-08-14,1.0399054310437084,1.0399054310437084,0.0,0,False
2023-08-15,1.0399054310437084,1.0399054310437084,0.0,0,False
2023-08-16,1.0399054310437084,1.0472397206382287,0.7052842860104214,4,True
2023-08-17,1.0472397206382287,1.0472397206382287,0.0,0,False
2023-08-18,1.0472397206382287,1.0840434814387905,3.5143587542814103,4,True
2023-08-19,1.0840434814387905,1.0840434814387905,0.0,0,False
2023-08-20,1.0840434814387905,1.0840434814387905,0.0,0,False
2023-08-21,1.0840434814387905,1.0840434814387905,0.0,0,False
2023-08-22,1.0840434814387905,1.0840434814387905,0.0,0,False
2023-08-23,1.0840434814387905,1.0840434814387905,0.0,0,False
2023-08-24,1.0840434814387905,1.0840434814387905,0.0,0,False
2023-08-25,1.0840434814387905,1.0678599078792717,-1.4928897075271674,3,True
2023-08-26,1.0678599078792717,1.0678599078792717,0.0,0,False
2023-08-27,1.0678599078792717,1.0678599078792717,0.0,0,False
2023-08-28,1.0678599078792717,1.0678599078792717,0.0,0,False
2023-08-29,1.0678599078792717,1.0678599078792717,0.0,0,False
2023-08-30,1.0678599078792717,1.0678599078792717,0.0,0,False
2023-08-31,1.0678599078792717,1.0678599078792717,0.0,0,False
2023-09-01,1.0678599078792717,1.0678599078792717,0.0,0,False
2023-09-02,1.0678599078792717,1.0697052927212582,0.17281151098287317,1,True
2023-09-03,1.0697052927212582,1.0703120352755877,0.05672053400669341,0,True
2023-09-04,1.0703120352755877,1.0703120352755877,0.0,0,False
2023-09-05,1.0703120352755877,1.0703120352755877,0.0,0,False
2023-09-06,1.0703120352755877,1.0703120352755877,0.0,0,False
2023-09-07,1.0703120352755877,1.0703120352755877,0.0,0,False
2023-09-08,1.0703120352755877,1.0703120352755877,0.0,0,False
2023-09-09,1.0703120352755877,1.0703120352755877,0.0,0,False
2023-09-10,1.0703120352755877,1.068497202859703,-0.16956105846435143,2,True
2023-09-11,1.068497202859703,1.0656189030887626,-0.2693783159410268,1,True
2023-09-12,1.0656189030887626,1.0656189030887626,0.0,0,False
2023-09-13,1.0656189030887626,1.0752027479837634,0.8993688894989971,1,True
2023-09-14,1.0752027479837634,1.0752027479837634,0.0,0,False
2023-09-15,1.0752027479837634,1.0752027479837634,0.0,0,False
2023-09-16,1.0752027479837634,1.0752027479837634,0.0,0,False
2023-09-17,1.0752027479837634,1.0752027479837634,0.0,0,False
2023-09-18,1.0752027479837634,1.0698324408576088,-0.49946925230847095,1,True
2023-09-19,1.0698324408576088,1.0698324408576088,0.0,0,False
2023-09-20,1.0698324408576088,1.0722964099283083,0.23031354972975482,1,True
2023-09-21,1.0722964099283083,1.0754550475410718,0.29456758257491167,0,True
2023-09-22,1.0754550475410718,1.0754550475410718,0.0,0,False
2023-09-23,1.0754550475410718,1.0754550475410718,0.0,0,False
2023-09-24,1.0754550475410718,1.0754550475410718,0.0,0,False
2023-09-25,1.0754550475410718,1.0754550475410718,0.0,0,False
2023-09-26,1.0754550475410718,1.0762879322554524,0.0774448654348614,1,True
2023-09-27,1.0762879322554524,1.0749030218177065,-0.12867471577459044,0,True
2023-09-28,1.0749030218177065,1.0749030218177065,0.0,0,False
2023-09-29,1.0749030218177065,1.0749030218177065,0.0,0,False
2023-09-30,1.0749030218177065,1.0749030218177065,0.0,0,False
2023-10-01,1.0749030218177065,1.0749030218177065,0.0,0,False
2023-10-02,1.0749030218177065,1.0749030218177065,0.0,0,False
2023-10-03,1.0749030218177065,1.075104893562266,0.018780461163658835,1,True
2023-10-04,1.075104893562266,1.0695299402358296,-0.5185497117369042,0,True
2023-10-05,1.0695299402358296,1.0695299402358296,0.0,0,False
2023-10-06,1.0695299402358296,1.0695299402358296,0.0,0,False
2023-10-07,1.0695299402358296,1.0695299402358296,0.0,0,False
2023-10-08,1.0695299402358296,1.0695299402358296,0.0,0,False
2023-10-09,1.0695299402358296,1.0695299402358296,0.0,0,False
2023-10-10,1.0695299402358296,1.0695299402358296,0.0,0,False
2023-10-11,1.0695299402358296,1.0695299402358296,0.0,0,False
2023-10-12,1.0695299402358296,1.0695299402358296,0.0,0,False
2023-10-13,1.0695299402358296,1.0695299402358296,0.0,0,False
2023-10-14,1.0695299402358296,1.0695299402358296,0.0,0,False
2023-10-15,1.0695299402358296,1.0694402414763755,-0.008386745997435163,1,True
2023-10-16,1.0694402414763755,1.070147580000816,0.06614100507982279,1,True
2023-10-17,1.070147580000816,1.0643040992366792,-0.546044384283173,1,True
2023-10-18,1.0643040992366792,1.0643040992366792,0.0,0,False
2023-10-19,1.0643040992366792,1.0536989881264167,-0.9964361800230304,2,True
2023-10-20,1.0536989881264167,1.0536989881264167,0.0,0,False
2023-10-21,1.0536989881264167,1.0544965972216547,0.07569610526589887,1,True
2023-10-22,1.0544965972216547,1.0544965972216547,0.0,0,False
2023-10-23,1.0544965972216547,1.0544965972216547,0.0,0,False
2023-10-24,1.0544965972216547,1.0544965972216547,0.0,0,False
2023-10-25,1.0544965972216547,1.0544965972216547,0.0,0,False
2023-10-26,1.0544965972216547,1.0644827265209664,0.9470044119272547,2,True
2023-10-27,1.0644827265209664,1.0653137036615854,0.07806393846661042,1,True
2023-10-28,1.0653137036615854,1.0666518926302377,0.12561454565476193,0,True
2023-10-29,1.0666518926302377,1.0666518926302377,0.0,0,False
2023-10-30,1.0666518926302377,1.0666518926302377,0.0,0,False
2023-10-31,1.0666518926302377,1.0666518926302377,0.0,0,False
2023-11-01,1.0666518926302377,1.0666518926302377,0.0,0,False
2023-11-02,1.0666518926302377,1.0666518926302377,0.0,0,False
2023-11-03,1.0666518926302377,1.0666518926302377,0.0,0,False
2023-11-04,1.0666518926302377,1.0666518926302377,0.0,0,False
2023-11-05,1.0666518926302377,1.0666518926302377,0.0,0,False
2023-11-06,1.0666518926302377,1.0666518926302377,0.0,0,False
2023-11-07,1.0666518926302377,1.0613229289841881,-0.4995972615685407,1,True
2023-11-08,1.0613229289841881,1.0613229289841881,0.0,0,False
2023-11-09,1.0613229289841881,1.0602316319299558,-0.10282422290421867,3,True
2023-11-10,1.0602316319299558,1.073369537994132,1.2391543195387378,4,True
2023-11-11,1.073369537994132,1.073369537994132,0.0,0,False
2023-11-12,1.073369537994132,1.073369537994132,0.0,0,False
2023-11-13,1.073369537994132,1.073369537994132,0.0,0,False
2023-11-14,1.073369537994132,1.073369537994132,0.0,0,False
2023-11-15,1.073369537994132,1.073369537994132,0.0,0,False
2023-11-16,1.073369537994132,1.073369537994132,0.0,0,False
2023-11-17,1.073369537994132,1.073369537994132,0.0,0,False
2023-11-18,1.073369537994132,1.073369537994132,0.0,0,False
2023-11-19,1.073369537994132,1.073369537994132,0.0,0,False
2023-11-20,1.073369537994132,1.0750328490823897,0.15496164455777173,1,True
2023-11-21,1.0750328490823897,1.0713129723116537,-0.34602447487174226,0,True
2023-11-22,1.0713129723116537,1.0696185573616828,-0.15816245987526623,1,True
2023-11-23,1.0696185573616828,1.0696185573616828,0.0,0,False
2023-11-24,1.0696185573616828,1.0696185573616828,0.0,0,False
2023-11-25,1.0696185573616828,1.079225191969676,0.8981364937879377,1,True
2023-11-26,1.079225191969676,1.079225191969676,0.0,0,False
2023-11-27,1.079225191969676,1.0738358094965272,-0.4993751548101555,1,True
2023-11-28,1.0738358094965272,1.0738358094965272,0.0,0,False
2023-11-29,1.0738358094965272,1.068472066045575,-0.4994938149312511,1,True
2023-11-30,1.068472066045575,1.068472066045575,0.0,0,False
2023-12-01,1.068472066045575,1.068472066045575,0.0,0,False
2023-12-02,1.068472066045575,1.068472066045575,0.0,0,False
2023-12-03,1.068472066045575,1.069138941449479,0.062413929675475543,1,True
2023-12-04,1.069138941449479,1.0780903636955932,0.8372552807756062,4,True
2023-12-05,1.0780903636955932,1.0838287574734267,0.5322739142350486,0,True
2023-12-06,1.0838287574734267,1.0838287574734267,0.0,0,False
2023-12-07,1.0838287574734267,1.0784151737146652,-0.49948700119208933,1,True
2023-12-08,1.0784151737146652,1.0784151737146652,0.0,0,False
2023-12-09,1.0784151737146652,1.0784151737146652,0.0,0,False
2023-12-10,1.0784151737146652,1.0784151737146652,0.0,0,False
2023-12-11,1.0784151737146652,1.0933512438869568,1.38500185608883,4,True
2023-12-12,1.0933512438869568,1.0933512438869568,0.0,0,False
2023-12-13,1.0933512438869568,1.0925635072645274,-0.07204790105957981,1,True
2023-12-14,1.0925635072645274,1.0925635072645274,0.0,0,False
2023-12-15,1.0925635072645274,1.0925635072645274,0.0,0,False
2023-12-16,1.0925635072645274,1.0925635072645274,0.0,0,False
2023-12-17,1.0925635072645274,1.0925635072645274,0.0,0,False
2023-12-18,1.0925635072645274,1.0962969178360134,0.3417110810183699,1,True
2023-12-19,1.0962969178360134,1.093601626333196,-0.24585415310093284,0,True
2023-12-20,1.093601626333196,1.093601626333196,0.0,0,False
2023-12-21,1.093601626333196,1.093601626333196,0.0,0,False
2023-12-22,1.093601626333196,1.093601626333196,0.0,0,False
2023-12-23,1.093601626333196,1.093601626333196,0.0,0,False
2023-12-24,1.093601626333196,1.0919197503342724,-0.15379238274937368,1,True
2023-12-25,1.0919197503342724,1.0952436807088748,0.30441159925762573,0,True
2023-12-26,1.0952436807088748,1.0952436807088748,0.0,0,False
2023-12-27,1.0952436807088748,1.0871509661288745,-0.7388962586629466,2,True
2023-12-28,1.0871509661288745,1.0871509661288745,0.0,0,False
2023-12-29,1.0871509661288745,1.0871509661288745,0.0,0,False
2023-12-30,1.0871509661288745,1.0871509661288745,0.0,0,False
2023-12-31,1.0871509661288745,1.0871509661288745,0.0,0,False
