day,start_equity,end_equity,return_pct,entries,active
2024-01-02,1.0,0.9990134675237569,-0.09865324762431404,1,True
2024-01-03,0.9990134675237569,0.9919886107270097,-0.7031793889785698,9,True
2024-01-04,0.9919886107270097,0.9987143458755809,0.6780052790769542,0,True
2024-01-05,0.9987143458755809,0.9841322155954365,-1.4600901990008075,4,True
2024-01-06,0.9841322155954365,0.9742403656979395,-1.0051342432187416,7,True
2024-01-07,0.9742403656979395,0.9727296673288808,-0.1550642348899678,3,True
2024-01-08,0.9727296673288808,0.9731494222339885,0.04315226719262544,7,True
2024-01-09,0.9731494222339885,0.9779804854720482,0.49643591494608064,0,True
2024-01-10,0.9779804854720482,0.9688260922542581,-0.9360507038513655,4,True
2024-01-11,0.9688260922542581,0.9867192775851006,1.846893418116835,3,True
2024-01-12,0.9867192775851006,0.9823473365676284,-0.44307850437178553,5,True
2024-01-13,0.9823473365676284,0.9666597558284068,-1.5969484677420542,5,True
2024-01-14,0.9666597558284068,0.9713350437137286,0.4836539286064756,0,True
2024-01-15,0.9713350437137286,0.9659600146559731,-0.5533650919465449,2,True
2024-01-16,0.9659600146559731,0.9671531056900211,0.12351350117456583,1,True
2024-01-17,0.9671531056900211,0.9725985434085561,0.5630378154708016,0,True
2024-01-18,0.9725985434085561,0.9718298221425199,-0.07903787963142728,1,True
2024-01-19,0.9718298221425199,0.9629091107636965,-0.9179293715392056,1,True
2024-01-20,0.9629091107636965,0.9806844090596195,1.8459995961431108,6,True
2024-01-21,0.9806844090596195,0.9822523641643918,0.1598837597791336,1,True
2024-01-22,0.9822523641643918,0.9610278953019277,-2.1607959050849335,4,True
2024-01-23,0.9610278953019277,0.9363264875614039,-2.570311211701437,8,True
2024-01-24,0.9363264875614039,0.9455798249248462,0.9882597028245899,1,True
2024-01-25,0.9455798249248462,0.9359310946752062,-1.0204035656542154,2,True
2024-01-26,0.9359310946752062,0.9359310946752062,0.0,0,False
2024-01-27,0.9359310946752062,0.9359310946752062,0.0,0,False
2024-01-28,0.9359310946752062,0.9340739444966343,-0.19842808825754066,1,True
2024-01-29,0.9340739444966343,0.9312539038255186,-0.3019076474331306,0,True
2024-01-30,0.9312539038255186,0.9312539038255186,0.0,0,False
2024-01-31,0.9312539038255186,0.9266086412558208,-0.4988180506535822,1,True
2024-02-01,0.9266086412558208,0.9266086412558208,0.0,0,False
2024-02-02,0.9266086412558208,0.9263607929142677,-0.026747898791146252,2,True
2024-02-03,0.9263607929142677,0.9363630633173216,1.0797380976787174,1,True
2024-02-04,0.9363630633173216,0.9358544020848341,-0.054323077491480465,1,True
2024-02-05,0.9358544020848341,0.9358544020848341,0.0,0,False
2024-02-06,0.9358544020848341,0.9295892260007571,-0.669460556056567,2,True
2024-02-07,0.9295892260007571,0.9251605141010654,-0.4764160099773096,4,True
2024-02-08,0.9251605141010654,0.9494220240729003,2.622410879198478,1,True
2024-02-09,0.9494220240729003,0.9625510225287196,1.3828411520829809,0,True
2024-02-10,0.9625510225287196,0.9568585291931435,-0.5913965288428358,2,True
2024-02-11,0.9568585291931435,0.9549844340509913,-0.195859166739365,0,True
2024-02-12,0.9549844340509913,0.9571093146674509,0.2225042148012779,1,True
2024-02-13,0.9571093146674509,0.9571815816367465,0.007550544978318641,0,True
2024-02-14,0.9571815816367465,0.958951269439104,0.1848852753028707,2,True
2024-02-15,0.958951269439104,0.9690218314943448,1.0501641090825409,1,True
2024-02-16,0.9690218314943448,0.962346000351432,-0.6889247410058807,3,True
2024-02-17,0.962346000351432,0.9585481162434504,-0.39464850548500685,5,True
2024-02-18,0.9585481162434504,0.962271027328908,0.3883906318701724,1,True
2024-02-19,0.962271027328908,0.9637232108222885,0.15091210814186518,2,True
2024-02-20,0.9637232108222885,0.9586345881726547,-0.5280170273466833,6,True
2024-02-21,0.9586345881726547,0.9421554713114106,-1.7190196415358239,6,True
2024-02-22,0.9421554713114106,0.9650868495147128,2.4339271915900795,3,True
2024-02-23,0.9650868495147128,0.9667576527100009,0.173124646359879,3,True
2024-02-24,0.9667576527100009,0.9636185353216763,-0.32470571911430435,5,True
2024-02-25,0.9636185353216763,0.9553739348705139,-0.8555875742272012,4,True
2024-02-26,0.9553739348705139,0.9535875424442481,-0.1869835842347789,4,True
2024-02-27,0.9535875424442481,0.9557726878384547,0.22914995183405118,2,True
2024-02-28,0.9557726878384547,0.9896501946115027,3.5445150509232803,5,True
2024-02-29,0.9896501946115027,1.0136104401753976,2.4210822868883097,6,True
2024-03-01,1.0136104401753976,1.0118362501128282,-0.1750366799953662,5,True
2024-03-02,1.0118362501128282,1.0214168328916462,0.9468511113087441,4,True
2024-03-03,1.0214168328916462,1.0247432160589327,0.3256636331192553,9,True
2024-03-04,1.0247432160589327,1.0507282504524076,2.535760567746026,1,True
2024-03-05,1.0507282504524076,1.0701351475345726,1.8469948889076715,8,True
2024-03-06,1.0701351475345726,1.0588290975296308,-1.0565067441237863,13,True
2024-03-07,1.0588290975296308,1.0698925063305769,1.0448720031172476,3,True
2024-03-08,1.0698925063305769,1.0724084001235794,0.2351538849104884,5,True
2024-03-09,1.0724084001235794,1.05914899917364,-1.2364133802394206,5,True
2024-03-10,1.05914899917364,1.096896852079427,3.5639794717493345,6,True
2024-03-11,1.096896852079427,1.1099312163062767,1.188294432802861,3,True
2024-03-12,1.1099312163062767,1.1071774327018566,-0.24810398734295136,3,True
2024-03-13,1.1071774327018566,1.1194167437537308,1.1054516367811518,5,True
2024-03-14,1.1194167437537308,1.1405063563439761,1.8839822352063162,5,True
2024-03-15,1.1405063563439761,1.1084386878803911,-2.8117044929395707,14,True
2024-03-16,1.1084386878803911,1.1242530185352106,1.4267212817210773,1,True
2024-03-17,1.1242530185352106,1.1178701054702755,-0.5677470248869221,6,True
2024-03-18,1.1178701054702755,1.1180767413268673,0.01848478240724649,4,True
2024-03-19,1.1180767413268673,1.0934624500254206,-2.201484959989053,11,True
2024-03-20,1.0934624500254206,1.0784321654937499,-1.3745588183043056,4,True
2024-03-21,1.0784321654937499,1.0792738100138557,0.07804334357186526,4,True
2024-03-22,1.0792738100138557,1.0874361909918524,0.7562845407961705,6,True
2024-03-23,1.0874361909918524,1.1219021063856747,3.1694655446758535,5,True
2024-03-24,1.1219021063856747,1.1279246462418713,0.536815094821308,4,True
2024-03-25,1.1279246462418713,1.1429339634327709,1.3307021210068548,4,True
2024-03-26,1.1429339634327709,1.1782574627474,3.0905984461723435,4,True
2024-03-27,1.1782574627474,1.1716162735324154,-0.5636449948298261,6,True
2024-03-28,1.1716162735324154,1.15846883618774,-1.1221624043370348,2,True
2024-03-29,1.15846883618774,1.145015211597941,-1.1613281401743891,6,True
2024-03-30,1.145015211597941,1.1329081948873818,-1.0573673247242787,2,True
2024-03-31,1.1329081948873818,1.1328084391968014,-0.008805275752310493,0,True
2024-04-01,1.1328084391968014,1.1312077473011697,-0.14130296352370397,5,True
2024-04-02,1.1312077473011697,1.0973604891646338,-2.9921345762781826,5,True
2024-04-03,1.0973604891646338,1.0718383185001044,-2.3257781664763777,3,True
2024-04-04,1.0718383185001044,1.0711689022692312,-0.06245496352564883,1,True
2024-04-05,1.0711689022692312,1.0603361011842773,-1.0113065327050696,5,True
2024-04-06,1.0603361011842773,1.0521697310279632,-0.7701680766309171,1,True
2024-04-07,1.0521697310279632,1.0751625522087707,2.1852768144492885,3,True
2024-04-08,1.0751625522087707,1.059168578429491,-1.487586574367028,1,True
2024-04-09,1.059168578429491,1.0481399815828283,-1.0412503798985173,3,True
2024-04-10,1.0481399815828283,1.0485887758255354,0.042818158890334246,4,True
2024-04-11,1.0485887758255354,1.0627962068753274,1.3549097012417244,1,True
2024-04-12,1.0627962068753274,1.0585256039040747,-0.401827080641215,8,True
2024-04-13,1.0585256039040747,1.0215816007853131,-3.4901378844785613,10,True
2024-04-14,1.0215816007853131,0.9970985239667212,-2.39658552970915,10,True
2024-04-15,0.9970985239667212,1.0000285321495923,0.2938534269627535,1,True
2024-04-16,1.0000285321495923,0.991400513411573,-0.8627772569121728,1,True
2024-04-17,0.991400513411573,0.990126383691882,-0.12851816218114598,0,True
2024-04-18,0.990126383691882,1.0131310187689273,2.3234039064051526,1,True
2024-04-19,1.0131310187689273,1.0328720919184138,1.948521245897128,5,True
2024-04-20,1.0328720919184138,1.0327542333429174,-0.011410761934471658,0,True
2024-04-21,1.0327542333429174,1.0327542333429174,0.0,0,False
2024-04-22,1.0327542333429174,1.0327542333429174,0.0,0,False
2024-04-23,1.0327542333429174,1.0479913863735648,1.475390033631374,3,True
2024-04-24,1.0479913863735648,1.0404719127599236,-0.7175129215194587,2,True
2024-04-25,1.0404719127599236,1.0413604815532718,0.08540055550285697,2,True
2024-04-26,1.0413604815532718,1.0352619175578586,-0.585634283559211,1,True
2024-04-27,1.0352619175578586,1.0394508302350696,0.4046234683385608,6,True
2024-04-28,1.0394508302350696,1.047306044228188,0.7557080878315414,3,True
2024-04-29,1.047306044228188,1.0536546563330573,0.6061849962441412,2,True
2024-04-30,1.0536546563330573,1.042668245427827,-1.042695615607614,2,True
2024-05-01,1.042668245427827,1.0285058659452249,-1.3582824205786714,6,True
2024-05-02,1.0285058659452249,1.040646315684658,1.1803967426355477,3,True
2024-05-03,1.040646315684658,1.0456255489992339,0.4784750822184991,1,True
2024-05-04,1.0456255489992339,1.04669241579927,0.10203143955858085,0,True
2024-05-05,1.04669241579927,1.0423608182659214,-0.4138367172595747,1,True
2024-05-06,1.0423608182659214,1.041466469249222,-0.08580032950464833,0,True
2024-05-07,1.041466469249222,1.0479711435014887,0.6245687637890018,3,True
2024-05-08,1.0479711435014887,1.047915112535968,-0.005346613393708566,3,True
2024-05-09,1.047915112535968,1.040859510864339,-0.6732989711880744,1,True
2024-05-10,1.040859510864339,1.0412805916067394,0.040455098695368896,2,True
2024-05-11,1.0412805916067394,1.037663718867988,-0.3473485214173011,4,True
2024-05-12,1.037663718867988,1.0313191754794127,-0.6114257705277404,0,True
2024-05-13,1.0313191754794127,1.0283288004755282,-0.2899563078999634,4,True
2024-05-14,1.0283288004755282,1.0173944649431426,-1.0633112217930063,3,True
2024-05-15,1.0173944649431426,1.0219824241297892,0.4509518524757228,3,True
2024-05-16,1.0219824241297892,1.0272057368342844,0.511096138364886,2,True
2024-05-17,1.0272057368342844,1.027894140805333,0.06701714626031752,0,True
2024-05-18,1.027894140805333,1.0357492452433816,0.7641939112420948,2,True
2024-05-19,1.0357492452433816,1.0347729629808298,-0.09425855408877748,0,True
2024-05-20,1.0347729629808298,1.0418200711150427,0.6810294031951436,2,True
2024-05-21,1.0418200711150427,1.0342762755301789,-0.724097739525198,2,True
2024-05-22,1.0342762755301789,1.039219574714856,0.47794765302366926,1,True
2024-05-23,1.039219574714856,1.0212142682568317,-1.732579610325824,5,True
2024-05-24,1.0212142682568317,1.0416156093985822,1.9977532410093257,3,True
2024-05-25,1.0416156093985822,1.0404745718822008,-0.10954497091688609,0,True
2024-05-26,1.0404745718822008,1.0463524539942648,0.5649231870636706,3,True
2024-05-27,1.0463524539942648,1.0705976597922278,2.3171165418890416,3,True
2024-05-28,1.0705976597922278,1.0826034119091787,1.1214065346715651,2,True
2024-05-29,1.0826034119091787,1.083658936718285,0.09749875138900244,1,True
2024-05-30,1.083658936718285,1.0587688450121424,-2.2968565904618266,5,True
2024-05-31,1.0587688450121424,1.058280437543157,-0.04612975450556389,1,True
2024-06-01,1.058280437543157,1.0539748426467834,-0.40684819860878907,2,True
2024-06-02,1.0539748426467834,1.0667744064132243,1.2144088500535943,0,True
2024-06-03,1.0667744064132243,1.0525499287915023,-1.333410094599885,5,True
2024-06-04,1.0525499287915023,1.0608890144028977,0.7922745879589854,5,True
2024-06-05,1.0608890144028977,1.068412744706018,0.7091910841733995,0,True
2024-06-06,1.068412744706018,1.0677710482388882,-0.060060727495947486,2,True
2024-06-07,1.0677710482388882,1.063807087984967,-0.3712369108020974,0,True
2024-06-08,1.063807087984967,1.090076405384562,2.469368525204474,7,True
2024-06-09,1.090076405384562,1.0989338965292283,0.8125569089390217,1,True
2024-06-10,1.0989338965292283,1.091561143331559,-0.6709005173973326,0,True
2024-06-11,1.091561143331559,1.0887182668514406,-0.2604413410541295,2,True
2024-06-12,1.0887182668514406,1.1007852659819954,1.1083674719128744,3,True
2024-06-13,1.1007852659819954,1.1014702023389105,0.0622225222377093,3,True
2024-06-14,1.1014702023389105,1.0811448397277617,-1.8452939142601488,5,True
2024-06-15,1.0811448397277617,1.087483546722118,0.5862958191570788,5,True
2024-06-16,1.087483546722118,1.088690844677656,0.11101758359259861,0,True
2024-06-17,1.088690844677656,1.0695385421938988,-1.759204881476517,4,True
2024-06-18,1.0695385421938988,1.076134186143084,0.6166812778580111,5,True
2024-06-19,1.076134186143084,1.0941227492748034,1.671591086255808,0,True
2024-06-20,1.0941227492748034,1.0998010856071516,0.5189853091083219,1,True
2024-06-21,1.0998010856071516,1.0976021294477682,-0.19994126102989007,1,True
2024-06-22,1.0976021294477682,1.1027428088734614,0.46835545301644466,2,True
2024-06-23,1.1027428088734614,1.1022855678793892,-0.04146397422798431,2,True
2024-06-24,1.1022855678793892,1.0960362449290573,-0.5669422817858871,1,True
2024-06-25,1.0960362449290573,1.1023552064379414,0.5765285170193479,0,True
2024-06-26,1.1023552064379414,1.1023552064379414,0.0,0,False
2024-06-27,1.1023552064379414,1.0968683013401566,-0.4977438366272846,1,True
2024-06-28,1.0968683013401566,1.0946656031986124,-0.20081701138167096,2,True
2024-06-29,1.0946656031986124,1.0755737438938564,-1.7440814116173597,5,True
2024-06-30,1.0755737438938564,1.0872094322976487,1.0818122392675766,0,True
2024-07-01,1.0872094322976487,1.0797498111308343,-0.6861255012338807,2,True
2024-07-02,1.0797498111308343,1.0859541803576722,0.5746117445799781,0,True
2024-07-03,1.0859541803576722,1.0805414861674518,-0.4984274924415,1,True
2024-07-04,1.0805414861674518,1.0619738497909421,-1.7183640437876013,5,True
2024-07-05,1.0619738497909421,1.0000219604206293,-5.8336548854294845,18,True
2024-07-06,1.0000219604206293,1.0125580364836884,1.2535800771601213,1,True
2024-07-07,1.0125580364836884,1.010720268325939,-0.1814975627600912,1,True
2024-07-08,1.010720268325939,1.0112520006837473,0.052609250499036087,2,True
2024-07-09,1.0112520006837473,1.0277452722280942,1.630975417917102,2,True
2024-07-10,1.0277452722280942,1.0295130266666515,0.1720031691048174,1,True
2024-07-11,1.0295130266666515,1.0179113128595552,-1.126912773960731,2,True
2024-07-12,1.0179113128595552,1.0179113128595552,0.0,0,False
2024-07-13,1.0179113128595552,1.016703938459202,-0.11861292679431479,2,True
2024-07-14,1.016703938459202,1.0437968299004277,2.6647768751918433,1,True
2024-07-15,1.0437968299004277,1.0468008822036323,0.2878004815833002,0,True
2024-07-16,1.0468008822036323,1.0363824537531527,-0.9952636291772676,2,True
2024-07-17,1.0363824537531527,1.0420882006695291,0.5505445307100176,1,True
2024-07-18,1.0420882006695291,1.0434706980171278,0.13266605904476148,0,True
2024-07-19,1.0434706980171278,1.0407169383719674,-0.263903878699534,2,True
2024-07-20,1.0407169383719674,1.0420451875715728,0.12762828686954109,0,True
2024-07-21,1.0420451875715728,1.0417381849542589,-0.029461545523701282,1,True
2024-07-22,1.0417381849542589,1.0415934824847721,-0.013890483384082497,1,True
2024-07-23,1.0415934824847721,1.0347207277241703,-0.6598308146289922,3,True
2024-07-24,1.0347207277241703,1.0294875947220359,-0.5057531816961447,1,True
2024-07-25,1.0294875947220359,1.022581078907087,-0.6708692606260724,3,True
2024-07-26,1.022581078907087,1.0212704498505667,-0.12816871772369787,0,True
2024-07-27,1.0212704498505667,1.0254027639558696,0.40462485778449686,1,True
2024-07-28,1.0254027639558696,1.012037947081019,-1.3033724254156387,2,True
2024-07-29,1.012037947081019,1.0112549947689644,-0.07736392833024297,0,True
2024-07-30,1.0112549947689644,1.0075979091197729,-0.3616383274356094,2,True
2024-07-31,1.0075979091197729,0.9982397475526028,-0.9287595262424952,4,True
2024-08-01,0.9982397475526028,0.9984217791740573,0.018235260807908382,1,True
2024-08-02,0.9984217791740573,0.9826759958397125,-1.5770672938815955,4,True
2024-08-03,0.9826759958397125,0.9769676349989402,-0.5808995910085768,7,True
2024-08-04,0.9769676349989402,0.9423183795145805,-3.546612420215667,4,True
2024-08-05,0.9423183795145805,0.9226473625421526,-2.087512819452919,16,True
2024-08-06,0.9226473625421526,0.9378572994159068,1.6485103075400964,0,True
2024-08-07,0.9378572994159068,0.9375443150301503,-0.03337228232390688,1,True
2024-08-08,0.9375443150301503,0.9331789295413183,-0.46561910928889505,0,True
2024-08-09,0.9331789295413183,0.9331789295413183,0.0,0,False
2024-08-10,0.9331789295413183,0.9331789295413183,0.0,0,False
2024-08-11,0.9331789295413183,0.9285139493354387,-0.49990200787887185,1,True
2024-08-12,0.9285139493354387,0.9298976533511781,0.14902350327958835,1,True
2024-08-13,0.9298976533511781,0.9238782224228831,-0.6473218753270449,0,True
2024-08-14,0.9238782224228831,0.9238782224228831,0.0,0,False
2024-08-15,0.9238782224228831,0.9238782224228831,0.0,0,False
2024-08-16,0.9238782224228831,0.9238782224228831,0.0,0,False
2024-08-17,0.9238782224228831,0.9511823651228315,2.9553833002300856,1,True
2024-08-18,0.9511823651228315,0.9722557211230184,2.2154906117782813,1,True
2024-08-19,0.9722557211230184,0.9630464659244939,-0.9472050406540311,3,True
2024-08-20,0.9630464659244939,0.9531650885209942,-1.0260540641737204,2,True
2024-08-21,0.9531650885209942,0.952281982432597,-0.09264985667567505,0,True
2024-08-22,0.952281982432597,0.9528974691965374,0.06463282675663873,1,True
2024-08-23,0.9528974691965374,0.9535499061596068,0.0684687475998258,0,True
2024-08-24,0.9535499061596068,0.9512658095757422,-0.2395361343029867,2,True
2024-08-25,0.9512658095757422,0.9497451111851146,-0.1598605116803098,2,True
2024-08-26,0.9497451111851146,0.9528630673707217,0.3282939968721088,2,True
2024-08-27,0.9528630673707217,0.9450218491113814,-0.8229113424426115,1,True
2024-08-28,0.9450218491113814,0.9460800745869381,0.11197894276748777,4,True
2024-08-29,0.9460800745869381,0.9386548790827681,-0.7848379543784256,3,True
2024-08-30,0.9386548790827681,0.9413973151191943,0.2921665989853439,0,True
2024-08-31,0.9413973151191943,0.9413973151191943,0.0,0,False
2024-09-01,0.9413973151191943,0.9367233091527611,-0.49649663233226615,1,True
2024-09-02,0.9367233091527611,0.9381409729988556,0.15134285997182584,1,True
2024-09-03,0.9381409729988556,0.9357626006982647,-0.2535197128197275,0,True
2024-09-04,0.9357626006982647,0.9357626006982647,0.0,0,False
2024-09-05,0.9357626006982647,0.9357626006982647,0.0,0,False
2024-09-06,0.9357626006982647,0.9356226116489723,-0.014959889312515795,1,True
2024-09-07,0.9356226116489723,0.9373849174799803,0.1883564814559202,0,True
2024-09-08,0.9373849174799803,0.9373849174799803,0.0,0,False
2024-09-09,0.9373849174799803,0.9373849174799803,0.0,0,False
2024-09-10,0.9373849174799803,0.9373849174799803,0.0,0,False
2024-09-11,0.9373849174799803,0.9280591682701991,-0.9948687071744344,2,True
2024-09-12,0.9280591682701991,0.9280591682701991,0.0,0,False
2024-09-13,0.9280591682701991,0.9279218742148193,-0.014793674808000201,1,True
2024-09-14,0.9279218742148193,0.9301404477048119,0.23909054756034998,0,True
2024-09-15,0.9301404477048119,0.9326097366612659,0.2654748497979087,2,True
2024-09-16,0.9326097366612659,0.9265634054086994,-0.6483238395314506,2,True
2024-09-17,0.9265634054086994,0.9338618647454249,0.7876913003601826,1,True
2024-09-18,0.9338618647454249,0.9339705903867198,0.01164258284864772,0,True
2024-09-19,0.9339705903867198,0.9341199899929105,0.015996178865629318,1,True
2024-09-20,0.9341199899929105,0.9411469729469816,0.7522569936785573,2,True
2024-09-21,0.9411469729469816,0.9300171526091165,-1.1825804744411639,2,True
2024-09-22,0.9300171526091165,0.940156705526132,1.0902543989182778,2,True
2024-09-23,0.940156705526132,0.9499754188529951,1.0443698661244394,0,True
2024-09-24,0.9499754188529951,0.9499754188529951,0.0,0,False
2024-09-25,0.9499754188529951,0.9499754188529951,0.0,0,False
2024-09-26,0.9499754188529951,0.9499754188529951,0.0,0,False
2024-09-27,0.9499754188529951,0.9499754188529951,0.0,0,False
2024-09-28,0.9499754188529951,0.9499754188529951,0.0,0,False
2024-09-29,0.9499754188529951,0.9499754188529951,0.0,0,False
2024-09-30,0.9499754188529951,0.9459256707822649,-0.4263003010772537,2,True
2024-10-01,0.9459256707822649,0.946303977778356,0.039993311078889704,0,True
2024-10-02,0.946303977778356,0.924833769603745,-2.268848982862437,11,True
2024-10-03,0.924833769603745,0.9261126479979468,0.1382819741486907,3,True
2024-10-04,0.9261126479979468,0.9346919759048404,0.9263806001829522,1,True
2024-10-05,0.9346919759048404,0.9354345844421995,0.07944954664238502,0,True
2024-10-06,0.9354345844421995,0.9354345844421995,0.0,0,False
2024-10-07,0.9354345844421995,0.9354345844421995,0.0,0,False
2024-10-08,0.9354345844421995,0.9280801617649498,-0.7862038457381981,2,True
2024-10-09,0.9280801617649498,0.9286078519151773,0.05685825125536503,0,True
2024-10-10,0.9286078519151773,0.9286078519151773,0.0,0,False
2024-10-11,0.9286078519151773,0.9271950610804264,-0.1521407375392192,1,True
2024-10-12,0.9271950610804264,0.9282896987190603,0.11805904545678647,1,True
2024-10-13,0.9282896987190603,0.928227561274822,-0.006693755658826461,0,True
2024-10-14,0.928227561274822,0.928227561274822,0.0,0,False
2024-10-15,0.928227561274822,0.928517180117018,0.03120127588092103,1,True
2024-10-16,0.928517180117018,0.9226458205819843,-0.632337199651356,5,True
2024-10-17,0.9226458205819843,0.9180475504177231,-0.49837869111688526,2,True
2024-10-18,0.9180475504177231,0.9274191083965033,1.020814006258819,2,True
2024-10-19,0.9274191083965033,0.9345951155888647,0.7737609811349078,2,True
2024-10-20,0.9345951155888647,0.9369743977757848,0.25457892377502844,2,True
2024-10-21,0.9369743977757848,0.9319377201936087,-0.537546980379866,1,True
2024-10-22,0.9319377201936087,0.9286002516262688,-0.35812141680954257,0,True
2024-10-23,0.9286002516262688,0.9239697195039189,-0.49865721167320354,1,True
2024-10-24,0.9239697195039189,0.917296178917425,-0.722268321745112,3,True
2024-10-25,0.917296178917425,0.9129703883658831,-0.4715805702632636,2,True
2024-10-26,0.9129703883658831,0.8960183754192589,-1.8567976752199455,9,True
2024-10-27,0.8960183754192589,0.9055236454359271,1.0608342727592701,0,True
2024-10-28,0.9055236454359271,0.9021502995310655,-0.372529852960124,1,True
2024-10-29,0.9021502995310655,0.9182134192395092,1.780536981120906,2,True
2024-10-30,0.9182134192395092,0.9213700617347407,0.3437809150998783,0,True
2024-10-31,0.9213700617347407,0.9213700617347407,0.0,0,False
2024-11-01,0.9213700617347407,0.9171515464670376,-0.45785243550897636,3,True
2024-11-02,0.9171515464670376,0.9097334613877149,-0.8088178129228352,1,True
2024-11-03,0.9097334613877149,0.9029008434220522,-0.7510571233952601,2,True
2024-11-04,0.9029008434220522,0.9176459109643245,1.6330771700674873,4,True
2024-11-05,0.9176459109643245,0.9097900931538541,-0.8560837809667765,1,True
2024-11-06,0.9097900931538541,0.9154411387341388,0.6211372956035355,2,True
2024-11-07,0.9154411387341388,0.9113288615543443,-0.4492126261095075,2,True
2024-11-08,0.9113288615543443,0.9078852872541882,-0.37786296971686895,2,True
2024-11-09,0.9078852872541882,0.9065489052058733,-0.14719723593678014,2,True
2024-11-10,0.9065489052058733,0.9246686923280535,1.998765540185099,3,True
2024-11-11,0.9246686923280535,0.913558384111624,-1.2015447596107953,5,True
2024-11-12,0.913558384111624,0.9016023596665333,-1.3087312921677308,7,True
2024-11-13,0.9016023596665333,0.8980175781775283,-0.39760116536640133,2,True
2024-11-14,0.8980175781775283,0.897278544855022,-0.08229608645368147,3,True
2024-11-15,0.897278544855022,0.9194948380983702,2.4759639434973613,6,True
2024-11-16,0.9194948380983702,0.9228039783256031,0.3598867650063786,1,True
2024-11-17,0.9228039783256031,0.9109107780561466,-1.2888111179403805,4,True
2024-11-18,0.9109107780561466,0.9098212643175836,-0.11960707511750046,2,True
2024-11-19,0.9098212643175836,0.8977411046894895,-1.3277508563349305,3,True
2024-11-20,0.8977411046894895,0.8982133453075165,0.05260320771325322,1,True
2024-11-21,0.8982133453075165,0.917398554058368,2.1359300494787403,4,True
2024-11-22,0.917398554058368,0.9175952611475896,0.02144183554153578,5,True
2024-11-23,0.9175952611475896,0.9460449638959678,3.100463129331943,0,True
2024-11-24,0.9460449638959678,0.9379507744329286,-0.855581898529012,9,True
2024-11-25,0.9379507744329286,0.9479926299619862,1.0706164761288939,2,True
2024-11-26,0.9479926299619862,0.9321795537604654,-1.6680589808124258,5,True
2024-11-27,0.9321795537604654,0.9400660358444836,0.8460260742904735,3,True
2024-11-28,0.9400660358444836,0.9387196812575923,-0.14321915009745112,2,True
2024-11-29,0.9387196812575923,0.9520335484024562,1.418300629110858,5,True
2024-11-30,0.9520335484024562,0.9566354907553541,0.4833802716952773,1,True
2024-12-01,0.9566354907553541,0.9601745905993355,0.36995280628642213,3,True
2024-12-02,0.9601745905993355,0.9643634369754425,0.4362588238762122,8,True
2024-12-03,0.9643634369754425,0.964620113615252,0.026616172904114777,7,True
2024-12-04,0.964620113615252,0.9893993774607522,2.568810612151884,3,True
2024-12-05,0.9893993774607522,0.9862472451786096,-0.31859048569773396,6,True
2024-12-06,0.9862472451786096,0.988946339071322,0.2736731489904942,2,True
2024-12-07,0.988946339071322,0.9905162948080495,0.1587503461716322,2,True
2024-12-08,0.9905162948080495,0.9884335540692802,-0.21026819545385544,0,True
2024-12-09,0.9884335540692802,0.9861247171632221,-0.233585444014206,2,True
2024-12-10,0.9861247171632221,0.9342207233171084,-5.263430978124717,16,True
2024-12-11,0.9342207233171084,0.9509615773795609,1.7919591852995076,3,True
2024-12-12,0.9509615773795609,0.9502688862151308,-0.07284113058897423,0,True
2024-12-13,0.9502688862151308,0.9502688862151308,0.0,0,False
2024-12-14,0.9502688862151308,0.9502688862151308,0.0,0,False
2024-12-15,0.9502688862151308,0.9434690590363529,-0.7155687487424012,3,True
2024-12-16,0.9434690590363529,0.9401935592943865,-0.3471761697529274,0,True
2024-12-17,0.9401935592943865,0.9401935592943865,0.0,0,False
2024-12-18,0.9401935592943865,0.9357091063875166,-0.47697124305292604,2,True
2024-12-19,0.9357091063875166,0.9275994777908716,-0.866682662516105,9,True
2024-12-20,0.9275994777908716,0.8941438104709135,-3.60669320336775,12,True
2024-12-21,0.8941438104709135,0.9187913380539039,2.756550713023387,2,True
2024-12-22,0.9187913380539039,0.9224311951839671,0.3961571011077192,1,True
2024-12-23,0.9224311951839671,0.9324027561921003,1.0810086497719196,3,True
2024-12-24,0.9324027561921003,0.9303312257040275,-0.22217121027536813,0,True
2024-12-25,0.9303312257040275,0.9377050946600962,0.7926068428465882,3,True
2024-12-26,0.9377050946600962,0.9250929105347461,-1.3450053963844466,1,True
2024-12-27,0.9250929105347461,0.9250929105347461,0.0,0,False
2024-12-28,0.9250929105347461,0.9204842279167393,-0.49818591900598896,1,True
2024-12-29,0.9204842279167393,0.9584242735391049,4.121748583159568,4,True
2024-12-30,0.9584242735391049,0.9485845942437025,-1.0266517206485304,2,True
2024-12-31,0.9485845942437025,0.9450978401462283,-0.36757439648849033,2,True
