day,start_equity,end_equity,return_pct,entries,active
2024-01-02,1.0,1.0,0.0,0,False
2024-01-03,1.0,0.9927723563112387,-0.7227643688761276,6,True
2024-01-04,0.9927723563112387,0.9977689116012648,0.5032931525804418,2,True
2024-01-05,0.9977689116012648,0.995757222950537,-0.20161869420237677,1,True
2024-01-06,0.995757222950537,0.9954222019823338,-0.0336448443939541,2,True
2024-01-07,0.9954222019823338,0.9935288530021682,-0.19020562093100546,1,True
2024-01-08,0.9935288530021682,0.9995498522803958,0.6060215825674176,3,True
2024-01-09,0.9995498522803958,1.0032134967392028,0.3665294382715123,0,True
2024-01-10,1.0032134967392028,1.0032134967392028,0.0,0,False
2024-01-11,1.0032134967392028,1.0038804441115108,0.06648110043134814,1,True
2024-01-12,1.0038804441115108,1.0018668785090477,-0.20057822764395494,2,True
2024-01-13,1.0018668785090477,1.0054629019375318,0.35893225992615907,4,True
2024-01-14,1.0054629019375318,1.0102419882627551,0.47531204940669536,0,True
2024-01-15,1.0102419882627551,1.0102419882627551,0.0,0,False
2024-01-16,1.0102419882627551,1.009793746914751,-0.04436970084512604,1,True
2024-01-17,1.009793746914751,1.0140040809693134,0.41694990362399764,0,True
2024-01-18,1.0140040809693134,1.0140040809693134,0.0,0,False
2024-01-19,1.0140040809693134,1.0140040809693134,0.0,0,False
2024-01-20,1.0140040809693134,1.0272522444372767,1.3065197385891292,6,True
2024-01-21,1.0272522444372767,1.0290582442964713,0.17580880148710953,0,True
2024-01-22,1.0290582442964713,1.0290582442964713,0.0,0,False
2024-01-23,1.0290582442964713,1.0096256062988196,-1.8883904876479618,8,True
2024-01-24,1.0096256062988196,1.0240633553543548,1.4300101904568763,0,True
2024-01-25,1.0240633553543548,1.018952236161802,-0.4991018539848291,1,True
2024-01-26,1.018952236161802,1.018952236161802,0.0,0,False
2024-01-27,1.018952236161802,1.018952236161802,0.0,0,False
2024-01-28,1.018952236161802,1.0179224415956634,-0.10106406655699951,1,True
2024-01-29,1.0179224415956634,1.0179224415956634,0.0,0,False
2024-01-30,1.0179224415956634,1.0179224415956634,0.0,0,False
2024-01-31,1.0179224415956634,1.0128374923301968,-0.49954191573726714,1,True
2024-02-01,1.0128374923301968,1.0128374923301968,0.0,0,False
2024-02-02,1.0128374923301968,1.0123567296383071,-0.04746691305665962,2,True
2024-02-03,1.0123567296383071,1.0202921974082888,0.7838608207619391,1,True
2024-02-04,1.0202921974082888,1.018558998088027,-0.16987283884601911,1,True
2024-02-05,1.018558998088027,1.018558998088027,0.0,0,False
2024-02-06,1.018558998088027,1.013473839548594,-0.49925026915264015,1,True
2024-02-07,1.013473839548594,1.012579842118867,-0.08821119942525879,3,True
2024-02-08,1.012579842118867,1.0272014137570171,1.4439919727765815,0,True
2024-02-09,1.0272014137570171,1.0272014137570171,0.0,0,False
2024-02-10,1.0272014137570171,1.0272014137570171,0.0,0,False
2024-02-11,1.0272014137570171,1.0272014137570171,0.0,0,False
2024-02-12,1.0272014137570171,1.0272014137570171,0.0,0,False
2024-02-13,1.0272014137570171,1.0272014137570171,0.0,0,False
2024-02-14,1.0272014137570171,1.0283604997646878,0.11283921460263358,1,True
2024-02-15,1.0283604997646878,1.0258655578368947,-0.24261355121710793,0,True
2024-02-16,1.0258655578368947,1.0308523268282814,0.4861035594080798,1,True
2024-02-17,1.0308523268282814,1.0267406743249776,-0.39885950647795543,2,True
2024-02-18,1.0267406743249776,1.0271102115105901,0.03599128726983203,0,True
2024-02-19,1.0271102115105901,1.0271102115105901,0.0,0,False
2024-02-20,1.0271102115105901,1.024510439093611,-0.2531152341631926,7,True
2024-02-21,1.024510439093611,1.0058772632900626,-1.8187394771724708,4,True
2024-02-22,1.0058772632900626,1.0293329578857755,2.331864478076895,3,True
2024-02-23,1.0293329578857755,1.0355036169565144,0.5994813459984094,1,True
2024-02-24,1.0355036169565144,1.0468429388964247,1.0950538225291906,3,True
2024-02-25,1.0468429388964247,1.0440992809789742,-0.26208878290212567,1,True
2024-02-26,1.0440992809789742,1.0492900455731036,0.4971523962034041,0,True
2024-02-27,1.0492900455731036,1.0483434064486865,-0.09021710712027176,1,True
2024-02-28,1.0483434064486865,1.0482321241077583,-0.0106150656591808,1,True
2024-02-29,1.0482321241077583,1.067093268143025,1.7993289464698359,5,True
2024-03-01,1.067093268143025,1.0655985146850546,-0.14007711439990578,1,True
2024-03-02,1.0655985146850546,1.0650532343994288,-0.05117126930183069,1,True
2024-03-03,1.0650532343994288,1.0674136480179923,0.22162400360152823,6,True
2024-03-04,1.0674136480179923,1.089114304213464,2.033012809585677,0,True
2024-03-05,1.089114304213464,1.0814191308204544,-0.7065533308339811,5,True
2024-03-06,1.0814191308204544,1.0607219634579261,-1.9138895154208746,4,True
2024-03-07,1.0607219634579261,1.0607219634579261,0.0,0,False
2024-03-08,1.0607219634579261,1.0613154444257067,0.055950662683157404,2,True
2024-03-09,1.0613154444257067,1.058462344298354,-0.2688267792895882,3,True
2024-03-10,1.058462344298354,1.0639365572208057,0.517185420146471,2,True
2024-03-11,1.0639365572208057,1.0566830389818707,-0.6817622902142384,0,True
2024-03-12,1.0566830389818707,1.0527442934220088,-0.3727461702855428,1,True
2024-03-13,1.0527442934220088,1.057396438692481,0.44190648190076676,2,True
2024-03-14,1.057396438692481,1.055011532510513,-0.22554513091770367,1,True
2024-03-15,1.055011532510513,1.0397338192178334,-1.4481086530234055,10,True
2024-03-16,1.0397338192178334,1.0493911210263693,0.9288244385280198,1,True
2024-03-17,1.0493911210263693,1.0339945732635945,-1.4671886824920044,4,True
2024-03-18,1.0339945732635945,1.035246246943825,0.12105224849294771,0,True
2024-03-19,1.035246246943825,1.0193306992798061,-1.537368303531994,8,True
2024-03-20,1.0193306992798061,1.0168970008099454,-0.23875455449151595,0,True
2024-03-21,1.0168970008099454,1.0210365050399537,0.4070721249754161,2,True
2024-03-22,1.0210365050399537,1.0210365050399537,0.0,0,False
2024-03-23,1.0210365050399537,1.0225980893441462,0.1529410845238388,1,True
2024-03-24,1.0225980893441462,1.0200359337619913,-0.25055352722184177,2,True
2024-03-25,1.0200359337619913,1.0279160861323138,0.7725367420400309,2,True
2024-03-26,1.0279160861323138,1.031354864453909,0.3345388177097286,2,True
2024-03-27,1.031354864453909,1.0252651331639702,-0.5904593559233673,3,True
2024-03-28,1.0252651331639702,1.021095776369426,-0.40666132687821044,0,True
2024-03-29,1.021095776369426,1.0099126637696894,-1.0952070176510675,4,True
2024-03-30,1.0099126637696894,1.0098297534770688,-0.008209649764268079,0,True
2024-03-31,1.0098297534770688,1.0098297534770688,0.0,0,False
2024-04-01,1.0098297534770688,1.0081220150338623,-0.16911151977117012,4,True
2024-04-02,1.0081220150338623,0.9815401844102803,-2.6367671995228825,5,True
2024-04-03,0.9815401844102803,0.9650763588094368,-1.6773460590138956,1,True
2024-04-04,0.9650763588094368,0.9645144383973719,-0.05822548723066756,1,True
2024-04-05,0.9645144383973719,0.9504680005573775,-1.4563221949620453,3,True
2024-04-06,0.9504680005573775,0.9500593015773493,-0.04299976220014656,1,True
2024-04-07,0.9500593015773493,0.9621142128521417,1.2688588233153553,1,True
2024-04-08,0.9621142128521417,0.9621142128521417,0.0,0,False
2024-04-09,0.9621142128521417,0.9573147201484976,-0.49884853996868816,1,True
2024-04-10,0.9573147201484976,0.9465224392362724,-1.1273493120999012,5,True
2024-04-11,0.9465224392362724,0.9514321659190118,0.5187121275963547,1,True
2024-04-12,0.9514321659190118,0.9479505015158509,-0.3659393205187489,3,True
2024-04-13,0.9479505015158509,0.9223073065800271,-2.7051196127665156,7,True
2024-04-14,0.9223073065800271,0.8783351791404348,-4.767622150001582,13,True
2024-04-15,0.8783351791404348,0.8870299141637894,0.9899108255988942,0,True
2024-04-16,0.8870299141637894,0.8870299141637894,0.0,0,False
2024-04-17,0.8870299141637894,0.8870299141637894,0.0,0,False
2024-04-18,0.8870299141637894,0.8870299141637894,0.0,0,False
2024-04-19,0.8870299141637894,0.8913755255065856,0.48990583895840434,4,True
2024-04-20,0.8913755255065856,0.8886743172036072,-0.3030381949788441,0,True
2024-04-21,0.8886743172036072,0.8886743172036072,0.0,0,False
2024-04-22,0.8886743172036072,0.8886743172036072,0.0,0,False
2024-04-23,0.8886743172036072,0.8903174037867815,0.18489187223780235,1,True
2024-04-24,0.8903174037867815,0.8875718719672866,-0.30837674382386826,1,True
2024-04-25,0.8875718719672866,0.8850113551582345,-0.28848557394870467,0,True
2024-04-26,0.8850113551582345,0.8850113551582345,0.0,0,False
2024-04-27,0.8850113551582345,0.8917968593056149,0.7667137950074343,3,True
2024-04-28,0.8917968593056149,0.8940573600552993,0.2534770924675023,1,True
2024-04-29,0.8940573600552993,0.8965002260231676,0.2732336958466641,2,True
2024-04-30,0.8965002260231676,0.893691593617721,-0.31328853288811187,2,True
2024-05-01,0.893691593617721,0.8886113061672914,-0.568460919483893,3,True
2024-05-02,0.8886113061672914,0.8915971723197249,0.336014873062096,1,True
2024-05-03,0.8915971723197249,0.8895285351135228,-0.23201477869427833,1,True
2024-05-04,0.8895285351135228,0.8902024478338726,0.07576066351415722,0,True
2024-05-05,0.8902024478338726,0.8873565925805688,-0.3196862983502968,1,True
2024-05-06,0.8873565925805688,0.8886082185032028,0.14105106482549257,0,True
2024-05-07,0.8886082185032028,0.8931184794443605,0.5075646215330964,2,True
2024-05-08,0.8931184794443605,0.8951814975160906,0.23099041383776164,2,True
2024-05-09,0.8951814975160906,0.8925700893821542,-0.2917182874291213,1,True
2024-05-10,0.8925700893821542,0.8925700893821542,0.0,0,False
2024-05-11,0.8925700893821542,0.8859387251920421,-0.7429516481672005,4,True
2024-05-12,0.8859387251920421,0.8820123925862082,-0.4431833143971442,0,True
2024-05-13,0.8820123925862082,0.8828463033371436,0.09454637575898595,3,True
2024-05-14,0.8828463033371436,0.8828679273439534,0.0024493512322587563,3,True
2024-05-15,0.8828679273439534,0.8877475644567696,0.5527029538264339,1,True
2024-05-16,0.8877475644567696,0.8885690326757378,0.09253398734705431,0,True
2024-05-17,0.8885690326757378,0.8885690326757378,0.0,0,False
2024-05-18,0.8885690326757378,0.8933746555053581,0.5408271786322638,2,True
2024-05-19,0.8933746555053581,0.8927499621935995,-0.06992512132608653,0,True
2024-05-20,0.8927499621935995,0.890244841456475,-0.2806072073046173,1,True
2024-05-21,0.890244841456475,0.8851823861093532,-0.5686587679451627,2,True
2024-05-22,0.8851823861093532,0.8880893242035943,0.32839990264807994,1,True
2024-05-23,0.8880893242035943,0.883793302879499,-0.4837375258336607,1,True
2024-05-24,0.883793302879499,0.8864234347577717,0.29759581450814476,2,True
2024-05-25,0.8864234347577717,0.8859946179331261,-0.04837607037802005,0,True
2024-05-26,0.8859946179331261,0.8872317896184297,0.13963647862667017,2,True
2024-05-27,0.8872317896184297,0.8987637489192518,1.2997684974499935,2,True
2024-05-28,0.8987637489192518,0.9058431833023697,0.7876857952527239,1,True
2024-05-29,0.9058431833023697,0.9058431833023697,0.0,0,False
2024-05-30,0.9058431833023697,0.9018184782196504,-0.44430483740537374,3,True
2024-05-31,0.9018184782196504,0.8991488988008345,-0.29602181406686023,0,True
2024-06-01,0.8991488988008345,0.8971253461396494,-0.2250520090592123,2,True
2024-06-02,0.8971253461396494,0.9057279220808568,0.9589045698267684,0,True
2024-06-03,0.9057279220808568,0.9065679955080426,0.09275119014280353,1,True
2024-06-04,0.9065679955080426,0.9080358244992413,0.161910523917852,3,True
2024-06-05,0.9080358244992413,0.9082135683179464,0.019574538130506802,0,True
2024-06-06,0.9082135683179464,0.9091719436018404,0.10552311893654576,1,True
2024-06-07,0.9091719436018404,0.9085477037456203,-0.0686602639482059,0,True
2024-06-08,0.9085477037456203,0.9254598919206206,1.861452965571031,5,True
2024-06-09,0.9254598919206206,0.9254598919206206,0.0,0,False
2024-06-10,0.9254598919206206,0.9254598919206206,0.0,0,False
2024-06-11,0.9254598919206206,0.9255208455269576,0.006586304481603911,1,True
2024-06-12,0.9255208455269576,0.9345330294729275,0.9737418654075514,1,True
2024-06-13,0.9345330294729275,0.9293691842399743,-0.5525588791511882,1,True
2024-06-14,0.9293691842399743,0.9226926503014857,-0.7183941593618126,4,True
2024-06-15,0.9226926503014857,0.9317407534698303,0.9806194040223648,4,True
2024-06-16,0.9317407534698303,0.9320359615297594,0.031683497671397554,0,True
2024-06-17,0.9320359615297594,0.9227618958555884,-0.995033030587078,2,True
2024-06-18,0.9227618958555884,0.924472813092397,0.1854126448537663,5,True
2024-06-19,0.924472813092397,0.9296242532378999,0.5572300312727485,0,True
2024-06-20,0.9296242532378999,0.9380834224703438,0.9099557378134726,1,True
2024-06-21,0.9380834224703438,0.9366312761818273,-0.15479926984451886,1,True
2024-06-22,0.9366312761818273,0.9372482160037512,0.0658679501328363,0,True
2024-06-23,0.9372482160037512,0.9374749516619442,0.024191634011283547,2,True
2024-06-24,0.9374749516619442,0.9374749516619442,0.0,0,False
2024-06-25,0.9374749516619442,0.9374749516619442,0.0,0,False
2024-06-26,0.9374749516619442,0.9374749516619442,0.0,0,False
2024-06-27,0.9374749516619442,0.9328031973490117,-0.4983337746411687,1,True
2024-06-28,0.9328031973490117,0.9325067162128393,-0.03178388935790588,1,True
2024-06-29,0.9325067162128393,0.9211532662915852,-1.2175193726607692,3,True
2024-06-30,0.9211532662915852,0.9173654754253533,-0.41120093743801656,0,True
2024-07-01,0.9173654754253533,0.9113980093974225,-0.6505003935496689,2,True
2024-07-02,0.9113980093974225,0.9152779705032543,0.4257153368589339,0,True
2024-07-03,0.9152779705032543,0.9107055905512873,-0.4995618925967338,1,True
2024-07-04,0.9107055905512873,0.8983631163253847,-1.3552650114326381,4,True
2024-07-05,0.8983631163253847,0.87157973310162,-2.981353835330869,12,True
2024-07-06,0.87157973310162,0.8784859971332063,0.7923846516037614,0,True
2024-07-07,0.8784859971332063,0.8784859971332063,0.0,0,False
2024-07-08,0.8784859971332063,0.8795039984012173,0.11588133121449573,2,True
2024-07-09,0.8795039984012173,0.8804400690246588,0.10643165069665894,1,True
2024-07-10,0.8804400690246588,0.8834949166915886,0.34696826898326094,1,True
2024-07-11,0.8834949166915886,0.8738389926352911,-1.0929235555147243,2,True
2024-07-12,0.8738389926352911,0.8738389926352911,0.0,0,False
2024-07-13,0.8738389926352911,0.8738389926352911,0.0,0,False
2024-07-14,0.8738389926352911,0.8744066479862974,0.06496109189342292,1,True
2024-07-15,0.8744066479862974,0.8762618992887347,0.21217259803658628,0,True
2024-07-16,0.8762618992887347,0.8745037731344033,-0.20063934718129728,1,True
2024-07-17,0.8745037731344033,0.8745037731344033,0.0,0,False
2024-07-18,0.8745037731344033,0.8745037731344033,0.0,0,False
2024-07-19,0.8745037731344033,0.8715331493154573,-0.3396925102219561,2,True
2024-07-20,0.8715331493154573,0.8731099447878483,0.1809220307488646,1,True
2024-07-21,0.8731099447878483,0.8728009277706017,-0.035392680966617185,1,True
2024-07-22,0.8728009277706017,0.8725495322557669,-0.028803305179447847,1,True
2024-07-23,0.8725495322557669,0.8693346750170432,-0.3684440962809843,3,True
2024-07-24,0.8693346750170432,0.8659752722339729,-0.3864337728164857,1,True
2024-07-25,0.8659752722339729,0.865164707395444,-0.09360138384064687,0,True
2024-07-26,0.865164707395444,0.865164707395444,0.0,0,False
2024-07-27,0.865164707395444,0.865164707395444,0.0,0,False
2024-07-28,0.865164707395444,0.8627279320800774,-0.28165449821716537,1,True
2024-07-29,0.8627279320800774,0.8627279320800774,0.0,0,False
2024-07-30,0.8627279320800774,0.8602088813292957,-0.2919866921090697,2,True
2024-07-31,0.8602088813292957,0.8486918783144167,-1.3388612074176187,4,True
2024-08-01,0.8486918783144167,0.8461484285229763,-0.29969060108032686,0,True
2024-08-02,0.8461484285229763,0.8393235906508596,-0.8065769127563183,4,True
2024-08-03,0.8393235906508596,0.8402163925930657,0.10637160115012367,5,True
2024-08-04,0.8402163925930657,0.8182953044715878,-2.6089812475361573,2,True
2024-08-05,0.8182953044715878,0.802107612246912,-1.978221326239804,8,True
2024-08-06,0.802107612246912,0.8077082646513426,0.6982420212596763,0,True
2024-08-07,0.8077082646513426,0.8077082646513426,0.0,0,False
2024-08-08,0.8077082646513426,0.8077082646513426,0.0,0,False
2024-08-09,0.8077082646513426,0.8077082646513426,0.0,0,False
2024-08-10,0.8077082646513426,0.8077082646513426,0.0,0,False
2024-08-11,0.8077082646513426,0.80447506425315,-0.4002930933965754,1,True
2024-08-12,0.80447506425315,0.8044569015902664,-0.002257703649322096,1,True
2024-08-13,0.8044569015902664,0.7996527349022101,-0.5971937935468352,0,True
2024-08-14,0.7996527349022101,0.7996527349022101,0.0,0,False
2024-08-15,0.7996527349022101,0.7996527349022101,0.0,0,False
2024-08-16,0.7996527349022101,0.7996527349022101,0.0,0,False
2024-08-17,0.7996527349022101,0.8067518085375855,0.8877695686545284,1,True
2024-08-18,0.8067518085375855,0.8067518085375855,0.0,0,False
2024-08-19,0.8067518085375855,0.8062704566249342,-0.059665427155830564,1,True
2024-08-20,0.8062704566249342,0.7990957169689629,-0.8898676116702808,2,True
2024-08-21,0.7990957169689629,0.8019079623094252,0.35192847123863835,0,True
2024-08-22,0.8019079623094252,0.8019079623094252,0.0,0,False
2024-08-23,0.8019079623094252,0.8019079623094252,0.0,0,False
2024-08-24,0.8019079623094252,0.8005401557159896,-0.17056902509066107,1,True
2024-08-25,0.8005401557159896,0.7982516710853701,-0.2858675625800111,2,True
2024-08-26,0.7982516710853701,0.7990142518713289,0.09553137357318775,2,True
2024-08-27,0.7990142518713289,0.7932850116779263,-0.7170385484344566,0,True
2024-08-28,0.7932850116779263,0.7948300780996247,0.1947681349015129,4,True
2024-08-29,0.7948300780996247,0.7856301710591796,-1.1574684066362084,2,True
2024-08-30,0.7856301710591796,0.7864276310318118,0.10150577230976232,0,True
2024-08-31,0.7864276310318118,0.7864276310318118,0.0,0,False
2024-09-01,0.7864276310318118,0.7840264528807837,-0.30532728712465707,1,True
2024-09-02,0.7840264528807837,0.7853401306717878,0.16755528926060137,0,True
2024-09-03,0.7853401306717878,0.7853401306717878,0.0,0,False
2024-09-04,0.7853401306717878,0.7853401306717878,0.0,0,False
2024-09-05,0.7853401306717878,0.7853401306717878,0.0,0,False
2024-09-06,0.7853401306717878,0.7851340206363745,-0.026244683973675187,1,True
2024-09-07,0.7851340206363745,0.7862275071174478,0.13927386310264023,0,True
2024-09-08,0.7862275071174478,0.7862275071174478,0.0,0,False
2024-09-09,0.7862275071174478,0.7862275071174478,0.0,0,False
2024-09-10,0.7862275071174478,0.7862275071174478,0.0,0,False
2024-09-11,0.7862275071174478,0.782305353823239,-0.49885729750014374,1,True
2024-09-12,0.782305353823239,0.782305353823239,0.0,0,False
2024-09-13,0.782305353823239,0.782108483683908,-0.025165383103775696,1,True
2024-09-14,0.782108483683908,0.7834924163889307,0.17694894428252894,0,True
2024-09-15,0.7834924163889307,0.7850945913915995,0.20449144996872448,1,True
2024-09-16,0.7850945913915995,0.7852885784654509,0.024708751783331095,0,True
2024-09-17,0.7852885784654509,0.7852885784654509,0.0,0,False
2024-09-18,0.7852885784654509,0.7852885784654509,0.0,0,False
2024-09-19,0.7852885784654509,0.7852885784654509,0.0,0,False
2024-09-20,0.7852885784654509,0.7852885784654509,0.0,0,False
2024-09-21,0.7852885784654509,0.7852885784654509,0.0,0,False
2024-09-22,0.7852885784654509,0.7852482362830001,-0.005137242990282953,1,True
2024-09-23,0.7852482362830001,0.7843928046352391,-0.10893773564016884,0,True
2024-09-24,0.7843928046352391,0.7843928046352391,0.0,0,False
2024-09-25,0.7843928046352391,0.7843928046352391,0.0,0,False
2024-09-26,0.7843928046352391,0.7843928046352391,0.0,0,False
2024-09-27,0.7843928046352391,0.7843928046352391,0.0,0,False
2024-09-28,0.7843928046352391,0.7843928046352391,0.0,0,False
2024-09-29,0.7843928046352391,0.7843928046352391,0.0,0,False
2024-09-30,0.7843928046352391,0.782760253137557,-0.20812933112526188,1,True
2024-10-01,0.782760253137557,0.7838360762999393,0.1374396768448749,0,True
2024-10-02,0.7838360762999393,0.7664874683117008,-2.213295421426864,7,True
2024-10-03,0.7664874683117008,0.7569865261304425,-1.2395430550463549,1,True
2024-10-04,0.7569865261304425,0.7569865261304425,0.0,0,False
2024-10-05,0.7569865261304425,0.7569865261304425,0.0,0,False
2024-10-06,0.7569865261304425,0.7569865261304425,0.0,0,False
2024-10-07,0.7569865261304425,0.7569865261304425,0.0,0,False
2024-10-08,0.7569865261304425,0.7569865261304425,0.0,0,False
2024-10-09,0.7569865261304425,0.7569865261304425,0.0,0,False
2024-10-10,0.7569865261304425,0.7569865261304425,0.0,0,False
2024-10-11,0.7569865261304425,0.7569865261304425,0.0,0,False
2024-10-12,0.7569865261304425,0.7569865261304425,0.0,0,False
2024-10-13,0.7569865261304425,0.7569865261304425,0.0,0,False
2024-10-14,0.7569865261304425,0.7569865261304425,0.0,0,False
2024-10-15,0.7569865261304425,0.7570515665063133,0.008592012357655499,1,True
2024-10-16,0.7570515665063133,0.7568279588112558,-0.029536653109307753,3,True
2024-10-17,0.7568279588112558,0.7546480036325355,-0.2880384046784257,2,True
2024-10-18,0.7546480036325355,0.7599568731150556,0.7034895019884191,1,True
2024-10-19,0.7599568731150556,0.7592065119153717,-0.09873733973984056,1,True
2024-10-20,0.7592065119153717,0.7604368369681445,0.16205407006701922,2,True
2024-10-21,0.7604368369681445,0.7576466676526477,-0.3669166431522708,0,True
2024-10-22,0.7576466676526477,0.7576466676526477,0.0,0,False
2024-10-23,0.7576466676526477,0.7576466676526477,0.0,0,False
2024-10-24,0.7576466676526477,0.7572015436149001,-0.058750873824420236,1,True
2024-10-25,0.7572015436149001,0.7569275509034442,-0.03618491189912865,0,True
2024-10-26,0.7569275509034442,0.7406286259671109,-2.1533005261704985,9,True
2024-10-27,0.7406286259671109,0.74654134453155,0.7983378385784556,0,True
2024-10-28,0.74654134453155,0.74654134453155,0.0,0,False
2024-10-29,0.74654134453155,0.755198618204566,1.1596509337936878,2,True
2024-10-30,0.755198618204566,0.7564759809117686,0.16914261710905265,0,True
2024-10-31,0.7564759809117686,0.7564759809117686,0.0,0,False
2024-11-01,0.7564759809117686,0.7556153948679863,-0.11376250740241511,2,True
2024-11-02,0.7556153948679863,0.7528024917290952,-0.37226652050711406,0,True
2024-11-03,0.7528024917290952,0.7475978200224433,-0.6913728054615431,2,True
2024-11-04,0.7475978200224433,0.756814197719667,1.2327988994064842,3,True
2024-11-05,0.756814197719667,0.7581610469476815,0.17796299700409968,1,True
2024-11-06,0.7581610469476815,0.7596144805424058,0.19170512657906702,1,True
2024-11-07,0.7596144805424058,0.7602709654419053,0.08642343140046194,1,True
2024-11-08,0.7602709654419053,0.7560975245998253,-0.548941236977829,2,True
2024-11-09,0.7560975245998253,0.757459714339337,0.18016058711907146,2,True
2024-11-10,0.757459714339337,0.7595084772196613,0.2704781312510063,1,True
2024-11-11,0.7595084772196613,0.759202439928104,-0.04029412452085657,2,True
2024-11-12,0.759202439928104,0.7562059048139349,-0.3946951374988794,4,True
2024-11-13,0.7562059048139349,0.752702637698079,-0.46326894481443226,0,True
2024-11-14,0.752702637698079,0.7477211268990175,-0.6618165726502534,4,True
2024-11-15,0.7477211268990175,0.7567318972757634,1.2050977366542703,2,True
2024-11-16,0.7567318972757634,0.7601883723222633,0.456763492981227,0,True
2024-11-17,0.7601883723222633,0.7545524931501459,-0.7413792919379492,4,True
2024-11-18,0.7545524931501459,0.7594973515947454,0.6553365722715254,1,True
2024-11-19,0.7594973515947454,0.757069681195482,-0.31964172016741843,1,True
2024-11-20,0.757069681195482,0.7583020415568344,0.16278030833389856,1,True
2024-11-21,0.7583020415568344,0.7683271230877293,1.3220433259434339,3,True
2024-11-22,0.7683271230877293,0.7671932877671485,-0.14757195034639237,0,True
2024-11-23,0.7671932877671485,0.7671932877671485,0.0,0,False
2024-11-24,0.7671932877671485,0.7695891354132018,0.31228735760009396,8,True
2024-11-25,0.7695891354132018,0.7774124082721854,1.0165518845043353,0,True
2024-11-26,0.7774124082721854,0.773310420284207,-0.5276463231523532,2,True
2024-11-27,0.773310420284207,0.7760638571148288,0.3560584156631297,0,True
2024-11-28,0.7760638571148288,0.773575948165394,-0.32058044278523434,2,True
2024-11-29,0.773575948165394,0.7827680447554051,1.188260391472995,2,True
2024-11-30,0.7827680447554051,0.7822207140838768,-0.06992245981365386,0,True
2024-12-01,0.7822207140838768,0.7826921133119478,0.06026422205183124,1,True
2024-12-02,0.7826921133119478,0.7897053888362527,0.896045252663713,6,True
2024-12-03,0.7897053888362527,0.8040056512088064,1.8108351006224321,5,True
2024-12-04,0.8040056512088064,0.8370260032125679,4.1069800882762575,1,True
2024-12-05,0.8370260032125679,0.8481343550545097,1.327121475235793,5,True
2024-12-06,0.8481343550545097,0.8462484914828121,-0.22235434285367006,1,True
2024-12-07,0.8462484914828121,0.8473307001644295,0.12788308546596294,1,True
2024-12-08,0.8473307001644295,0.8466706098455927,-0.07790232535049846,0,True
2024-12-09,0.8466706098455927,0.8466706098455927,0.0,0,False
2024-12-10,0.8466706098455927,0.8257342251962815,-2.4727898200138765,7,True
2024-12-11,0.8257342251962815,0.837791447274227,1.4601819459620247,3,True
2024-12-12,0.837791447274227,0.8409621707218005,0.3784621408930988,0,True
2024-12-13,0.8409621707218005,0.8409621707218005,0.0,0,False
2024-12-14,0.8409621707218005,0.8409621707218005,0.0,0,False
2024-12-15,0.8409621707218005,0.836055825364793,-0.5834204590673076,2,True
2024-12-16,0.836055825364793,0.8362360550408335,0.021557134173666448,0,True
2024-12-17,0.8362360550408335,0.8362360550408335,0.0,0,False
2024-12-18,0.8362360550408335,0.8320722167007983,-0.4979261914067834,2,True
2024-12-19,0.8320722167007983,0.8172687124276864,-1.7791129154400176,5,True
2024-12-20,0.8172687124276864,0.7851643630229068,-3.9282489243242957,10,True
2024-12-21,0.7851643630229068,0.7893472401906921,0.5327390499081153,1,True
2024-12-22,0.7893472401906921,0.7913284997654817,0.2509997468681746,0,True
2024-12-23,0.7913284997654817,0.7897246794516284,-0.2026744031497163,1,True
2024-12-24,0.7897246794516284,0.7971195313073538,0.9363835331650305,0,True
2024-12-25,0.7971195313073538,0.7971195313073538,0.0,0,False
2024-12-26,0.7971195313073538,0.7971195313073538,0.0,0,False
2024-12-27,0.7971195313073538,0.7971195313073538,0.0,0,False
2024-12-28,0.7971195313073538,0.7931424241609474,-0.4989348510735403,1,True
2024-12-29,0.7931424241609474,0.7968234844887283,0.4641108854661402,3,True
2024-12-30,0.7968234844887283,0.7973953694080053,0.07177059040170963,0,True
2024-12-31,0.7973953694080053,0.7973953694080053,0.0,0,False
