day,start_equity,end_equity,return_pct,entries,active
2024-01-02,1.0,0.9989153035442373,-0.10846964557627015,1,True
2024-01-03,0.9989153035442373,0.9911614874099226,-0.7762235803980055,9,True
2024-01-04,0.9911614874099226,0.9977057891450402,0.6602659423560642,0,True
2024-01-05,0.9977057891450402,0.982970938753975,-1.4768732978578614,4,True
2024-01-06,0.982970938753975,0.9724781167021812,-1.067460047709512,7,True
2024-01-07,0.9724781167021812,0.970736956025961,-0.17904368708313578,3,True
2024-01-08,0.970736956025961,0.9652970025084998,-0.5603941916182409,7,True
2024-01-09,0.9652970025084998,0.9740006760223652,0.9016575718403086,0,True
2024-01-10,0.9740006760223652,0.9646261348668812,-0.9624778900326647,4,True
2024-01-11,0.9646261348668812,0.9815832697561151,1.7578971039981184,3,True
2024-01-12,0.9815832697561151,0.9753689532805643,-0.6330911158555996,5,True
2024-01-13,0.9753689532805643,0.9667914077302909,-0.8794154787707287,6,True
2024-01-14,0.9667914077302909,0.9718527753105763,0.5235221930827816,0,True
2024-01-15,0.9718527753105763,0.9663473462948284,-0.5664879656271493,2,True
2024-01-16,0.9663473462948284,0.967337798554302,0.10249443569863015,1,True
2024-01-17,0.967337798554302,0.9725934016424509,0.5433058747423614,0,True
2024-01-18,0.9725934016424509,0.9717140494477057,-0.09041313597852874,1,True
2024-01-19,0.9717140494477057,0.9629037163724041,-0.9066796019167489,1,True
2024-01-20,0.9629037163724041,0.9839521851549303,2.1859370178591853,7,True
2024-01-21,0.9839521851549303,0.9966767838490737,1.293213114023395,1,True
2024-01-22,0.9966767838490737,0.9751833134149033,-2.1565136042563937,4,True
2024-01-23,0.9751833134149033,0.9496039010040142,-2.6230363111233945,8,True
2024-01-24,0.9496039010040142,0.9584340944414357,0.9298817568130557,1,True
2024-01-25,0.9584340944414357,0.9486605953419431,-1.019736167168428,2,True
2024-01-26,0.9486605953419431,0.9486605953419431,0.0,0,False
2024-01-27,0.9486605953419431,0.9486605953419431,0.0,0,False
2024-01-28,0.9486605953419431,0.9466903805461512,-0.20768384451361754,1,True
2024-01-29,0.9466903805461512,0.9439197162568542,-0.29266847389941564,0,True
2024-01-30,0.9439197162568542,0.9439197162568542,0.0,0,False
2024-01-31,0.9439197162568542,0.9392109188919793,-0.49885570602845597,1,True
2024-02-01,0.9392109188919793,0.9392109188919793,0.0,0,False
2024-02-02,0.9392109188919793,0.9386274793825655,-0.062120179576075074,2,True
2024-02-03,0.9386274793825655,0.948211017113476,1.0210161050488997,1,True
2024-02-04,0.948211017113476,0.9467714524357064,-0.15181902042774587,1,True
2024-02-05,0.9467714524357064,0.9467714524357064,0.0,0,False
2024-02-06,0.9467714524357064,0.9403577051670554,-0.6774335297236367,2,True
2024-02-07,0.9403577051670554,0.9352376664642641,-0.5444777742190876,4,True
2024-02-08,0.9352376664642641,0.9599806162675664,2.645632301877332,1,True
2024-02-09,0.9599806162675664,0.9599806162675664,0.0,0,False
2024-02-10,0.9599806162675664,0.9542088572575462,-0.6012370366873521,2,True
2024-02-11,0.9542088572575462,0.9523850230725592,-0.1911357425699034,0,True
2024-02-12,0.9523850230725592,0.9543073564936462,0.201844146486585,1,True
2024-02-13,0.9543073564936462,0.954377365758044,0.007336133785562637,0,True
2024-02-14,0.954377365758044,0.9557746088878823,0.14640363235443044,2,True
2024-02-15,0.9557746088878823,0.9592637274656975,0.36505663002233124,1,True
2024-02-16,0.9592637274656975,0.9620257880010971,0.28793547137413444,3,True
2024-02-17,0.9620257880010971,0.9652215488045722,0.33219076279809023,5,True
2024-02-18,0.9652215488045722,0.9687122175628076,0.3616443046219331,1,True
2024-02-19,0.9687122175628076,0.9698634792745545,0.11884455371518055,2,True
2024-02-20,0.9698634792745545,0.967766370865875,-0.21622717562765903,8,True
2024-02-21,0.967766370865875,0.9616044137987526,-0.6367194865026349,7,True
2024-02-22,0.9616044137987526,1.0096019491423833,4.991401313770982,4,True
2024-02-23,1.0096019491423833,1.0060345758940563,-0.3533445286389658,3,True
2024-02-24,1.0060345758940563,1.0020896678994748,-0.39212449443655206,5,True
2024-02-25,1.0020896678994748,0.9933903922088857,-0.8681135001445628,4,True
2024-02-26,0.9933903922088857,0.9910517870967203,-0.2354165220951443,4,True
2024-02-27,0.9910517870967203,0.9931264902672979,0.20934356787303265,2,True
2024-02-28,0.9931264902672979,1.0032288993077636,1.0172328640379646,5,True
2024-02-29,1.0032288993077636,1.0043727277632268,0.11401470354897025,8,True
2024-03-01,1.0043727277632268,1.0031155663435158,-0.12516881282815806,5,True
2024-03-02,1.0031155663435158,1.0084409283206823,0.5308821990050561,4,True
2024-03-03,1.0084409283206823,1.010275118107176,0.18188371127976222,9,True
2024-03-04,1.010275118107176,1.0235219729706382,1.311212621793656,1,True
2024-03-05,1.0235219729706382,1.022237878171177,-0.1254584496837241,10,True
2024-03-06,1.022237878171177,1.0121448467759155,-0.9873466451192581,16,True
2024-03-07,1.0121448467759155,1.0154868208801877,0.3301873358262597,3,True
2024-03-08,1.0154868208801877,1.019704084583549,0.41529477455020114,5,True
2024-03-09,1.019704084583549,1.0067276945365184,-1.272564290289191,5,True
2024-03-10,1.0067276945365184,1.0042271781021666,-0.24838061453182902,8,True
2024-03-11,1.0042271781021666,1.0056621096582123,0.14288913777036338,3,True
2024-03-12,1.0056621096582123,1.000497409482618,-0.5135621722239914,3,True
2024-03-13,1.000497409482618,1.008342467343674,0.784115759491355,5,True
2024-03-14,1.008342467343674,1.0106755335944742,0.2313763752255893,5,True
2024-03-15,1.0106755335944742,0.9728920955047742,-3.738434030882587,14,True
2024-03-16,0.9728920955047742,0.9810250849986726,0.8359600752721352,3,True
2024-03-17,0.9810250849986726,0.9727139330498276,-0.8471905638229749,6,True
2024-03-18,0.9727139330498276,0.9785010885283577,0.5949493763685698,4,True
2024-03-19,0.9785010885283577,0.9630570961822242,-1.578331646964326,14,True
2024-03-20,0.9630570961822242,0.9499762060205824,-1.3582673564731973,4,True
2024-03-21,0.9499762060205824,0.9489662184669173,-0.10631714218358734,4,True
2024-03-22,0.9489662184669173,0.9597871681568994,1.1402881872300652,8,True
2024-03-23,0.9597871681568994,0.9768659833882808,1.7794377543282058,5,True
2024-03-24,0.9768659833882808,0.9831841412253126,0.6467783651465941,4,True
2024-03-25,0.9831841412253126,0.9953936628654658,1.2418346806262415,4,True
2024-03-26,0.9953936628654658,1.0058067988141561,1.0461324335453215,4,True
2024-03-27,1.0058067988141561,1.0012816347957787,-0.44990390040240413,6,True
2024-03-28,1.0012816347957787,0.9902275421608532,-1.103994345924475,2,True
2024-03-29,0.9902275421608532,0.9850011592599698,-0.5277961557682453,6,True
2024-03-30,0.9850011592599698,0.9754447726038584,-0.9701903968611592,2,True
2024-03-31,0.9754447726038584,0.97535852329635,-0.008842049281598818,0,True
2024-04-01,0.97535852329635,0.9732223910862875,-0.21900994957660957,5,True
2024-04-02,0.9732223910862875,0.9444708530770496,-2.954261869904795,5,True
2024-04-03,0.9444708530770496,0.9228904158684408,-2.2849235779273225,3,True
2024-04-04,0.9228904158684408,0.9221884067031313,-0.0760663620771207,1,True
2024-04-05,0.9221884067031313,0.9156438631120427,-0.709675327028414,5,True
2024-04-06,0.9156438631120427,0.9108775743895224,-0.5205395803474122,1,True
2024-04-07,0.9108775743895224,0.9241633803680751,1.458572079508813,3,True
2024-04-08,0.9241633803680751,0.9200588580178871,-0.44413384444569326,1,True
2024-04-09,0.9200588580178871,0.9103665432396555,-1.0534450805801843,3,True
2024-04-10,0.9103665432396555,0.9101110657319277,-0.028063147709567193,4,True
2024-04-11,0.9101110657319277,0.9167972720192847,0.7346582784354849,1,True
2024-04-12,0.9167972720192847,0.913282411658213,-0.3833846880161529,9,True
2024-04-13,0.913282411658213,0.8841550887365539,-3.1893007628137404,11,True
2024-04-14,0.8841550887365539,0.864228733619742,-2.2537171782030296,11,True
2024-04-15,0.864228733619742,0.8753543731117102,1.287348945847877,1,True
2024-04-16,0.8753543731117102,0.8678729082933591,-0.8546784077579916,1,True
2024-04-17,0.8678729082933591,0.8667887594675462,-0.12492022915484569,0,True
2024-04-18,0.8667887594675462,0.8745906245223634,0.900088397501797,1,True
2024-04-19,0.8745906245223634,0.8777079750198477,0.3564353893213523,5,True
2024-04-20,0.8777079750198477,0.8757141452727997,-0.2271632255594902,0,True
2024-04-21,0.8757141452727997,0.8757141452727997,0.0,0,False
2024-04-22,0.8757141452727997,0.8757141452727997,0.0,0,False
2024-04-23,0.8757141452727997,0.8845268166742135,1.006341104455788,3,True
2024-04-24,0.8845268166742135,0.8831283406095948,-0.1581044280688948,3,True
2024-04-25,0.8831283406095948,0.8836589946002325,0.060087981127554535,2,True
2024-04-26,0.8836589946002325,0.8863847315848581,0.3084602772428946,2,True
2024-04-27,0.8863847315848581,0.8882858686464018,0.21448215360664324,6,True
2024-04-28,0.8882858686464018,0.8938979754341496,0.631790618970407,3,True
2024-04-29,0.8938979754341496,0.8974556957300672,0.3980007107846628,2,True
2024-04-30,0.8974556957300672,0.8885289038832722,-0.9946777193868273,2,True
2024-05-01,0.8885289038832722,0.8759886474768371,-1.411350418835955,6,True
2024-05-02,0.8759886474768371,0.8870344902115236,1.2609572928259372,3,True
2024-05-03,0.8870344902115236,0.8848097151899708,-0.25081043027113115,1,True
2024-05-04,0.8848097151899708,0.88568312624431,0.0987117387326375,0,True
2024-05-05,0.88568312624431,0.8819917426402856,-0.416783779056229,1,True
2024-05-06,0.8819917426402856,0.8812608586409308,-0.08286744240562083,0,True
2024-05-07,0.8812608586409308,0.8862033368824052,0.5608416841633712,3,True
2024-05-08,0.8862033368824052,0.891180102716381,0.5615828362239839,3,True
2024-05-09,0.891180102716381,0.8852038993405069,-0.6705943453695018,1,True
2024-05-10,0.8852038993405069,0.8852995049926886,0.01080041019396738,2,True
2024-05-11,0.8852995049926886,0.8817945478557119,-0.3959063703538046,4,True
2024-05-12,0.8817945478557119,0.8765631847352613,-0.5932632644613078,0,True
2024-05-13,0.8765631847352613,0.8838883843214566,0.8356727402837105,5,True
2024-05-14,0.8838883843214566,0.8753880988125207,-0.9616921841847037,4,True
2024-05-15,0.8753880988125207,0.8771748945999966,0.20411469951440164,3,True
2024-05-16,0.8771748945999966,0.8663763975939871,-1.2310540432115102,2,True
2024-05-17,0.8663763975939871,0.8669494170186882,0.06613977784857283,0,True
2024-05-18,0.8669494170186882,0.8722957803909722,0.6166868870699949,2,True
2024-05-19,0.8722957803909722,0.8718184817921721,-0.0547175177880721,0,True
2024-05-20,0.8718184817921721,0.8753788511388347,0.40838424752633884,2,True
2024-05-21,0.8753788511388347,0.8702007444846257,-0.5915275023462674,2,True
2024-05-22,0.8702007444846257,0.8738682992821789,0.4214607745165022,1,True
2024-05-23,0.8738682992821789,0.8586516816971457,-1.7412941512505498,5,True
2024-05-24,0.8586516816971457,0.875006401732939,1.9046978401611847,3,True
2024-05-25,0.875006401732939,0.874069101219776,-0.10711927493406437,0,True
2024-05-26,0.874069101219776,0.8783378885672491,0.48838099201951035,3,True
2024-05-27,0.8783378885672491,0.8980982852834853,2.2497488692500234,3,True
2024-05-28,0.8980982852834853,0.9064118863717738,0.9256894512012392,2,True
2024-05-29,0.9064118863717738,0.9078465294459351,0.1582771691028828,1,True
2024-05-30,0.9078465294459351,0.8869635595063766,-2.3002753507581852,5,True
2024-05-31,0.8869635595063766,0.8864407440223224,-0.058944415297645936,1,True
2024-06-01,0.8864407440223224,0.882638928273622,-0.4288854922720797,2,True
2024-06-02,0.882638928273622,0.8909902725267422,0.9461790077007981,0,True
2024-06-03,0.8909902725267422,0.8787541116107522,-1.3733214933188576,5,True
2024-06-04,0.8787541116107522,0.8825066972692154,0.4270347767232341,5,True
2024-06-05,0.8825066972692154,0.8842580768684649,0.1984551057424122,0,True
2024-06-06,0.8842580768684649,0.8834459360257018,-0.09184432282929311,2,True
2024-06-07,0.8834459360257018,0.8802573423995094,-0.36092685428342763,0,True
2024-06-08,0.8802573423995094,0.8970301419822673,1.9054427353069947,8,True
2024-06-09,0.8970301419822673,0.9040721677892711,0.7850378128255953,1,True
2024-06-10,0.9040721677892711,0.9056554335391066,0.1751260359786455,0,True
2024-06-11,0.9056554335391066,0.9030556607084927,-0.28705981704924,2,True
2024-06-12,0.9030556607084927,0.9145745083161365,1.275541266039637,3,True
2024-06-13,0.9145745083161365,0.9159409382246405,0.14940607857305555,3,True
2024-06-14,0.9159409382246405,0.8988765428518944,-1.8630453843259565,5,True
2024-06-15,0.8988765428518944,0.9034781754845181,0.5119315515814904,5,True
2024-06-16,0.9034781754845181,0.9044601303606609,0.10868606489760069,0,True
2024-06-17,0.9044601303606609,0.8884895203285808,-1.7657616401191345,4,True
2024-06-18,0.8884895203285808,0.8931016056591474,0.5190928227111868,5,True
2024-06-19,0.8931016056591474,0.9074808778730045,1.6100376623155332,0,True
2024-06-20,0.9074808778730045,0.9154870532819797,0.8822417754675405,1,True
2024-06-21,0.9154870532819797,0.9136387305929081,-0.20189501123422104,1,True
2024-06-22,0.9136387305929081,0.917551106785575,0.42821917040754,2,True
2024-06-23,0.917551106785575,0.9197321775756427,0.2377056464689442,2,True
2024-06-24,0.9197321775756427,0.91999074764455,0.02811362646775173,1,True
2024-06-25,0.91999074764455,0.928081047934415,0.8793893102271522,0,True
2024-06-26,0.928081047934415,0.928081047934415,0.0,0,False
2024-06-27,0.928081047934415,0.9234606582804887,-0.4978433364424051,1,True
2024-06-28,0.9234606582804887,0.9213764321461468,-0.22569733920476676,2,True
2024-06-29,0.9213764321461468,0.9050717611754107,-1.7695993083693295,5,True
2024-06-30,0.9050717611754107,0.9098191675394568,0.5245336964088576,0,True
2024-07-01,0.9098191675394568,0.903483209274507,-0.6963975360164132,2,True
2024-07-02,0.903483209274507,0.908504346865522,0.5557532823489808,0,True
2024-07-03,0.908504346865522,0.9039755250218106,-0.4984920390679992,1,True
2024-07-04,0.9039755250218106,0.8882448612892688,-1.7401647829084932,5,True
2024-07-05,0.8882448612892688,0.8357260771298715,-5.912647114351721,18,True
2024-07-06,0.8357260771298715,0.8458732808913172,1.214178190573434,2,True
2024-07-07,0.8458732808913172,0.85212367950175,0.7389284839268928,1,True
2024-07-08,0.85212367950175,0.8528483935096643,0.08504798368449418,2,True
2024-07-09,0.8528483935096643,0.8604802143638369,0.8948625467612104,2,True
2024-07-10,0.8604802143638369,0.8643311446743586,0.44753269700323894,1,True
2024-07-11,0.8643311446743586,0.8546460576895152,-1.1205296771403805,2,True
2024-07-12,0.8546460576895152,0.8546460576895152,0.0,0,False
2024-07-13,0.8546460576895152,0.8534322297690916,-0.14202697239429352,2,True
2024-07-14,0.8534322297690916,0.8708480949147265,2.040685193052405,1,True
2024-07-15,0.8708480949147265,0.8732303085807668,0.27355099930184146,0,True
2024-07-16,0.8732303085807668,0.8766377597950681,0.3902122018461851,2,True
2024-07-17,0.8766377597950681,0.8812237953224925,0.5231391730714963,1,True
2024-07-18,0.8812237953224925,0.8823626926472301,0.12924041892454774,0,True
2024-07-19,0.8823626926472301,0.8797926641570303,-0.2912666765736982,2,True
2024-07-20,0.8797926641570303,0.8808739377808789,0.12290095927141031,0,True
2024-07-21,0.8808739377808789,0.8804677959463652,-0.046106692126324234,1,True
2024-07-22,0.8804677959463652,0.8801261397264485,-0.03880394280059152,1,True
2024-07-23,0.8801261397264485,0.8741769306624854,-0.6759495935221516,3,True
2024-07-24,0.8741769306624854,0.869756856065469,-0.5056270008940378,1,True
2024-07-25,0.869756856065469,0.8637211120833179,-0.6939576204613163,3,True
2024-07-26,0.8637211120833179,0.862650977670698,-0.1238981423110963,0,True
2024-07-27,0.862650977670698,0.8659319757297861,0.3803389950298719,1,True
2024-07-28,0.8659319757297861,0.8547141582152118,-1.2954617486113928,2,True
2024-07-29,0.8547141582152118,0.8540725041812937,-0.07507235345884933,0,True
2024-07-30,0.8540725041812937,0.8508143416549317,-0.38148547230016927,2,True
2024-07-31,0.8508143416549317,0.8426752969874036,-0.956618179672053,4,True
2024-08-01,0.8426752969874036,0.8427028714420292,0.003272251450137098,1,True
2024-08-02,0.8427028714420292,0.8292488195815942,-1.5965356611889026,4,True
2024-08-03,0.8292488195815942,0.8237257655297497,-0.6660309814647936,7,True
2024-08-04,0.8237257655297497,0.7949508135570442,-3.4932684124794777,4,True
2024-08-05,0.7949508135570442,0.7774292689928107,-2.204104237070026,16,True
2024-08-06,0.7774292689928107,0.7865395584548085,1.1718480156787114,0,True
2024-08-07,0.7865395584548085,0.7861648536437282,-0.047639665043219814,1,True
2024-08-08,0.7861648536437282,0.7826157448881403,-0.451445869036049,0,True
2024-08-09,0.7826157448881403,0.7826157448881403,0.0,0,False
2024-08-10,0.7826157448881403,0.7826157448881403,0.0,0,False
2024-08-11,0.7826157448881403,0.7787034059383702,-0.49990547408796937,1,True
2024-08-12,0.7787034059383702,0.7796988156747516,0.12782912323106022,1,True
2024-08-13,0.7796988156747516,0.7748154458338877,-0.6263148978413957,0,True
2024-08-14,0.7748154458338877,0.7748154458338877,0.0,0,False
2024-08-15,0.7748154458338877,0.7748154458338877,0.0,0,False
2024-08-16,0.7748154458338877,0.7748154458338877,0.0,0,False
2024-08-17,0.7748154458338877,0.7814329765105597,0.8540783114551642,1,True
2024-08-18,0.7814329765105597,0.7885904333778303,0.9159399567742588,1,True
2024-08-19,0.7885904333778303,0.7851387634582522,-0.43770121643414983,3,True
2024-08-20,0.7851387634582522,0.7770924280856604,-1.0248297176349563,2,True
2024-08-21,0.7770924280856604,0.776400679405875,-0.08901755502745967,0,True
2024-08-22,0.776400679405875,0.7767871267063876,0.049774209472408515,1,True
2024-08-23,0.7767871267063876,0.7773050566652115,0.06667591944011786,0,True
2024-08-24,0.7773050566652115,0.7752753205742553,-0.26112477637341147,2,True
2024-08-25,0.7752753205742553,0.7738281024274661,-0.1866715098988614,2,True
2024-08-26,0.7738281024274661,0.7759587836670813,0.2753429647917027,2,True
2024-08-27,0.7759587836670813,0.7697098473149081,-0.805318076643391,1,True
2024-08-28,0.7697098473149081,0.7700870586560452,0.04900695274367983,4,True
2024-08-29,0.7700870586560452,0.7638589425951928,-0.8087548012716494,3,True
2024-08-30,0.7638589425951928,0.7660113481190419,0.28178049687241913,0,True
2024-08-31,0.7660113481190419,0.7660113481190419,0.0,0,False
2024-09-01,0.7660113481190419,0.7622063874392907,-0.4967238003842134,1,True
2024-09-02,0.7622063874392907,0.763226534502826,0.13384131651830167,1,True
2024-09-03,0.763226534502826,0.7613432610086094,-0.24675157493618816,0,True
2024-09-04,0.7613432610086094,0.7613432610086094,0.0,0,False
2024-09-05,0.7613432610086094,0.7613432610086094,0.0,0,False
2024-09-06,0.7613432610086094,0.7610836676752656,-0.03409675328311934,1,True
2024-09-07,0.7610836676752656,0.7624609019279258,0.18095701053040258,0,True
2024-09-08,0.7624609019279258,0.7624609019279258,0.0,0,False
2024-09-09,0.7624609019279258,0.7624609019279258,0.0,0,False
2024-09-10,0.7624609019279258,0.7624609019279258,0.0,0,False
2024-09-11,0.7624609019279258,0.7548748375803094,-0.9949447018771207,2,True
2024-09-12,0.7548748375803094,0.7548748375803094,0.0,0,False
2024-09-13,0.7548748375803094,0.7546276316418666,-0.032747937291843776,1,True
2024-09-14,0.7546276316418666,0.7563654085553665,0.23028270376461712,0,True
2024-09-15,0.7563654085553665,0.7580669387003445,0.224961391112255,2,True
2024-09-16,0.7580669387003445,0.7530843598174611,-0.6572742628013328,2,True
2024-09-17,0.7530843598174611,0.7587698939778226,0.7549664371916398,1,True
2024-09-18,0.7587698939778226,0.7588559860091574,0.011346263474365514,0,True
2024-09-19,0.7588559860091574,0.7588688302289314,0.001692576722178707,1,True
2024-09-20,0.7588688302289314,0.7642354239999688,0.7071833177570985,2,True
2024-09-21,0.7642354239999688,0.7552341517539772,-1.1778140561555461,2,True
2024-09-22,0.7552341517539772,0.7619066989131115,0.8835070744136475,2,True
2024-09-23,0.7619066989131115,0.7608331520840093,-0.14090266309951804,0,True
2024-09-24,0.7608331520840093,0.7608331520840093,0.0,0,False
2024-09-25,0.7608331520840093,0.7608331520840093,0.0,0,False
2024-09-26,0.7608331520840093,0.7608331520840093,0.0,0,False
2024-09-27,0.7608331520840093,0.7608331520840093,0.0,0,False
2024-09-28,0.7608331520840093,0.7608331520840093,0.0,0,False
2024-09-29,0.7608331520840093,0.7608331520840093,0.0,0,False
2024-09-30,0.7608331520840093,0.7574567961339221,-0.44377087681298777,2,True
2024-10-01,0.7574567961339221,0.757765949282103,0.04081462464378127,0,True
2024-10-02,0.757765949282103,0.7400840256847544,-2.3334281006028523,11,True
2024-10-03,0.7400840256847544,0.7431207117596438,0.41031639239608175,3,True
2024-10-04,0.7431207117596438,0.7433774498580911,0.034548639862208574,2,True
2024-10-05,0.7433774498580911,0.7439582231264183,0.07812629619559086,0,True
2024-10-06,0.7439582231264183,0.7439582231264183,0.0,0,False
2024-10-07,0.7439582231264183,0.7439582231264183,0.0,0,False
2024-10-08,0.7439582231264183,0.7380662655152475,-0.7919742571579458,2,True
2024-10-09,0.7380662655152475,0.7384744785606854,0.05530845460779421,0,True
2024-10-10,0.7384744785606854,0.7384744785606854,0.0,0,False
2024-10-11,0.7384744785606854,0.7372798034381925,-0.16177608802694365,1,True
2024-10-12,0.7372798034381925,0.7380188729133366,0.10024273982516263,1,True
2024-10-13,0.7380188729133366,0.7379709561400306,-0.006492621674669685,0,True
2024-10-14,0.7379709561400306,0.7379709561400306,0.0,0,False
2024-10-15,0.7379709561400306,0.7380534294649683,0.011175687098718967,1,True
2024-10-16,0.7380534294649683,0.7332133932756975,-0.6557839847420643,5,True
2024-10-17,0.7332133932756975,0.7294429594117698,-0.5142341777313764,2,True
2024-10-18,0.7294429594117698,0.7382499463927487,1.2073578704606236,2,True
2024-10-19,0.7382499463927487,0.7416079587660552,0.45486117401221104,2,True
2024-10-20,0.7416079587660552,0.7431725556396103,0.21097358180437453,2,True
2024-10-21,0.7431725556396103,0.7392063093657739,-0.5336911654955867,1,True
2024-10-22,0.7392063093657739,0.7366357154882498,-0.3477505325583108,0,True
2024-10-23,0.7366357154882498,0.7329621777382794,-0.49869123540059457,1,True
2024-10-24,0.7329621777382794,0.7274946648742455,-0.7459474758854778,3,True
2024-10-25,0.7274946648742455,0.7239544904590715,-0.486625481409686,2,True
2024-10-26,0.7239544904590715,0.7101073692592536,-1.9127060308773314,9,True
2024-10-27,0.7101073692592536,0.7173816292844752,1.0243887530430484,0,True
2024-10-28,0.7173816292844752,0.714687263523627,-0.3755833228592187,1,True
2024-10-29,0.714687263523627,0.722422810579878,1.0823681141472141,2,True
2024-10-30,0.722422810579878,0.7240126660295885,0.22007270900461506,0,True
2024-10-31,0.7240126660295885,0.7240126660295885,0.0,0,False
2024-11-01,0.7240126660295885,0.7230362467330773,-0.13486218436836728,3,True
2024-11-02,0.7230362467330773,0.7207824950519224,-0.3117065971917965,1,True
2024-11-03,0.7207824950519224,0.7152852997643198,-0.7626704762310643,2,True
2024-11-04,0.7152852997643198,0.7254393942549985,1.419586631239933,4,True
2024-11-05,0.7254393942549985,0.7189406864816155,-0.8958305579829906,1,True
2024-11-06,0.7189406864816155,0.7230716752695397,0.5745938247201821,2,True
2024-11-07,0.7230716752695397,0.7196244838369474,-0.47674270068832625,2,True
2024-11-08,0.7196244838369474,0.7167897288710577,-0.39392141728907815,2,True
2024-11-09,0.7167897288710577,0.713992098739972,-0.39029997479065326,2,True
2024-11-10,0.713992098739972,0.7267569677313892,1.7878165618280928,3,True
2024-11-11,0.7267569677313892,0.7243765496534608,-0.3275397668850766,6,True
2024-11-12,0.7243765496534608,0.7201177307692814,-0.5879288729344845,7,True
2024-11-13,0.7201177307692814,0.7172008912109858,-0.40505037352428497,2,True
2024-11-14,0.7172008912109858,0.7157197023015612,-0.20652357346121475,4,True
2024-11-15,0.7157197023015612,0.7471284353164562,4.3884125187406475,4,True
2024-11-16,0.7471284353164562,0.7506597566226859,0.47265251050629953,1,True
2024-11-17,0.7506597566226859,0.7407675300058096,-1.3178043087566982,4,True
2024-11-18,0.7407675300058096,0.7429503319103667,0.2946676003118043,2,True
2024-11-19,0.7429503319103667,0.733363516567113,-1.290370961757692,4,True
2024-11-20,0.733363516567113,0.7380469419036698,0.6386226244905258,1,True
2024-11-21,0.7380469419036698,0.7527828345808331,1.996606427113501,4,True
2024-11-22,0.7527828345808331,0.7568558103892237,0.5410558824257006,4,True
2024-11-23,0.7568558103892237,0.7751474230463204,2.4167896191072513,0,True
2024-11-24,0.7751474230463204,0.7745672249405569,-0.07485003349213537,10,True
2024-11-25,0.7745672249405569,0.7824786243601157,1.0213960989849502,2,True
2024-11-26,0.7824786243601157,0.7692523569982472,-1.6903039840461487,5,True
2024-11-27,0.7692523569982472,0.7769328510453792,0.9984362059159091,3,True
2024-11-28,0.7769328510453792,0.7756295004740078,-0.1677558838730664,2,True
2024-11-29,0.7756295004740078,0.7864460170928865,1.3945468309635611,5,True
2024-11-30,0.7864460170928865,0.7851067442845414,-0.17029430873027884,1,True
2024-12-01,0.7851067442845414,0.7876196768994098,0.32007528061148705,3,True
2024-12-02,0.7876196768994098,0.7935122552226337,0.7481502171734711,8,True
2024-12-03,0.7935122552226337,0.8041893165716026,1.345544606109872,7,True
2024-12-04,0.8041893165716026,0.8153854174431832,1.3922220353922876,3,True
2024-12-05,0.8153854174431832,0.8163233196251104,0.11502562614722489,5,True
2024-12-06,0.8163233196251104,0.8156046081624874,-0.08804250048290996,2,True
2024-12-07,0.8156046081624874,0.8165934565651106,0.12124114953826481,2,True
2024-12-08,0.8165934565651106,0.8149335010862604,-0.20327807742087645,0,True
2024-12-09,0.8149335010862604,0.8128485773917661,-0.25583973314573516,2,True
2024-12-10,0.8128485773917661,0.7697969849922087,-5.296385279740479,16,True
2024-12-11,0.7697969849922087,0.781046206776885,1.4613231805253202,4,True
2024-12-12,0.781046206776885,0.7839173267041527,0.3675992409099438,0,True
2024-12-13,0.7839173267041527,0.7839173267041527,0.0,0,False
2024-12-14,0.7839173267041527,0.7839173267041527,0.0,0,False
2024-12-15,0.7839173267041527,0.778113097181963,-0.7404134753077329,3,True
2024-12-16,0.778113097181963,0.7754917407846812,-0.33688629670614034,0,True
2024-12-17,0.7754917407846812,0.7754917407846812,0.0,0,False
2024-12-18,0.7754917407846812,0.7716351768393365,-0.49730561171966725,2,True
2024-12-19,0.7716351768393365,0.7721065218025946,0.061083913409554214,10,True
2024-12-20,0.7721065218025946,0.73333247803211,-5.0218516066877665,16,True
2024-12-21,0.73333247803211,0.7437310815574933,1.4179930436584387,2,True
2024-12-22,0.7437310815574933,0.7478601640645139,0.555184879240711,1,True
2024-12-23,0.7478601640645139,0.7535989186533224,0.7673566349114092,3,True
2024-12-24,0.7535989186533224,0.7533996414859109,-0.026443398799935736,0,True
2024-12-25,0.7533996414859109,0.7589036467626523,0.7305558661915512,3,True
2024-12-26,0.7589036467626523,0.7534795836274029,-0.7147235565921339,1,True
2024-12-27,0.7534795836274029,0.7534795836274029,0.0,0,False
2024-12-28,0.7534795836274029,0.7497253403812769,-0.4982541435366139,1,True
2024-12-29,0.7497253403812769,0.7505779308141567,0.11372037024202086,4,True
2024-12-30,0.7505779308141567,0.7466837386167982,-0.5188258324001715,2,True
2024-12-31,0.7466837386167982,0.7438217756115241,-0.3832898531546669,2,True
