day,start_equity,end_equity,return_pct,entries,active
2024-01-02,1.0114191938274888,1.0092979910447522,-0.2097253834692836,0,True
2024-01-03,1.0092979910447522,1.0304440836192676,2.095128768920529,4,True
2024-01-04,1.0304440836192676,1.028807658066284,-0.15880779743390194,2,True
2024-01-05,1.028807658066284,1.028807658066284,0.0,0,False
2024-01-06,1.028807658066284,1.0416161124542245,1.2449804671958775,3,True
2024-01-07,1.0416161124542245,1.0608000704701057,1.841749353385147,2,True
2024-01-08,1.0608000704701057,1.0456252713477425,-1.4305051012711845,5,True
2024-01-09,1.0456252713477425,1.0439213088352204,-0.16296110654688833,1,True
2024-01-10,1.0439213088352204,1.02681794437749,-1.638376792673557,4,True
2024-01-11,1.02681794437749,1.02681794437749,0.0,0,False
2024-01-12,1.02681794437749,1.0359943805028198,0.8936770316078757,1,True
2024-01-13,1.0359943805028198,1.0359943805028198,0.0,0,False
2024-01-14,1.0359943805028198,1.0308162173700628,-0.4998254073775743,1,True
2024-01-15,1.0308162173700628,1.0359139699799247,0.49453554610032757,1,True
2024-01-16,1.0359139699799247,1.0359139699799247,0.0,0,False
2024-01-17,1.0359139699799247,1.0359139699799247,0.0,0,False
2024-01-18,1.0359139699799247,1.0307369349094184,-0.4997553098551766,1,True
2024-01-19,1.0307369349094184,1.0307369349094184,0.0,0,False
2024-01-20,1.0307369349094184,1.0307369349094184,0.0,0,False
2024-01-21,1.0307369349094184,1.0307369349094184,0.0,0,False
2024-01-22,1.0307369349094184,1.0307369349094184,0.0,0,False
2024-01-23,1.0307369349094184,1.0244447488178439,-0.6104550907674144,3,True
2024-01-24,1.0244447488178439,1.022977249094654,-0.14324830352083762,0,True
2024-01-25,1.022977249094654,1.0178665329042913,-0.4995923609137698,1,True
2024-01-26,1.0178665329042913,1.0178665329042913,0.0,0,False
2024-01-27,1.0178665329042913,1.0178665329042913,0.0,0,False
2024-01-28,1.0178665329042913,1.012875980466583,-0.49029536549046737,2,True
2024-01-29,1.012875980466583,1.0127673912484658,-0.010720879970627095,0,True
2024-01-30,1.0127673912484658,1.0127673912484658,0.0,0,False
2024-01-31,1.0127673912484658,1.0127673912484658,0.0,0,False
2024-02-01,1.0127673912484658,1.0127673912484658,0.0,0,False
2024-02-02,1.0127673912484658,1.013599641491884,0.08217585307443986,1,True
2024-02-03,1.013599641491884,1.0122832570101226,-0.12987223237607148,0,True
2024-02-04,1.0122832570101226,1.0122832570101226,0.0,0,False
2024-02-05,1.0122832570101226,1.0122832570101226,0.0,0,False
2024-02-06,1.0122832570101226,1.0045878274035211,-0.7602051652351394,2,True
2024-02-07,1.0045878274035211,0.9972010322800754,-0.7353060550751245,1,True
2024-02-08,0.9972010322800754,0.9972010322800754,0.0,0,False
2024-02-09,0.9972010322800754,0.9972010322800754,0.0,0,False
2024-02-10,0.9972010322800754,0.9972010322800754,0.0,0,False
2024-02-11,0.9972010322800754,0.9972010322800754,0.0,0,False
2024-02-12,0.9972010322800754,0.9972010322800754,0.0,0,False
2024-02-13,0.9972010322800754,0.9972010322800754,0.0,0,False
2024-02-14,0.9972010322800754,0.9972010322800754,0.0,0,False
2024-02-15,0.9972010322800754,1.0085925908459235,1.1423532665024938,2,True
2024-02-16,1.0085925908459235,1.0121501566157645,0.3527257489426061,1,True
2024-02-17,1.0121501566157645,1.0121501566157645,0.0,0,False
2024-02-18,1.0121501566157645,1.0121501566157645,0.0,0,False
2024-02-19,1.0121501566157645,1.0121501566157645,0.0,0,False
2024-02-20,1.0121501566157645,1.0070957229688662,-0.49937586966328773,1,True
2024-02-21,1.0070957229688662,1.0282358627739476,2.0991192121004643,5,True
2024-02-22,1.0282358627739476,1.0354094483669012,0.6976595402538033,1,True
2024-02-23,1.0354094483669012,1.0269641258839566,-0.8156505135494929,2,True
2024-02-24,1.0269641258839566,1.0250756560984007,-0.18388858363775906,0,True
2024-02-25,1.0250756560984007,1.0250756560984007,0.0,0,False
2024-02-26,1.0250756560984007,1.0291350561769994,0.39600980224712146,2,True
2024-02-27,1.0291350561769994,1.0252734186804302,-0.3752313628217374,2,True
2024-02-28,1.0252734186804302,1.0137899389113372,-1.1200407188818762,1,True
2024-02-29,1.0137899389113372,1.0303221894100778,1.6307372823697541,6,True
2024-03-01,1.0303221894100778,1.0295307042494557,-0.07681919003174054,2,True
2024-03-02,1.0295307042494557,1.0208292427545005,-0.8451871769379338,2,True
2024-03-03,1.0208292427545005,1.043900821396268,2.260082066175295,4,True
2024-03-04,1.043900821396268,1.0455264808754772,0.1557293035783669,0,True
2024-03-05,1.0455264808754772,1.0406233471258328,-0.4689631338212208,2,True
2024-03-06,1.0406233471258328,1.0707008234505146,2.8903326460774537,9,True
2024-03-07,1.0707008234505146,1.067797928486056,-0.27112101727013727,5,True
2024-03-08,1.067797928486056,1.0690187599910306,0.11433169819925482,1,True
2024-03-09,1.0690187599910306,1.0670088722441318,-0.1880123924968058,2,True
2024-03-10,1.0670088722441318,1.0756578662457472,0.810583138209986,1,True
2024-03-11,1.0756578662457472,1.0752015092614604,-0.04242584920423065,1,True
2024-03-12,1.0752015092614604,1.0957506150966814,1.911186476043536,2,True
2024-03-13,1.0957506150966814,1.0957506150966814,0.0,0,False
2024-03-14,1.0957506150966814,1.0957506150966814,0.0,0,False
2024-03-15,1.0957506150966814,1.090275702635385,-0.49964949924424795,1,True
2024-03-16,1.090275702635385,1.0848333870197298,-0.49916875176621023,1,True
2024-03-17,1.0848333870197298,1.07941763348556,-0.49922445224956924,1,True
2024-03-18,1.07941763348556,1.0771480155619395,-0.21026318759419516,1,True
2024-03-19,1.0771480155619395,1.0633316398723653,-1.2826812554972977,2,True
2024-03-20,1.0633316398723653,1.0626181625008695,-0.06709829226764219,1,True
2024-03-21,1.0626181625008695,1.0570109518479713,-0.5276787891241752,3,True
2024-03-22,1.0570109518479713,1.0677328791694736,1.0143629356684558,2,True
2024-03-23,1.0677328791694736,1.0633033074418767,-0.414857668431301,1,True
2024-03-24,1.0633033074418767,1.0592194860432524,-0.3840692839044424,2,True
2024-03-25,1.0592194860432524,1.0603303944998292,0.10487991121903573,0,True
2024-03-26,1.0603303944998292,1.0654862894617319,0.4862536232713266,1,True
2024-03-27,1.0654862894617319,1.0640223412654581,-0.13739718762718622,3,True
2024-03-28,1.0640223412654581,1.0640223412654581,0.0,0,False
2024-03-29,1.0640223412654581,1.0534308457827404,-0.9954204034965164,2,True
2024-03-30,1.0534308457827404,1.0534308457827404,0.0,0,False
2024-03-31,1.0534308457827404,1.0534308457827404,0.0,0,False
2024-04-01,1.0534308457827404,1.0465306595266661,-0.6550203350982331,2,True
2024-04-02,1.0465306595266661,1.0469633332226114,0.04134362352470333,2,True
2024-04-03,1.0469633332226114,1.0442519097090242,-0.2589797968608254,1,True
2024-04-04,1.0442519097090242,1.041731553381604,-0.24135520404481303,0,True
2024-04-05,1.041731553381604,1.0401927619583642,-0.14771477529357258,2,True
2024-04-06,1.0401927619583642,1.0358632771472667,-0.4162194709898204,0,True
2024-04-07,1.0358632771472667,1.041796918043763,0.5728208565166426,2,True
2024-04-08,1.041796918043763,1.0410664822711526,-0.07011306713998744,0,True
2024-04-09,1.0410664822711526,1.0358695295204976,-0.4991950888013963,1,True
2024-04-10,1.0358695295204976,1.030703707141221,-0.4986943077346595,1,True
2024-04-11,1.030703707141221,1.030703707141221,0.0,0,False
2024-04-12,1.030703707141221,1.025561823906313,-0.4988711304017457,1,True
2024-04-13,1.025561823906313,1.0309710802884164,0.5274432273131957,9,True
2024-04-14,1.0309710802884164,1.0052118647017831,-2.498539103485531,8,True
2024-04-15,1.0052118647017831,1.0168047056184397,1.1532733868094391,2,True
2024-04-16,1.0168047056184397,1.009132539314724,-0.7545368605517466,0,True
2024-04-17,1.009132539314724,1.00409494210852,-0.49920075014376897,1,True
2024-04-18,1.00409494210852,1.00409494210852,0.0,0,False
2024-04-19,1.00409494210852,1.00409494210852,0.0,0,False
2024-04-20,1.00409494210852,1.00409494210852,0.0,0,False
2024-04-21,1.00409494210852,1.00409494210852,0.0,0,False
2024-04-22,1.00409494210852,1.00409494210852,0.0,0,False
2024-04-23,1.00409494210852,0.9990801347438939,-0.4994355766891223,1,True
2024-04-24,0.9990801347438939,0.9990801347438939,0.0,0,False
2024-04-25,0.9990801347438939,1.002547686837004,0.3470744710582174,2,True
2024-04-26,1.002547686837004,1.002547686837004,0.0,0,False
2024-04-27,1.002547686837004,0.9975434304404353,-0.4991539517044785,1,True
2024-04-28,0.9975434304404353,0.9975434304404353,0.0,0,False
2024-04-29,0.9975434304404353,1.0058516420103765,0.832867153089567,1,True
2024-04-30,1.0058516420103765,1.0058516420103765,0.0,0,False
2024-05-01,1.0058516420103765,1.0058516420103765,0.0,0,False
2024-05-02,1.0058516420103765,1.0058516420103765,0.0,0,False
2024-05-03,1.0058516420103765,1.0058516420103765,0.0,0,False
2024-05-04,1.0058516420103765,1.0058516420103765,0.0,0,False
2024-05-05,1.0058516420103765,1.0058516420103765,0.0,0,False
2024-05-06,1.0058516420103765,1.0058516420103765,0.0,0,False
2024-05-07,1.0058516420103765,1.000829672912307,-0.49927532931518526,1,True
2024-05-08,1.000829672912307,1.000829672912307,0.0,0,False
2024-05-09,1.000829672912307,0.9859051994538409,-1.4912101291958524,5,True
2024-05-10,0.9859051994538409,0.9837672383435125,-0.21685260525177164,1,True
2024-05-11,0.9837672383435125,0.9838999946439195,0.013494686063197925,1,True
2024-05-12,0.9838999946439195,0.9813117524831316,-0.2630594750358317,0,True
2024-05-13,0.9813117524831316,0.985503822801041,0.4271904730888787,1,True
2024-05-14,0.985503822801041,0.985503822801041,0.0,0,False
2024-05-15,0.985503822801041,0.985503822801041,0.0,0,False
2024-05-16,0.985503822801041,0.985503822801041,0.0,0,False
2024-05-17,0.985503822801041,0.985503822801041,0.0,0,False
2024-05-18,0.985503822801041,0.985503822801041,0.0,0,False
2024-05-19,0.985503822801041,0.985503822801041,0.0,0,False
2024-05-20,0.985503822801041,0.985503822801041,0.0,0,False
2024-05-21,0.985503822801041,0.9875237159691571,0.20496045995794798,2,True
2024-05-22,0.9875237159691571,0.9875237159691571,0.0,0,False
2024-05-23,0.9875237159691571,0.9916998903089341,0.4228935743258111,1,True
2024-05-24,0.9916998903089341,0.9911708607678893,-0.05334572951097849,2,True
2024-05-25,0.9911708607678893,0.9911708607678893,0.0,0,False
2024-05-26,0.9911708607678893,0.9911708607678893,0.0,0,False
2024-05-27,0.9911708607678893,0.9911708607678893,0.0,0,False
2024-05-28,0.9911708607678893,0.9911708607678893,0.0,0,False
2024-05-29,0.9911708607678893,0.9911708607678893,0.0,0,False
2024-05-30,0.9911708607678893,0.9911708607678893,0.0,0,False
2024-05-31,0.9911708607678893,0.9862205631452619,-0.4994393821053489,2,True
2024-06-01,0.9862205631452619,0.9862205631452619,0.0,0,False
2024-06-02,0.9862205631452619,0.9837579525065359,-0.24970181425463256,1,True
2024-06-03,0.9837579525065359,0.9796889292027813,-0.4136203721034293,3,True
2024-06-04,0.9796889292027813,0.9765887287382632,-0.31644743266017183,2,True
2024-06-05,0.9765887287382632,0.9765887287382632,0.0,0,False
2024-06-06,0.9765887287382632,0.9717203225866254,-0.49851140079485434,2,True
2024-06-07,0.9717203225866254,0.9717203225866254,0.0,0,False
2024-06-08,0.9717203225866254,0.9844021577468546,1.305091070491482,5,True
2024-06-09,0.9844021577468546,0.9819446619461631,-0.24964347968479128,1,True
2024-06-10,0.9819446619461631,0.9819446619461631,0.0,0,False
2024-06-11,0.9819446619461631,0.9794926192985141,-0.2497129158774869,1,True
2024-06-12,0.9794926192985141,0.9770478848504325,-0.24959192135949326,1,True
2024-06-13,0.9770478848504325,0.972993719929651,-0.4149402484405429,2,True
2024-06-14,0.972993719929651,0.9705666264563257,-0.2494459546461103,1,True
2024-06-15,0.9705666264563257,0.9742067300506211,0.375049326349286,1,True
2024-06-16,0.9742067300506211,0.9742067300506211,0.0,0,False
2024-06-17,0.9742067300506211,0.9742067300506211,0.0,0,False
2024-06-18,0.9742067300506211,0.9790343327116888,0.4955419124251792,5,True
2024-06-19,0.9790343327116888,0.9769658610248121,-0.2112767262356985,1,True
2024-06-20,0.9769658610248121,0.9765872379319201,-0.038754997282586245,0,True
2024-06-21,0.9765872379319201,0.9765872379319201,0.0,0,False
2024-06-22,0.9765872379319201,0.9741492867528642,-0.24963987694727185,1,True
2024-06-23,0.9741492867528642,0.9776048728828975,0.3547286003310557,1,True
2024-06-24,0.9776048728828975,0.9778046987123354,0.02044034711576881,1,True
2024-06-25,0.9778046987123354,0.983294444942036,0.561435861059989,1,True
2024-06-26,0.983294444942036,0.9845578039165314,0.12848226500148385,0,True
2024-06-27,0.9845578039165314,0.9847321719525183,0.017710289359684772,1,True
2024-06-28,0.9847321719525183,0.9820972882805028,-0.2675736354577518,0,True
2024-06-29,0.9820972882805028,0.9772052164187309,-0.4981249739867577,2,True
2024-06-30,0.9772052164187309,0.9772052164187309,0.0,0,False
2024-07-01,0.9772052164187309,0.9772052164187309,0.0,0,False
2024-07-02,0.9772052164187309,0.9772052164187309,0.0,0,False
2024-07-03,0.9772052164187309,0.9772052164187309,0.0,0,False
2024-07-04,0.9772052164187309,0.9772052164187309,0.0,0,False
2024-07-05,0.9772052164187309,0.979934826777824,0.27932826321748205,6,True
2024-07-06,0.979934826777824,0.9805168898901195,0.05939814530415699,2,True
2024-07-07,0.9805168898901195,0.9784482880665121,-0.2109705447133403,2,True
2024-07-08,0.9784482880665121,0.9783513315939154,-0.009909207648395313,0,True
2024-07-09,0.9783513315939154,0.9783513315939154,0.0,0,False
2024-07-10,0.9783513315939154,0.9783513315939154,0.0,0,False
2024-07-11,0.9783513315939154,0.9783513315939154,0.0,0,False
2024-07-12,0.9783513315939154,0.9783513315939154,0.0,0,False
2024-07-13,0.9783513315939154,0.9783513315939154,0.0,0,False
2024-07-14,0.9783513315939154,0.9759091763204959,-0.24961945617641979,1,True
2024-07-15,0.9759091763204959,0.9759091763204959,0.0,0,False
2024-07-16,0.9759091763204959,0.9734722155822574,-0.24971183767599214,1,True
2024-07-17,0.9734722155822574,0.9710436543344008,-0.2494741204713269,1,True
2024-07-18,0.9710436543344008,0.9710436543344008,0.0,0,False
2024-07-19,0.9710436543344008,0.9710436543344008,0.0,0,False
2024-07-20,0.9710436543344008,0.9722573976344466,0.12499369051310882,2,True
2024-07-21,0.9722573976344466,0.9722573976344466,0.0,0,False
2024-07-22,0.9722573976344466,0.9722573976344466,0.0,0,False
2024-07-23,0.9722573976344466,0.9698291550104378,-0.24975306229779726,1,True
2024-07-24,0.9698291550104378,0.9698291550104378,0.0,0,False
2024-07-25,0.9698291550104378,0.9698291550104378,0.0,0,False
2024-07-26,0.9698291550104378,0.9698291550104378,0.0,0,False
2024-07-27,0.9698291550104378,0.9698291550104378,0.0,0,False
2024-07-28,0.9698291550104378,0.9674071951715628,-0.24973056608602606,1,True
2024-07-29,0.9674071951715628,0.9674071951715628,0.0,0,False
2024-07-30,0.9674071951715628,0.9674071951715628,0.0,0,False
2024-07-31,0.9674071951715628,0.9649937788393115,-0.24947264650262424,1,True
2024-08-01,0.9649937788393115,0.9649937788393115,0.0,0,False
2024-08-02,0.9649937788393115,0.9649937788393115,0.0,0,False
2024-08-03,0.9649937788393115,0.9625870686302309,-0.24940162950846112,1,True
2024-08-04,0.9625870686302309,0.9625870686302309,0.0,0,False
2024-08-05,0.9625870686302309,0.9633477861478413,0.07902843726053099,8,True
2024-08-06,0.9633477861478413,0.9633477861478413,0.0,0,False
2024-08-07,0.9633477861478413,0.9633477861478413,0.0,0,False
2024-08-08,0.9633477861478413,0.9633477861478413,0.0,0,False
2024-08-09,0.9633477861478413,0.9633477861478413,0.0,0,False
2024-08-10,0.9633477861478413,0.9633477861478413,0.0,0,False
2024-08-11,0.9633477861478413,0.9633477861478413,0.0,0,False
2024-08-12,0.9633477861478413,0.9685315427930863,0.5380981531055706,2,True
2024-08-13,0.9685315427930863,0.9680374842416858,-0.05101109561963524,0,True
2024-08-14,0.9680374842416858,0.9680374842416858,0.0,0,False
2024-08-15,0.9680374842416858,0.9680374842416858,0.0,0,False
2024-08-16,0.9680374842416858,0.9680374842416858,0.0,0,False
2024-08-17,0.9680374842416858,0.9680374842416858,0.0,0,False
2024-08-18,0.9680374842416858,0.9670939900101777,-0.09746463818466333,1,True
2024-08-19,0.9670939900101777,0.9624469570593097,-0.4805151307805233,2,True
2024-08-20,0.9624469570593097,0.9636233178708109,0.12222604091298717,1,True
2024-08-21,0.9636233178708109,0.9636233178708109,0.0,0,False
2024-08-22,0.9636233178708109,0.9636233178708109,0.0,0,False
2024-08-23,0.9636233178708109,0.9636233178708109,0.0,0,False
2024-08-24,0.9636233178708109,0.9636233178708109,0.0,0,False
2024-08-25,0.9636233178708109,0.9636233178708109,0.0,0,False
2024-08-26,0.9636233178708109,0.9636233178708109,0.0,0,False
2024-08-27,0.9636233178708109,0.9636233178708109,0.0,0,False
2024-08-28,0.9636233178708109,0.9636233178708109,0.0,0,False
2024-08-29,0.9636233178708109,0.9612208653801575,-0.24931448275471446,1,True
2024-08-30,0.9612208653801575,0.9612208653801575,0.0,0,False
2024-08-31,0.9612208653801575,0.9612208653801575,0.0,0,False
2024-09-01,0.9612208653801575,0.9588287279162789,-0.2488644961876174,1,True
2024-09-02,0.9588287279162789,0.9588287279162789,0.0,0,False
2024-09-03,0.9588287279162789,0.9588287279162789,0.0,0,False
2024-09-04,0.9588287279162789,0.9588287279162789,0.0,0,False
2024-09-05,0.9588287279162789,0.9554260308289136,-0.35488059423918195,2,True
2024-09-06,0.9554260308289136,0.955764703879308,0.03544733338494144,0,True
2024-09-07,0.955764703879308,0.955764703879308,0.0,0,False
2024-09-08,0.955764703879308,0.955764703879308,0.0,0,False
2024-09-09,0.955764703879308,0.955764703879308,0.0,0,False
2024-09-10,0.955764703879308,0.955764703879308,0.0,0,False
2024-09-11,0.955764703879308,0.955764703879308,0.0,0,False
2024-09-12,0.955764703879308,0.955764703879308,0.0,0,False
2024-09-13,0.955764703879308,0.9599776318887941,0.4407913362343807,1,True
2024-09-14,0.9599776318887941,0.9599776318887941,0.0,0,False
2024-09-15,0.9599776318887941,0.9599776318887941,0.0,0,False
2024-09-16,0.9599776318887941,0.9599776318887941,0.0,0,False
2024-09-17,0.9599776318887941,0.9599776318887941,0.0,0,False
2024-09-18,0.9599776318887941,0.9551818957660398,-0.49956748610053836,2,True
2024-09-19,0.9551818957660398,0.9547576052217259,-0.04441986873857662,1,True
2024-09-20,0.9547576052217259,0.9565095553323317,0.18349684789353837,1,True
2024-09-21,0.9565095553323317,0.9511236859240795,-0.5630753376406172,4,True
2024-09-22,0.9511236859240795,0.9552651466153268,0.4354281943071969,1,True
2024-09-23,0.9552651466153268,0.9595620169658373,0.4498091828991191,1,True
2024-09-24,0.9595620169658373,0.9595620169658373,0.0,0,False
2024-09-25,0.9595620169658373,0.9595620169658373,0.0,0,False
2024-09-26,0.9595620169658373,0.9595620169658373,0.0,0,False
2024-09-27,0.9595620169658373,0.9595620169658373,0.0,0,False
2024-09-28,0.9595620169658373,0.9595620169658373,0.0,0,False
2024-09-29,0.9595620169658373,0.9595620169658373,0.0,0,False
2024-09-30,0.9595620169658373,0.9595620169658373,0.0,0,False
2024-10-01,0.9595620169658373,0.9595620169658373,0.0,0,False
2024-10-02,0.9595620169658373,0.9595620169658373,0.0,0,False
2024-10-03,0.9595620169658373,0.963678194862021,0.42896423820517615,1,True
2024-10-04,0.963678194862021,0.963678194862021,0.0,0,False
2024-10-05,0.963678194862021,0.963678194862021,0.0,0,False
2024-10-06,0.963678194862021,0.963678194862021,0.0,0,False
2024-10-07,0.963678194862021,0.963678194862021,0.0,0,False
2024-10-08,0.963678194862021,0.963678194862021,0.0,0,False
2024-10-09,0.963678194862021,0.963678194862021,0.0,0,False
2024-10-10,0.963678194862021,0.963678194862021,0.0,0,False
2024-10-11,0.963678194862021,0.9629172324032064,-0.07896437450507499,1,True
2024-10-12,0.9629172324032064,0.9634052870964962,0.05068500976681545,0,True
2024-10-13,0.9634052870964962,0.9634052870964962,0.0,0,False
2024-10-14,0.9634052870964962,0.9634052870964962,0.0,0,False
2024-10-15,0.9634052870964962,0.9586001523324734,-0.4987656626324388,2,True
2024-10-16,0.9586001523324734,0.9586001523324734,0.0,0,False
2024-10-17,0.9586001523324734,0.9586001523324734,0.0,0,False
2024-10-18,0.9586001523324734,0.9674851339519459,0.9268704577037212,3,True
2024-10-19,0.9674851339519459,0.9658388017631443,-0.1701661484013406,1,True
2024-10-20,0.9658388017631443,0.9658388017631443,0.0,0,False
2024-10-21,0.9658388017631443,0.9700722462627868,0.43831791515460683,1,True
2024-10-22,0.9700722462627868,0.9719384545497469,0.19237827843747723,2,True
2024-10-23,0.9719384545497469,0.9670918423577818,-0.49865422746446786,2,True
2024-10-24,0.9670918423577818,0.9646789320673679,-0.24950166930693962,1,True
2024-10-25,0.9646789320673679,0.9665236809535251,0.1912293121405506,1,True
2024-10-26,0.9665236809535251,0.9726238447374134,0.6311447824920435,2,True
2024-10-27,0.9726238447374134,0.9726238447374134,0.0,0,False
2024-10-28,0.9726238447374134,0.9726238447374134,0.0,0,False
2024-10-29,0.9726238447374134,0.9726238447374134,0.0,0,False
2024-10-30,0.9726238447374134,0.9726238447374134,0.0,0,False
2024-10-31,0.9726238447374134,0.9726238447374134,0.0,0,False
2024-11-01,0.9726238447374134,0.9726238447374134,0.0,0,False
2024-11-02,0.9726238447374134,0.9726238447374134,0.0,0,False
2024-11-03,0.9726238447374134,0.9726238447374134,0.0,0,False
2024-11-04,0.9726238447374134,0.9726238447374134,0.0,0,False
2024-11-05,0.9726238447374134,0.9726238447374134,0.0,0,False
2024-11-06,0.9726238447374134,0.9726238447374134,0.0,0,False
2024-11-07,0.9726238447374134,0.9726238447374134,0.0,0,False
2024-11-08,0.9726238447374134,0.9726238447374134,0.0,0,False
2024-11-09,0.9726238447374134,0.9714459562271109,-0.12110421893064549,1,True
2024-11-10,0.9714459562271109,0.9690986018144268,-0.24163510050531078,3,True
2024-11-11,0.9690986018144268,0.9702927773706347,0.12322539254232545,3,True
2024-11-12,0.9702927773706347,0.97113989568687,0.08730543357551301,0,True
2024-11-13,0.97113989568687,0.97113989568687,0.0,0,False
2024-11-14,0.97113989568687,0.9721534382002787,0.10436627286245503,1,True
2024-11-15,0.9721534382002787,0.9721534382002787,0.0,0,False
2024-11-16,0.9721534382002787,0.9714090334971311,-0.07657275836266964,1,True
2024-11-17,0.9714090334971311,0.9802537432204185,0.9105031370200356,2,True
2024-11-18,0.9802537432204185,0.9802537432204185,0.0,0,False
2024-11-19,0.9802537432204185,0.9778063919859327,-0.2496650741108719,1,True
2024-11-20,0.9778063919859327,0.9778063919859327,0.0,0,False
2024-11-21,0.9778063919859327,0.9778063919859327,0.0,0,False
2024-11-22,0.9778063919859327,0.9778063919859327,0.0,0,False
2024-11-23,0.9778063919859327,0.9802331923612112,0.2481882298140503,1,True
2024-11-24,0.9802331923612112,0.9940043186986712,1.4048826794252678,8,True
2024-11-25,0.9940043186986712,0.9954133990481964,0.14175797056594774,1,True
2024-11-26,0.9954133990481964,0.9904474370765962,-0.49888438073553143,2,True
2024-11-27,0.9904474370765962,0.9933923699205486,0.2973335821479406,2,True
2024-11-28,0.9933923699205486,0.9933923699205486,0.0,0,False
2024-11-29,0.9933923699205486,0.9933923699205486,0.0,0,False
2024-11-30,0.9933923699205486,0.9978647177638535,0.4502096028442981,1,True
2024-12-01,0.9978647177638535,0.9978647177638535,0.0,0,False
2024-12-02,0.9978647177638535,1.0000656671755592,0.22056591164358874,1,True
2024-12-03,1.0000656671755592,1.0026807526201307,0.26149137305724324,1,True
2024-12-04,1.0026807526201307,1.001077533954487,-0.1598932323627622,3,True
2024-12-05,1.001077533954487,1.0039053133884386,0.2824735685338142,1,True
2024-12-06,1.0039053133884386,1.0048091021994159,0.09002729629219441,1,True
2024-12-07,1.0048091021994159,1.0054823647874327,0.06700402957566798,1,True
2024-12-08,1.0054823647874327,1.0054823647874327,0.0,0,False
2024-12-09,1.0054823647874327,1.00297047541948,-0.24981933606401663,1,True
2024-12-10,1.00297047541948,0.9987399578728372,-0.4217988116622662,5,True
2024-12-11,0.9987399578728372,0.9986000541914567,-0.014008018831901392,0,True
2024-12-12,0.9986000541914567,0.9986000541914567,0.0,0,False
2024-12-13,0.9986000541914567,0.9986000541914567,0.0,0,False
2024-12-14,0.9986000541914567,0.9986000541914567,0.0,0,False
2024-12-15,0.9986000541914567,0.9951494891096563,-0.3455402457988255,2,True
2024-12-16,0.9951494891096563,0.9936231850371061,-0.15337435121588472,0,True
2024-12-17,0.9936231850371061,0.9936231850371061,0.0,0,False
2024-12-18,0.9936231850371061,0.9911430315144149,-0.24960705024195118,1,True
2024-12-19,0.9911430315144149,0.9921870460440122,0.10533439638900077,1,True
2024-12-20,0.9921870460440122,0.9938731775520745,0.16994089116413313,2,True
2024-12-21,0.9938731775520745,0.9938731775520745,0.0,0,False
2024-12-22,0.9938731775520745,0.9938731775520745,0.0,0,False
2024-12-23,0.9938731775520745,0.9938731775520745,0.0,0,False
2024-12-24,0.9938731775520745,0.9938731775520745,0.0,0,False
2024-12-25,0.9938731775520745,0.9981419793373117,0.4295117205749932,1,True
2024-12-26,0.9981419793373117,0.9979666919078367,-0.01756137234018018,1,True
2024-12-27,0.9979666919078367,0.9980050671197915,0.0038453399563431745,0,True
2024-12-28,0.9980050671197915,0.9980050671197915,0.0,0,False
2024-12-29,0.9980050671197915,0.9980050671197915,0.0,0,False
2024-12-30,0.9980050671197915,0.9994128772551676,0.14106242360460985,1,True
2024-12-31,0.9994128772551676,0.9994128772551676,0.0,0,False
