day,start_equity,end_equity,return_pct,entries,active
2024-01-02,1.0,1.0,0.0,0,False
2024-01-03,1.0,1.0101188661844145,1.0118866184414488,4,True
2024-01-04,1.0101188661844145,1.0101033682735332,-0.0015342660552253307,1,True
2024-01-05,1.0101033682735332,1.0101033682735332,0.0,0,False
2024-01-06,1.0101033682735332,1.0101033682735332,0.0,0,False
2024-01-07,1.0101033682735332,1.0101033682735332,0.0,0,False
2024-01-08,1.0101033682735332,1.0069462861612728,-0.3125503994364953,1,True
2024-01-09,1.0069462861612728,1.0069462861612728,0.0,0,False
2024-01-10,1.0069462861612728,1.0053643297837358,-0.15710434600914036,1,True
2024-01-11,1.0053643297837358,1.0053643297837358,0.0,0,False
2024-01-12,1.0053643297837358,1.0053643297837358,0.0,0,False
2024-01-13,1.0053643297837358,1.0053643297837358,0.0,0,False
2024-01-14,1.0053643297837358,1.0053643297837358,0.0,0,False
2024-01-15,1.0053643297837358,1.0053643297837358,0.0,0,False
2024-01-16,1.0053643297837358,1.0053643297837358,0.0,0,False
2024-01-17,1.0053643297837358,1.0053643297837358,0.0,0,False
2024-01-18,1.0053643297837358,1.0053643297837358,0.0,0,False
2024-01-19,1.0053643297837358,1.0053643297837358,0.0,0,False
2024-01-20,1.0053643297837358,1.0053643297837358,0.0,0,False
2024-01-21,1.0053643297837358,1.0053643297837358,0.0,0,False
2024-01-22,1.0053643297837358,1.0053643297837358,0.0,0,False
2024-01-23,1.0053643297837358,0.9953566615650928,-0.9954270230370876,2,True
2024-01-24,0.9953566615650928,0.9953566615650928,0.0,0,False
2024-01-25,0.9953566615650928,0.9953566615650928,0.0,0,False
2024-01-26,0.9953566615650928,0.9953566615650928,0.0,0,False
2024-01-27,0.9953566615650928,0.9953566615650928,0.0,0,False
2024-01-28,0.9953566615650928,0.9926513594051393,-0.27179223934662433,2,True
2024-01-29,0.9926513594051393,0.9926513594051393,0.0,0,False
2024-01-30,0.9926513594051393,0.9926513594051393,0.0,0,False
2024-01-31,0.9926513594051393,0.9926513594051393,0.0,0,False
2024-02-01,0.9926513594051393,0.9926513594051393,0.0,0,False
2024-02-02,0.9926513594051393,0.9926513594051393,0.0,0,False
2024-02-03,0.9926513594051393,0.9926513594051393,0.0,0,False
2024-02-04,0.9926513594051393,0.9926513594051393,0.0,0,False
2024-02-05,0.9926513594051393,0.9926513594051393,0.0,0,False
2024-02-06,0.9926513594051393,0.9859918107027884,-0.6708849627065083,2,True
2024-02-07,0.9859918107027884,0.9834967710605839,-0.2530487185716246,0,True
2024-02-08,0.9834967710605839,0.9834967710605839,0.0,0,False
2024-02-09,0.9834967710605839,0.9834967710605839,0.0,0,False
2024-02-10,0.9834967710605839,0.9834967710605839,0.0,0,False
2024-02-11,0.9834967710605839,0.9834967710605839,0.0,0,False
2024-02-12,0.9834967710605839,0.9834967710605839,0.0,0,False
2024-02-13,0.9834967710605839,0.9834967710605839,0.0,0,False
2024-02-14,0.9834967710605839,0.9834967710605839,0.0,0,False
2024-02-15,0.9834967710605839,0.999337311437799,1.6106347110965036,1,True
2024-02-16,0.999337311437799,0.9955426201621305,-0.3797207641741074,0,True
2024-02-17,0.9955426201621305,0.9955426201621305,0.0,0,False
2024-02-18,0.9955426201621305,0.9955426201621305,0.0,0,False
2024-02-19,0.9955426201621305,0.9955426201621305,0.0,0,False
2024-02-20,0.9955426201621305,0.9955426201621305,0.0,0,False
2024-02-21,0.9955426201621305,1.0107475151504122,1.5272972427645026,5,True
2024-02-22,1.0107475151504122,1.0249330655994382,1.4034712167375396,1,True
2024-02-23,1.0249330655994382,1.0249330655994382,0.0,0,False
2024-02-24,1.0249330655994382,1.0249330655994382,0.0,0,False
2024-02-25,1.0249330655994382,1.0249330655994382,0.0,0,False
2024-02-26,1.0249330655994382,1.0237737616244833,-0.11311021313151759,1,True
2024-02-27,1.0237737616244833,1.022698517382567,-0.10502752485180844,1,True
2024-02-28,1.022698517382567,1.022698517382567,0.0,0,False
2024-02-29,1.022698517382567,1.0307341111259176,0.7857245910472654,2,True
2024-03-01,1.0307341111259176,1.0307341111259176,0.0,0,False
2024-03-02,1.0307341111259176,1.0307341111259176,0.0,0,False
2024-03-03,1.0307341111259176,1.0470649957367415,1.5843935341370408,4,True
2024-03-04,1.0470649957367415,1.049416998029365,0.22462810830272684,0,True
2024-03-05,1.049416998029365,1.04854937614652,-0.08267656084036679,1,True
2024-03-06,1.04854937614652,1.0560276410407756,0.7132010246134968,1,True
2024-03-07,1.0560276410407756,1.0568347516205923,0.07642892557444547,2,True
2024-03-08,1.0568347516205923,1.0577937111330238,0.09073883224988144,0,True
2024-03-09,1.0577937111330238,1.0577937111330238,0.0,0,False
2024-03-10,1.0577937111330238,1.0577937111330238,0.0,0,False
2024-03-11,1.0577937111330238,1.0577937111330238,0.0,0,False
2024-03-12,1.0577937111330238,1.0588519224225348,0.10003947635286448,1,True
2024-03-13,1.0588519224225348,1.0588519224225348,0.0,0,False
2024-03-14,1.0588519224225348,1.0588519224225348,0.0,0,False
2024-03-15,1.0588519224225348,1.0588519224225348,0.0,0,False
2024-03-16,1.0588519224225348,1.0588519224225348,0.0,0,False
2024-03-17,1.0588519224225348,1.0561388622577164,-0.2562265891354554,1,True
2024-03-18,1.0561388622577164,1.0555108701663765,-0.059461129003191004,1,True
2024-03-19,1.0555108701663765,1.0464093509832009,-0.8622856893686914,1,True
2024-03-20,1.0464093509832009,1.0464093509832009,0.0,0,False
2024-03-21,1.0464093509832009,1.0359851861174874,-0.9961842233079277,2,True
2024-03-22,1.0359851861174874,1.0359851861174874,0.0,0,False
2024-03-23,1.0359851861174874,1.0374249457861968,0.13897492821350887,1,True
2024-03-24,1.0374249457861968,1.0374249457861968,0.0,0,False
2024-03-25,1.0374249457861968,1.0374249457861968,0.0,0,False
2024-03-26,1.0374249457861968,1.0411914423851105,0.36306208118597194,1,True
2024-03-27,1.0411914423851105,1.0382575290076783,-0.28178423851730194,2,True
2024-03-28,1.0382575290076783,1.0382575290076783,0.0,0,False
2024-03-29,1.0382575290076783,1.0330731779483502,-0.49933190123678806,1,True
2024-03-30,1.0330731779483502,1.0330731779483502,0.0,0,False
2024-03-31,1.0330731779483502,1.0330731779483502,0.0,0,False
2024-04-01,1.0330731779483502,1.0330731779483502,0.0,0,False
2024-04-02,1.0330731779483502,1.0330731779483502,0.0,0,False
2024-04-03,1.0330731779483502,1.0330731779483502,0.0,0,False
2024-04-04,1.0330731779483502,1.0330731779483502,0.0,0,False
2024-04-05,1.0330731779483502,1.0323413055961514,-0.07084419263040376,2,True
2024-04-06,1.0323413055961514,1.030502241690489,-0.17814495028855015,0,True
2024-04-07,1.030502241690489,1.0334099183699874,0.28216112123429227,1,True
2024-04-08,1.0334099183699874,1.0334099183699874,0.0,0,False
2024-04-09,1.0334099183699874,1.031062911942664,-0.22711282189215032,1,True
2024-04-10,1.031062911942664,1.0232447522897476,-0.7582621353517394,1,True
2024-04-11,1.0232447522897476,1.0232447522897476,0.0,0,False
2024-04-12,1.0232447522897476,1.0272162118464476,0.3881241069463526,1,True
2024-04-13,1.0272162118464476,1.0167833023723805,-1.0156488335901326,8,True
2024-04-14,1.0167833023723805,1.0039612891381826,-1.2610369588368808,5,True
2024-04-15,1.0039612891381826,1.0059108000602723,0.1941818816304286,1,True
2024-04-16,1.0059108000602723,1.002317918785133,-0.3571769261175084,0,True
2024-04-17,1.002317918785133,0.9996258303655234,-0.2685862807753181,1,True
2024-04-18,0.9996258303655234,0.9994117118047284,-0.021419870744709968,0,True
2024-04-19,0.9994117118047284,0.9994117118047284,0.0,0,False
2024-04-20,0.9994117118047284,0.9994117118047284,0.0,0,False
2024-04-21,0.9994117118047284,0.9994117118047284,0.0,0,False
2024-04-22,0.9994117118047284,0.9994117118047284,0.0,0,False
2024-04-23,0.9994117118047284,0.9994117118047284,0.0,0,False
2024-04-24,0.9994117118047284,0.9994117118047284,0.0,0,False
2024-04-25,0.9994117118047284,1.0067384306034766,0.733103155807302,1,True
2024-04-26,1.0067384306034766,1.0036131662497134,-0.31043459341169033,0,True
2024-04-27,1.0036131662497134,0.998599078835476,-0.49960359059197934,1,True
2024-04-28,0.998599078835476,0.998599078835476,0.0,0,False
2024-04-29,0.998599078835476,1.009509535148756,1.0925762445127774,1,True
2024-04-30,1.009509535148756,1.0098832708135035,0.03702150913240665,0,True
2024-05-01,1.0098832708135035,1.0098832708135035,0.0,0,False
2024-05-02,1.0098832708135035,1.0098832708135035,0.0,0,False
2024-05-03,1.0098832708135035,1.0098832708135035,0.0,0,False
2024-05-04,1.0098832708135035,1.0098832708135035,0.0,0,False
2024-05-05,1.0098832708135035,1.0098832708135035,0.0,0,False
2024-05-06,1.0098832708135035,1.0098832708135035,0.0,0,False
2024-05-07,1.0098832708135035,1.0071256040017678,-0.2730678773908535,1,True
2024-05-08,1.0071256040017678,1.0071326976098272,0.0007043419441687959,0,True
2024-05-09,1.0071326976098272,1.0044072000494457,-0.27061950891373865,1,True
2024-05-10,1.0044072000494457,1.0044072000494457,0.0,0,False
2024-05-11,1.0044072000494457,1.0047636274703369,0.035486346660351664,1,True
2024-05-12,1.0047636274703369,1.0023410122425558,-0.24111295050363024,0,True
2024-05-13,1.0023410122425558,1.006100482491587,0.3750689838201815,1,True
2024-05-14,1.006100482491587,1.006100482491587,0.0,0,False
2024-05-15,1.006100482491587,1.006100482491587,0.0,0,False
2024-05-16,1.006100482491587,1.006100482491587,0.0,0,False
2024-05-17,1.006100482491587,1.006100482491587,0.0,0,False
2024-05-18,1.006100482491587,1.006100482491587,0.0,0,False
2024-05-19,1.006100482491587,1.006100482491587,0.0,0,False
2024-05-20,1.006100482491587,1.006100482491587,0.0,0,False
2024-05-21,1.006100482491587,1.006100482491587,0.0,0,False
2024-05-22,1.006100482491587,1.006100482491587,0.0,0,False
2024-05-23,1.006100482491587,1.0133516930135098,0.7207242863024321,1,True
2024-05-24,1.0133516930135098,1.0150258375789938,0.16520864148412695,1,True
2024-05-25,1.0150258375789938,1.0150258375789938,0.0,0,False
2024-05-26,1.0150258375789938,1.0150258375789938,0.0,0,False
2024-05-27,1.0150258375789938,1.0150258375789938,0.0,0,False
2024-05-28,1.0150258375789938,1.0150258375789938,0.0,0,False
2024-05-29,1.0150258375789938,1.0150258375789938,0.0,0,False
2024-05-30,1.0150258375789938,1.0150258375789938,0.0,0,False
2024-05-31,1.0150258375789938,1.0150258375789938,0.0,0,False
2024-06-01,1.0150258375789938,1.0150258375789938,0.0,0,False
2024-06-02,1.0150258375789938,1.0150258375789938,0.0,0,False
2024-06-03,1.0150258375789938,1.0063673357238434,-0.8530326553856327,3,True
2024-06-04,1.0063673357238434,1.0076621903366718,0.12866620038864962,1,True
2024-06-05,1.0076621903366718,1.0076621903366718,0.0,0,False
2024-06-06,1.0076621903366718,1.0026303983628886,-0.49935305919358575,1,True
2024-06-07,1.0026303983628886,1.0026303983628886,0.0,0,False
2024-06-08,1.0026303983628886,1.0351130591908908,3.2397442647899455,5,True
2024-06-09,1.0351130591908908,1.0351130591908908,0.0,0,False
2024-06-10,1.0351130591908908,1.0351130591908908,0.0,0,False
2024-06-11,1.0351130591908908,1.0351130591908908,0.0,0,False
2024-06-12,1.0351130591908908,1.0351130591908908,0.0,0,False
2024-06-13,1.0351130591908908,1.0284193653437312,-0.6466630661960515,2,True
2024-06-14,1.0284193653437312,1.0232854308249129,-0.49920632495115136,1,True
2024-06-15,1.0232854308249129,1.0334754772518333,0.995816623589163,1,True
2024-06-16,1.0334754772518333,1.0334754772518333,0.0,0,False
2024-06-17,1.0334754772518333,1.0334754772518333,0.0,0,False
2024-06-18,1.0334754772518333,1.0442698437401055,1.0444724355701096,4,True
2024-06-19,1.0442698437401055,1.0442698437401055,0.0,0,False
2024-06-20,1.0442698437401055,1.0442698437401055,0.0,0,False
2024-06-21,1.0442698437401055,1.0442698437401055,0.0,0,False
2024-06-22,1.0442698437401055,1.0442698437401055,0.0,0,False
2024-06-23,1.0442698437401055,1.0520754183869687,0.7474672081793754,1,True
2024-06-24,1.0520754183869687,1.0525188721573795,0.042150378448213566,1,True
2024-06-25,1.0525188721573795,1.0638094435964673,1.0727191443080875,0,True
2024-06-26,1.0638094435964673,1.0638094435964673,0.0,0,False
2024-06-27,1.0638094435964673,1.0642407769824151,0.04054611364321392,1,True
2024-06-28,1.0642407769824151,1.0624156037480408,-0.17150002836290312,0,True
2024-06-29,1.0624156037480408,1.051836907161734,-0.9957211235402386,2,True
2024-06-30,1.051836907161734,1.051836907161734,0.0,0,False
2024-07-01,1.051836907161734,1.051836907161734,0.0,0,False
2024-07-02,1.051836907161734,1.051836907161734,0.0,0,False
2024-07-03,1.051836907161734,1.051836907161734,0.0,0,False
2024-07-04,1.051836907161734,1.051836907161734,0.0,0,False
2024-07-05,1.051836907161734,1.073378630046217,2.048009794846517,5,True
2024-07-06,1.073378630046217,1.073378630046217,0.0,0,False
2024-07-07,1.073378630046217,1.0701153677298114,-0.30401782046517445,1,True
2024-07-08,1.0701153677298114,1.0701153677298114,0.0,0,False
2024-07-09,1.0701153677298114,1.0701153677298114,0.0,0,False
2024-07-10,1.0701153677298114,1.0701153677298114,0.0,0,False
2024-07-11,1.0701153677298114,1.0701153677298114,0.0,0,False
2024-07-12,1.0701153677298114,1.0701153677298114,0.0,0,False
2024-07-13,1.0701153677298114,1.0701153677298114,0.0,0,False
2024-07-14,1.0701153677298114,1.0701153677298114,0.0,0,False
2024-07-15,1.0701153677298114,1.0701153677298114,0.0,0,False
2024-07-16,1.0701153677298114,1.0689051842795656,-0.11308906373460603,1,True
2024-07-17,1.0689051842795656,1.0635684033545403,-0.4992754271860189,1,True
2024-07-18,1.0635684033545403,1.0635684033545403,0.0,0,False
2024-07-19,1.0635684033545403,1.0635684033545403,0.0,0,False
2024-07-20,1.0635684033545403,1.0647988733511002,0.11569260544774806,1,True
2024-07-21,1.0647988733511002,1.0647988733511002,0.0,0,False
2024-07-22,1.0647988733511002,1.0647988733511002,0.0,0,False
2024-07-23,1.0647988733511002,1.0607566578374323,-0.37962244465439277,1,True
2024-07-24,1.0607566578374323,1.0607566578374323,0.0,0,False
2024-07-25,1.0607566578374323,1.0607566578374323,0.0,0,False
2024-07-26,1.0607566578374323,1.0607566578374323,0.0,0,False
2024-07-27,1.0607566578374323,1.0607566578374323,0.0,0,False
2024-07-28,1.0607566578374323,1.0607566578374323,0.0,0,False
2024-07-29,1.0607566578374323,1.0607566578374323,0.0,0,False
2024-07-30,1.0607566578374323,1.0607566578374323,0.0,0,False
2024-07-31,1.0607566578374323,1.055460871606852,-0.499246098664774,1,True
2024-08-01,1.055460871606852,1.055460871606852,0.0,0,False
2024-08-02,1.055460871606852,1.055460871606852,0.0,0,False
2024-08-03,1.055460871606852,1.050192615976379,-0.49914267522325195,1,True
2024-08-04,1.050192615976379,1.050192615976379,0.0,0,False
2024-08-05,1.050192615976379,1.0308478861150188,-1.8420173182588262,4,True
2024-08-06,1.0308478861150188,1.0308478861150188,0.0,0,False
2024-08-07,1.0308478861150188,1.0308478861150188,0.0,0,False
2024-08-08,1.0308478861150188,1.0308478861150188,0.0,0,False
2024-08-09,1.0308478861150188,1.0308478861150188,0.0,0,False
2024-08-10,1.0308478861150188,1.0308478861150188,0.0,0,False
2024-08-11,1.0308478861150188,1.0308478861150188,0.0,0,False
2024-08-12,1.0308478861150188,1.0308478861150188,0.0,0,False
2024-08-13,1.0308478861150188,1.0308478861150188,0.0,0,False
2024-08-14,1.0308478861150188,1.0308478861150188,0.0,0,False
2024-08-15,1.0308478861150188,1.0308478861150188,0.0,0,False
2024-08-16,1.0308478861150188,1.0308478861150188,0.0,0,False
2024-08-17,1.0308478861150188,1.0308478861150188,0.0,0,False
2024-08-18,1.0308478861150188,1.0308478861150188,0.0,0,False
2024-08-19,1.0308478861150188,1.0308478861150188,0.0,0,False
2024-08-20,1.0308478861150188,1.0308478861150188,0.0,0,False
2024-08-21,1.0308478861150188,1.0308478861150188,0.0,0,False
2024-08-22,1.0308478861150188,1.0308478861150188,0.0,0,False
2024-08-23,1.0308478861150188,1.0308478861150188,0.0,0,False
2024-08-24,1.0308478861150188,1.0308478861150188,0.0,0,False
2024-08-25,1.0308478861150188,1.0308478861150188,0.0,0,False
2024-08-26,1.0308478861150188,1.0308478861150188,0.0,0,False
2024-08-27,1.0308478861150188,1.0308478861150188,0.0,0,False
2024-08-28,1.0308478861150188,1.0308478861150188,0.0,0,False
2024-08-29,1.0308478861150188,1.0257039109593316,-0.4990042881179546,1,True
2024-08-30,1.0257039109593316,1.0257039109593316,0.0,0,False
2024-08-31,1.0257039109593316,1.0257039109593316,0.0,0,False
2024-09-01,1.0257039109593316,1.0205933716132682,-0.49824703712824103,1,True
2024-09-02,1.0205933716132682,1.0205933716132682,0.0,0,False
2024-09-03,1.0205933716132682,1.0205933716132682,0.0,0,False
2024-09-04,1.0205933716132682,1.0205933716132682,0.0,0,False
2024-09-05,1.0205933716132682,1.0205933716132682,0.0,0,False
2024-09-06,1.0205933716132682,1.0205933716132682,0.0,0,False
2024-09-07,1.0205933716132682,1.0205933716132682,0.0,0,False
2024-09-08,1.0205933716132682,1.0205933716132682,0.0,0,False
2024-09-09,1.0205933716132682,1.0205933716132682,0.0,0,False
2024-09-10,1.0205933716132682,1.0205933716132682,0.0,0,False
2024-09-11,1.0205933716132682,1.0205933716132682,0.0,0,False
2024-09-12,1.0205933716132682,1.0205933716132682,0.0,0,False
2024-09-13,1.0205933716132682,1.0205933716132682,0.0,0,False
2024-09-14,1.0205933716132682,1.0205933716132682,0.0,0,False
2024-09-15,1.0205933716132682,1.0205933716132682,0.0,0,False
2024-09-16,1.0205933716132682,1.0205933716132682,0.0,0,False
2024-09-17,1.0205933716132682,1.0205933716132682,0.0,0,False
2024-09-18,1.0205933716132682,1.0205933716132682,0.0,0,False
2024-09-19,1.0205933716132682,1.020096783410115,-0.04865681249413001,1,True
2024-09-20,1.020096783410115,1.022885215486363,0.2733497567678489,1,True
2024-09-21,1.022885215486363,1.016772570701378,-0.5975885360781752,1,True
2024-09-22,1.016772570701378,1.02797317952563,1.1015844788698104,1,True
2024-09-23,1.02797317952563,1.0237965682363375,-0.40629574511076294,0,True
2024-09-24,1.0237965682363375,1.0237965682363375,0.0,0,False
2024-09-25,1.0237965682363375,1.0237965682363375,0.0,0,False
2024-09-26,1.0237965682363375,1.0237965682363375,0.0,0,False
2024-09-27,1.0237965682363375,1.0237965682363375,0.0,0,False
2024-09-28,1.0237965682363375,1.0237965682363375,0.0,0,False
2024-09-29,1.0237965682363375,1.0237965682363375,0.0,0,False
2024-09-30,1.0237965682363375,1.0237965682363375,0.0,0,False
2024-10-01,1.0237965682363375,1.0237965682363375,0.0,0,False
2024-10-02,1.0237965682363375,1.0237965682363375,0.0,0,False
2024-10-03,1.0237965682363375,1.0300969607751371,0.6153949655890223,1,True
2024-10-04,1.0300969607751371,1.028088802344433,-0.19494848613017535,0,True
2024-10-05,1.028088802344433,1.028088802344433,0.0,0,False
2024-10-06,1.028088802344433,1.028088802344433,0.0,0,False
2024-10-07,1.028088802344433,1.028088802344433,0.0,0,False
2024-10-08,1.028088802344433,1.028088802344433,0.0,0,False
2024-10-09,1.028088802344433,1.028088802344433,0.0,0,False
2024-10-10,1.028088802344433,1.028088802344433,0.0,0,False
2024-10-11,1.028088802344433,1.0270799085847888,-0.09813293923088828,1,True
2024-10-12,1.0270799085847888,1.0278174539141842,0.07180992668931463,0,True
2024-10-13,1.0278174539141842,1.0278174539141842,0.0,0,False
2024-10-14,1.0278174539141842,1.0278174539141842,0.0,0,False
2024-10-15,1.0278174539141842,1.0278174539141842,0.0,0,False
2024-10-16,1.0278174539141842,1.0278174539141842,0.0,0,False
2024-10-17,1.0278174539141842,1.0278174539141842,0.0,0,False
2024-10-18,1.0278174539141842,1.0283678427042289,0.053549274528141844,1,True
2024-10-19,1.0283678427042289,1.0243977333939405,-0.3860592625930859,1,True
2024-10-20,1.0243977333939405,1.0243977333939405,0.0,0,False
2024-10-21,1.0243977333939405,1.0346662301079208,1.0023935410282236,1,True
2024-10-22,1.0346662301079208,1.0346662301079208,0.0,0,False
2024-10-23,1.0346662301079208,1.0294998259207815,-0.4993305122754865,1,True
2024-10-24,1.0294998259207815,1.0243596022115842,-0.4992933053291071,1,True
2024-10-25,1.0243596022115842,1.027299707455513,0.28701885915660696,1,True
2024-10-26,1.027299707455513,1.0374655886804545,0.9895730672522918,2,True
2024-10-27,1.0374655886804545,1.0374655886804545,0.0,0,False
2024-10-28,1.0374655886804545,1.0374655886804545,0.0,0,False
2024-10-29,1.0374655886804545,1.0374655886804545,0.0,0,False
2024-10-30,1.0374655886804545,1.0374655886804545,0.0,0,False
2024-10-31,1.0374655886804545,1.0374655886804545,0.0,0,False
2024-11-01,1.0374655886804545,1.0374655886804545,0.0,0,False
2024-11-02,1.0374655886804545,1.0374655886804545,0.0,0,False
2024-11-03,1.0374655886804545,1.0374655886804545,0.0,0,False
2024-11-04,1.0374655886804545,1.0374655886804545,0.0,0,False
2024-11-05,1.0374655886804545,1.0374655886804545,0.0,0,False
2024-11-06,1.0374655886804545,1.0374655886804545,0.0,0,False
2024-11-07,1.0374655886804545,1.0374655886804545,0.0,0,False
2024-11-08,1.0374655886804545,1.0374655886804545,0.0,0,False
2024-11-09,1.0374655886804545,1.0358350419296478,-0.15716634542842778,1,True
2024-11-10,1.0358350419296478,1.0385355243991,0.2607058421600916,0,True
2024-11-11,1.0385355243991,1.0375526199722467,-0.09464331298844053,1,True
2024-11-12,1.0375526199722467,1.0388396690382837,0.12404663062499655,0,True
2024-11-13,1.0388396690382837,1.0388396690382837,0.0,0,False
2024-11-14,1.0388396690382837,1.0388396690382837,0.0,0,False
2024-11-15,1.0388396690382837,1.0388396690382837,0.0,0,False
2024-11-16,1.0388396690382837,1.0388396690382837,0.0,0,False
2024-11-17,1.0388396690382837,1.0388396690382837,0.0,0,False
2024-11-18,1.0388396690382837,1.0388396690382837,0.0,0,False
2024-11-19,1.0388396690382837,1.0388396690382837,0.0,0,False
2024-11-20,1.0388396690382837,1.0388396690382837,0.0,0,False
2024-11-21,1.0388396690382837,1.0388396690382837,0.0,0,False
2024-11-22,1.0388396690382837,1.0388396690382837,0.0,0,False
2024-11-23,1.0388396690382837,1.0426439883193483,0.36620851074993244,1,True
2024-11-24,1.0426439883193483,1.055424655067824,1.2257939326995926,4,True
2024-11-25,1.055424655067824,1.0555869741126913,0.015379500951384628,1,True
2024-11-26,1.0555869741126913,1.0555869741126913,0.0,0,False
2024-11-27,1.0555869741126913,1.0555869741126913,0.0,0,False
2024-11-28,1.0555869741126913,1.0555869741126913,0.0,0,False
2024-11-29,1.0555869741126913,1.0555869741126913,0.0,0,False
2024-11-30,1.0555869741126913,1.0555869741126913,0.0,0,False
2024-12-01,1.0555869741126913,1.0555869741126913,0.0,0,False
2024-12-02,1.0555869741126913,1.0555869741126913,0.0,0,False
2024-12-03,1.0555869741126913,1.0555869741126913,0.0,0,False
2024-12-04,1.0555869741126913,1.0555869741126913,0.0,0,False
2024-12-05,1.0555869741126913,1.0599750493794164,0.4157000203999006,1,True
2024-12-06,1.0599750493794164,1.0599750493794164,0.0,0,False
2024-12-07,1.0599750493794164,1.0599750493794164,0.0,0,False
2024-12-08,1.0599750493794164,1.0599750493794164,0.0,0,False
2024-12-09,1.0599750493794164,1.0578495340884875,-0.20052503048759718,1,True
2024-12-10,1.0578495340884875,1.0578495340884875,0.0,0,False
2024-12-11,1.0578495340884875,1.0578495340884875,0.0,0,False
2024-12-12,1.0578495340884875,1.0578495340884875,0.0,0,False
2024-12-13,1.0578495340884875,1.0578495340884875,0.0,0,False
2024-12-14,1.0578495340884875,1.0578495340884875,0.0,0,False
2024-12-15,1.0578495340884875,1.0512847426530922,-0.6205789409409634,2,True
2024-12-16,1.0512847426530922,1.048120004709165,-0.30103527764899773,0,True
2024-12-17,1.048120004709165,1.048120004709165,0.0,0,False
2024-12-18,1.048120004709165,1.048120004709165,0.0,0,False
2024-12-19,1.048120004709165,1.048120004709165,0.0,0,False
2024-12-20,1.048120004709165,1.0505052390518441,0.22757263786230553,2,True
2024-12-21,1.0505052390518441,1.0505052390518441,0.0,0,False
2024-12-22,1.0505052390518441,1.0505052390518441,0.0,0,False
2024-12-23,1.0505052390518441,1.0505052390518441,0.0,0,False
2024-12-24,1.0505052390518441,1.0505052390518441,0.0,0,False
2024-12-25,1.0505052390518441,1.0579316680814146,0.7069387903551494,1,True
2024-12-26,1.0579316680814146,1.0568114480413406,-0.10588775001938444,0,True
2024-12-27,1.0568114480413406,1.0568114480413406,0.0,0,False
2024-12-28,1.0568114480413406,1.0568114480413406,0.0,0,False
2024-12-29,1.0568114480413406,1.0568114480413406,0.0,0,False
2024-12-30,1.0568114480413406,1.0568114480413406,0.0,0,False
2024-12-31,1.0568114480413406,1.0568114480413406,0.0,0,False
