day,start_equity,end_equity,return_pct,entries,active
2024-01-02,1.0,1.0,0.0,0,False
2024-01-03,1.0,1.004655488462179,0.46554884621790027,3,True
2024-01-04,1.004655488462179,1.0066421060732755,0.19774117933077928,0,True
2024-01-05,1.0066421060732755,1.0066421060732755,0.0,0,False
2024-01-06,1.0066421060732755,1.0066421060732755,0.0,0,False
2024-01-07,1.0066421060732755,1.0066421060732755,0.0,0,False
2024-01-08,1.0066421060732755,1.0066421060732755,0.0,0,False
2024-01-09,1.0066421060732755,1.0066421060732755,0.0,0,False
2024-01-10,1.0066421060732755,1.0066421060732755,0.0,0,False
2024-01-11,1.0066421060732755,1.0066421060732755,0.0,0,False
2024-01-12,1.0066421060732755,1.0066421060732755,0.0,0,False
2024-01-13,1.0066421060732755,1.0066421060732755,0.0,0,False
2024-01-14,1.0066421060732755,1.0066421060732755,0.0,0,False
2024-01-15,1.0066421060732755,1.0066421060732755,0.0,0,False
2024-01-16,1.0066421060732755,1.0066421060732755,0.0,0,False
2024-01-17,1.0066421060732755,1.0066421060732755,0.0,0,False
2024-01-18,1.0066421060732755,1.0066421060732755,0.0,0,False
2024-01-19,1.0066421060732755,1.0066421060732755,0.0,0,False
2024-01-20,1.0066421060732755,1.0066421060732755,0.0,0,False
2024-01-21,1.0066421060732755,1.0066421060732755,0.0,0,False
2024-01-22,1.0066421060732755,1.0066421060732755,0.0,0,False
2024-01-23,1.0066421060732755,0.9966159518842423,-0.9959998820378568,2,True
2024-01-24,0.9966159518842423,0.9966159518842423,0.0,0,False
2024-01-25,0.9966159518842423,0.9966159518842423,0.0,0,False
2024-01-26,0.9966159518842423,0.9966159518842423,0.0,0,False
2024-01-27,0.9966159518842423,0.9966159518842423,0.0,0,False
2024-01-28,0.9966159518842423,0.9956087312753125,-0.10106406655698841,1,True
2024-01-29,0.9956087312753125,0.9956087312753125,0.0,0,False
2024-01-30,0.9956087312753125,0.9956087312753125,0.0,0,False
2024-01-31,0.9956087312753125,0.9956087312753125,0.0,0,False
2024-02-01,0.9956087312753125,0.9956087312753125,0.0,0,False
2024-02-02,0.9956087312753125,0.9956087312753125,0.0,0,False
2024-02-03,0.9956087312753125,0.9956087312753125,0.0,0,False
2024-02-04,0.9956087312753125,0.9956087312753125,0.0,0,False
2024-02-05,0.9956087312753125,0.9956087312753125,0.0,0,False
2024-02-06,0.9956087312753125,0.9906381520047133,-0.49925026915264015,1,True
2024-02-07,0.9906381520047133,0.9906381520047133,0.0,0,False
2024-02-08,0.9906381520047133,0.9906381520047133,0.0,0,False
2024-02-09,0.9906381520047133,0.9906381520047133,0.0,0,False
2024-02-10,0.9906381520047133,0.9906381520047133,0.0,0,False
2024-02-11,0.9906381520047133,0.9906381520047133,0.0,0,False
2024-02-12,0.9906381520047133,0.9906381520047133,0.0,0,False
2024-02-13,0.9906381520047133,0.9906381520047133,0.0,0,False
2024-02-14,0.9906381520047133,0.9906381520047133,0.0,0,False
2024-02-15,0.9906381520047133,0.9906381520047133,0.0,0,False
2024-02-16,0.9906381520047133,0.9906381520047133,0.0,0,False
2024-02-17,0.9906381520047133,0.9906381520047133,0.0,0,False
2024-02-18,0.9906381520047133,0.9906381520047133,0.0,0,False
2024-02-19,0.9906381520047133,0.9906381520047133,0.0,0,False
2024-02-20,0.9906381520047133,0.9906381520047133,0.0,0,False
2024-02-21,0.9906381520047133,0.9955311494271574,0.4939237816090847,1,True
2024-02-22,0.9955311494271574,0.9955311494271574,0.0,0,False
2024-02-23,0.9955311494271574,0.9955311494271574,0.0,0,False
2024-02-24,0.9955311494271574,0.9955311494271574,0.0,0,False
2024-02-25,0.9955311494271574,0.9955311494271574,0.0,0,False
2024-02-26,0.9955311494271574,0.9955311494271574,0.0,0,False
2024-02-27,0.9955311494271574,0.994633010023663,-0.09021710712027176,1,True
2024-02-28,0.994633010023663,0.994633010023663,0.0,0,False
2024-02-29,0.994633010023663,0.994633010023663,0.0,0,False
2024-03-01,0.994633010023663,0.994633010023663,0.0,0,False
2024-03-02,0.994633010023663,0.994633010023663,0.0,0,False
2024-03-03,0.994633010023663,1.005783000774969,1.1210155543742495,4,True
2024-03-04,1.005783000774969,1.007916294529304,0.21210278486425427,0,True
2024-03-05,1.007916294529304,1.0075975698148025,-0.031622141266240966,1,True
2024-03-06,1.0075975698148025,1.0075975698148025,0.0,0,False
2024-03-07,1.0075975698148025,1.0075975698148025,0.0,0,False
2024-03-08,1.0075975698148025,1.0075975698148025,0.0,0,False
2024-03-09,1.0075975698148025,1.0075975698148025,0.0,0,False
2024-03-10,1.0075975698148025,1.0075975698148025,0.0,0,False
2024-03-11,1.0075975698148025,1.0075975698148025,0.0,0,False
2024-03-12,1.0075975698148025,1.0075975698148025,0.0,0,False
2024-03-13,1.0075975698148025,1.0075975698148025,0.0,0,False
2024-03-14,1.0075975698148025,1.0075975698148025,0.0,0,False
2024-03-15,1.0075975698148025,1.0075975698148025,0.0,0,False
2024-03-16,1.0075975698148025,1.0075975698148025,0.0,0,False
2024-03-17,1.0075975698148025,1.0075975698148025,0.0,0,False
2024-03-18,1.0075975698148025,1.0075975698148025,0.0,0,False
2024-03-19,1.0075975698148025,1.0075975698148025,0.0,0,False
2024-03-20,1.0075975698148025,1.0075975698148025,0.0,0,False
2024-03-21,1.0075975698148025,1.0075975698148025,0.0,0,False
2024-03-22,1.0075975698148025,1.0075975698148025,0.0,0,False
2024-03-23,1.0075975698148025,1.0075975698148025,0.0,0,False
2024-03-24,1.0075975698148025,1.0075975698148025,0.0,0,False
2024-03-25,1.0075975698148025,1.0075975698148025,0.0,0,False
2024-03-26,1.0075975698148025,1.0075975698148025,0.0,0,False
2024-03-27,1.0075975698148025,1.002560582299898,-0.49990072086322224,1,True
2024-03-28,1.002560582299898,1.002560582299898,0.0,0,False
2024-03-29,1.002560582299898,0.9975516514616856,-0.49961378161524905,1,True
2024-03-30,0.9975516514616856,0.9975516514616856,0.0,0,False
2024-03-31,0.9975516514616856,0.9975516514616856,0.0,0,False
2024-04-01,0.9975516514616856,0.9975516514616856,0.0,0,False
2024-04-02,0.9975516514616856,0.9975516514616856,0.0,0,False
2024-04-03,0.9975516514616856,0.9975516514616856,0.0,0,False
2024-04-04,0.9975516514616856,0.9975516514616856,0.0,0,False
2024-04-05,0.9975516514616856,0.997345968884814,-0.02061873954799509,1,True
2024-04-06,0.997345968884814,0.997206753654521,-0.013958569507088736,0,True
2024-04-07,0.997206753654521,0.997206753654521,0.0,0,False
2024-04-08,0.997206753654521,0.997206753654521,0.0,0,False
2024-04-09,0.997206753654521,0.997206753654521,0.0,0,False
2024-04-10,0.997206753654521,0.9922274237088299,-0.4993277399539364,1,True
2024-04-11,0.9922274237088299,0.9922274237088299,0.0,0,False
2024-04-12,0.9922274237088299,0.9945161708128653,0.2306675918591683,1,True
2024-04-13,0.9945161708128653,0.974683238514477,-1.9942292423639318,4,True
2024-04-14,0.974683238514477,0.974683238514477,0.0,0,False
2024-04-15,0.974683238514477,0.974683238514477,0.0,0,False
2024-04-16,0.974683238514477,0.974683238514477,0.0,0,False
2024-04-17,0.974683238514477,0.974683238514477,0.0,0,False
2024-04-18,0.974683238514477,0.974683238514477,0.0,0,False
2024-04-19,0.974683238514477,0.974683238514477,0.0,0,False
2024-04-20,0.974683238514477,0.974683238514477,0.0,0,False
2024-04-21,0.974683238514477,0.974683238514477,0.0,0,False
2024-04-22,0.974683238514477,0.974683238514477,0.0,0,False
2024-04-23,0.974683238514477,0.974683238514477,0.0,0,False
2024-04-24,0.974683238514477,0.974683238514477,0.0,0,False
2024-04-25,0.974683238514477,0.974683238514477,0.0,0,False
2024-04-26,0.974683238514477,0.974683238514477,0.0,0,False
2024-04-27,0.974683238514477,0.974683238514477,0.0,0,False
2024-04-28,0.974683238514477,0.974683238514477,0.0,0,False
2024-04-29,0.974683238514477,0.9824498315680854,0.7968325243230323,1,True
2024-04-30,0.9824498315680854,0.9827200777104476,0.027507373270219126,0,True
2024-05-01,0.9827200777104476,0.9827200777104476,0.0,0,False
2024-05-02,0.9827200777104476,0.9827200777104476,0.0,0,False
2024-05-03,0.9827200777104476,0.9827200777104476,0.0,0,False
2024-05-04,0.9827200777104476,0.9827200777104476,0.0,0,False
2024-05-05,0.9827200777104476,0.9827200777104476,0.0,0,False
2024-05-06,0.9827200777104476,0.9827200777104476,0.0,0,False
2024-05-07,0.9827200777104476,0.9827200777104476,0.0,0,False
2024-05-08,0.9827200777104476,0.9827200777104476,0.0,0,False
2024-05-09,0.9827200777104476,0.9806255963746591,-0.21313102106026438,1,True
2024-05-10,0.9806255963746591,0.9806255963746591,0.0,0,False
2024-05-11,0.9806255963746591,0.9807660074026114,0.014318515493738637,1,True
2024-05-12,0.9807660074026114,0.9768109188052025,-0.403265260781549,0,True
2024-05-13,0.9768109188052025,0.9768109188052025,0.0,0,False
2024-05-14,0.9768109188052025,0.9768109188052025,0.0,0,False
2024-05-15,0.9768109188052025,0.9768109188052025,0.0,0,False
2024-05-16,0.9768109188052025,0.9768109188052025,0.0,0,False
2024-05-17,0.9768109188052025,0.9768109188052025,0.0,0,False
2024-05-18,0.9768109188052025,0.9768109188052025,0.0,0,False
2024-05-19,0.9768109188052025,0.9768109188052025,0.0,0,False
2024-05-20,0.9768109188052025,0.9768109188052025,0.0,0,False
2024-05-21,0.9768109188052025,0.9768109188052025,0.0,0,False
2024-05-22,0.9768109188052025,0.9768109188052025,0.0,0,False
2024-05-23,0.9768109188052025,0.9768109188052025,0.0,0,False
2024-05-24,0.9768109188052025,0.9788636643606988,0.21014768733411682,1,True
2024-05-25,0.9788636643606988,0.9788636643606988,0.0,0,False
2024-05-26,0.9788636643606988,0.9788636643606988,0.0,0,False
2024-05-27,0.9788636643606988,0.9788636643606988,0.0,0,False
2024-05-28,0.9788636643606988,0.9788636643606988,0.0,0,False
2024-05-29,0.9788636643606988,0.9788636643606988,0.0,0,False
2024-05-30,0.9788636643606988,0.9788636643606988,0.0,0,False
2024-05-31,0.9788636643606988,0.9788636643606988,0.0,0,False
2024-06-01,0.9788636643606988,0.9788636643606988,0.0,0,False
2024-06-02,0.9788636643606988,0.9788636643606988,0.0,0,False
2024-06-03,0.9788636643606988,0.9797715720592689,0.09275119014280353,1,True
2024-06-04,0.9797715720592689,0.9804591212725993,0.07017443993453387,1,True
2024-06-05,0.9804591212725993,0.9804591212725993,0.0,0,False
2024-06-06,0.9804591212725993,0.9804591212725993,0.0,0,False
2024-06-07,0.9804591212725993,0.9804591212725993,0.0,0,False
2024-06-08,0.9804591212725993,1.0037144797217072,2.3718845533226673,4,True
2024-06-09,1.0037144797217072,1.0037144797217072,0.0,0,False
2024-06-10,1.0037144797217072,1.0037144797217072,0.0,0,False
2024-06-11,1.0037144797217072,1.0037144797217072,0.0,0,False
2024-06-12,1.0037144797217072,1.0037144797217072,0.0,0,False
2024-06-13,1.0037144797217072,1.0037144797217072,0.0,0,False
2024-06-14,1.0037144797217072,1.003296923477368,-0.041601097999000025,1,True
2024-06-15,1.003296923477368,1.0104543601886211,0.7133916733688128,1,True
2024-06-16,1.0104543601886211,1.0104543601886211,0.0,0,False
2024-06-17,1.0104543601886211,1.0104543601886211,0.0,0,False
2024-06-18,1.0104543601886211,1.015758843778133,0.5249602355638983,4,True
2024-06-19,1.015758843778133,1.015758843778133,0.0,0,False
2024-06-20,1.015758843778133,1.015758843778133,0.0,0,False
2024-06-21,1.015758843778133,1.015758843778133,0.0,0,False
2024-06-22,1.015758843778133,1.015758843778133,0.0,0,False
2024-06-23,1.015758843778133,1.0210936322385422,0.5252022655856337,1,True
2024-06-24,1.0210936322385422,1.0210936322385422,0.0,0,False
2024-06-25,1.0210936322385422,1.0210936322385422,0.0,0,False
2024-06-26,1.0210936322385422,1.0210936322385422,0.0,0,False
2024-06-27,1.0210936322385422,1.0210936322385422,0.0,0,False
2024-06-28,1.0210936322385422,1.0210936322385422,0.0,0,False
2024-06-29,1.0210936322385422,1.0109211506311329,-0.9962339678006082,2,True
2024-06-30,1.0109211506311329,1.0109211506311329,0.0,0,False
2024-07-01,1.0109211506311329,1.0109211506311329,0.0,0,False
2024-07-02,1.0109211506311329,1.0109211506311329,0.0,0,False
2024-07-03,1.0109211506311329,1.0109211506311329,0.0,0,False
2024-07-04,1.0109211506311329,1.0109211506311329,0.0,0,False
2024-07-05,1.0109211506311329,1.0109211506311329,0.0,0,False
2024-07-06,1.0109211506311329,1.0109211506311329,0.0,0,False
2024-07-07,1.0109211506311329,1.0109211506311329,0.0,0,False
2024-07-08,1.0109211506311329,1.0109211506311329,0.0,0,False
2024-07-09,1.0109211506311329,1.0109211506311329,0.0,0,False
2024-07-10,1.0109211506311329,1.0109211506311329,0.0,0,False
2024-07-11,1.0109211506311329,1.0109211506311329,0.0,0,False
2024-07-12,1.0109211506311329,1.0109211506311329,0.0,0,False
2024-07-13,1.0109211506311329,1.0109211506311329,0.0,0,False
2024-07-14,1.0109211506311329,1.0109211506311329,0.0,0,False
2024-07-15,1.0109211506311329,1.0109211506311329,0.0,0,False
2024-07-16,1.0109211506311329,1.008892845033989,-0.20063934718129728,1,True
2024-07-17,1.008892845033989,1.008892845033989,0.0,0,False
2024-07-18,1.008892845033989,1.008892845033989,0.0,0,False
2024-07-19,1.008892845033989,1.008892845033989,0.0,0,False
2024-07-20,1.008892845033989,1.0097638351016942,0.08633127611048508,1,True
2024-07-21,1.0097638351016942,1.0097638351016942,0.0,0,False
2024-07-22,1.0097638351016942,1.0097638351016942,0.0,0,False
2024-07-23,1.0097638351016942,1.0047155765292195,-0.4999444817674892,1,True
2024-07-24,1.0047155765292195,1.0047155765292195,0.0,0,False
2024-07-25,1.0047155765292195,1.0047155765292195,0.0,0,False
2024-07-26,1.0047155765292195,1.0047155765292195,0.0,0,False
2024-07-27,1.0047155765292195,1.0047155765292195,0.0,0,False
2024-07-28,1.0047155765292195,1.0047155765292195,0.0,0,False
2024-07-29,1.0047155765292195,1.0047155765292195,0.0,0,False
2024-07-30,1.0047155765292195,1.0047155765292195,0.0,0,False
2024-07-31,1.0047155765292195,0.9996964952658846,-0.49955244853208125,1,True
2024-08-01,0.9996964952658846,0.9996964952658846,0.0,0,False
2024-08-02,0.9996964952658846,0.9996964952658846,0.0,0,False
2024-08-03,0.9996964952658846,0.994703878493857,-0.49941325148886717,1,True
2024-08-04,0.994703878493857,0.994703878493857,0.0,0,False
2024-08-05,0.994703878493857,0.994703878493857,0.0,0,False
2024-08-06,0.994703878493857,0.994703878493857,0.0,0,False
2024-08-07,0.994703878493857,0.994703878493857,0.0,0,False
2024-08-08,0.994703878493857,0.994703878493857,0.0,0,False
2024-08-09,0.994703878493857,0.994703878493857,0.0,0,False
2024-08-10,0.994703878493857,0.994703878493857,0.0,0,False
2024-08-11,0.994703878493857,0.994703878493857,0.0,0,False
2024-08-12,0.994703878493857,0.994703878493857,0.0,0,False
2024-08-13,0.994703878493857,0.994703878493857,0.0,0,False
2024-08-14,0.994703878493857,0.994703878493857,0.0,0,False
2024-08-15,0.994703878493857,0.994703878493857,0.0,0,False
2024-08-16,0.994703878493857,0.994703878493857,0.0,0,False
2024-08-17,0.994703878493857,0.994703878493857,0.0,0,False
2024-08-18,0.994703878493857,0.994703878493857,0.0,0,False
2024-08-19,0.994703878493857,0.994703878493857,0.0,0,False
2024-08-20,0.994703878493857,0.994703878493857,0.0,0,False
2024-08-21,0.994703878493857,0.994703878493857,0.0,0,False
2024-08-22,0.994703878493857,0.994703878493857,0.0,0,False
2024-08-23,0.994703878493857,0.994703878493857,0.0,0,False
2024-08-24,0.994703878493857,0.994703878493857,0.0,0,False
2024-08-25,0.994703878493857,0.994703878493857,0.0,0,False
2024-08-26,0.994703878493857,0.994703878493857,0.0,0,False
2024-08-27,0.994703878493857,0.994703878493857,0.0,0,False
2024-08-28,0.994703878493857,0.994703878493857,0.0,0,False
2024-08-29,0.994703878493857,0.9897374806292709,-0.4992840554825184,1,True
2024-08-30,0.9897374806292709,0.9897374806292709,0.0,0,False
2024-08-31,0.9897374806292709,0.9897374806292709,0.0,0,False
2024-09-01,0.9897374806292709,0.9867155420300097,-0.30532728712465707,1,True
2024-09-02,0.9867155420300097,0.9883688361106374,0.16755528926060137,0,True
2024-09-03,0.9883688361106374,0.9883688361106374,0.0,0,False
2024-09-04,0.9883688361106374,0.9883688361106374,0.0,0,False
2024-09-05,0.9883688361106374,0.9883688361106374,0.0,0,False
2024-09-06,0.9883688361106374,0.9883688361106374,0.0,0,False
2024-09-07,0.9883688361106374,0.9883688361106374,0.0,0,False
2024-09-08,0.9883688361106374,0.9883688361106374,0.0,0,False
2024-09-09,0.9883688361106374,0.9883688361106374,0.0,0,False
2024-09-10,0.9883688361106374,0.9883688361106374,0.0,0,False
2024-09-11,0.9883688361106374,0.9883688361106374,0.0,0,False
2024-09-12,0.9883688361106374,0.9883688361106374,0.0,0,False
2024-09-13,0.9883688361106374,0.9883688361106374,0.0,0,False
2024-09-14,0.9883688361106374,0.9883688361106374,0.0,0,False
2024-09-15,0.9883688361106374,0.9883688361106374,0.0,0,False
2024-09-16,0.9883688361106374,0.9883688361106374,0.0,0,False
2024-09-17,0.9883688361106374,0.9883688361106374,0.0,0,False
2024-09-18,0.9883688361106374,0.9883688361106374,0.0,0,False
2024-09-19,0.9883688361106374,0.9883688361106374,0.0,0,False
2024-09-20,0.9883688361106374,0.9883688361106374,0.0,0,False
2024-09-21,0.9883688361106374,0.9883688361106374,0.0,0,False
2024-09-22,0.9883688361106374,0.9883688361106374,0.0,0,False
2024-09-23,0.9883688361106374,0.9883688361106374,0.0,0,False
2024-09-24,0.9883688361106374,0.9883688361106374,0.0,0,False
2024-09-25,0.9883688361106374,0.9883688361106374,0.0,0,False
2024-09-26,0.9883688361106374,0.9883688361106374,0.0,0,False
2024-09-27,0.9883688361106374,0.9883688361106374,0.0,0,False
2024-09-28,0.9883688361106374,0.9883688361106374,0.0,0,False
2024-09-29,0.9883688361106374,0.9883688361106374,0.0,0,False
2024-09-30,0.9883688361106374,0.9883688361106374,0.0,0,False
2024-10-01,0.9883688361106374,0.9883688361106374,0.0,0,False
2024-10-02,0.9883688361106374,0.9883688361106374,0.0,0,False
2024-10-03,0.9883688361106374,0.9883688361106374,0.0,0,False
2024-10-04,0.9883688361106374,0.9883688361106374,0.0,0,False
2024-10-05,0.9883688361106374,0.9883688361106374,0.0,0,False
2024-10-06,0.9883688361106374,0.9883688361106374,0.0,0,False
2024-10-07,0.9883688361106374,0.9883688361106374,0.0,0,False
2024-10-08,0.9883688361106374,0.9883688361106374,0.0,0,False
2024-10-09,0.9883688361106374,0.9883688361106374,0.0,0,False
2024-10-10,0.9883688361106374,0.9883688361106374,0.0,0,False
2024-10-11,0.9883688361106374,0.9883688361106374,0.0,0,False
2024-10-12,0.9883688361106374,0.9883688361106374,0.0,0,False
2024-10-13,0.9883688361106374,0.9883688361106374,0.0,0,False
2024-10-14,0.9883688361106374,0.9883688361106374,0.0,0,False
2024-10-15,0.9883688361106374,0.9883688361106374,0.0,0,False
2024-10-16,0.9883688361106374,0.9883688361106374,0.0,0,False
2024-10-17,0.9883688361106374,0.9883688361106374,0.0,0,False
2024-10-18,0.9883688361106374,0.9883688361106374,0.0,0,False
2024-10-19,0.9883688361106374,0.9883688361106374,0.0,0,False
2024-10-20,0.9883688361106374,0.9883688361106374,0.0,0,False
2024-10-21,0.9883688361106374,0.9883688361106374,0.0,0,False
2024-10-22,0.9883688361106374,0.9883688361106374,0.0,0,False
2024-10-23,0.9883688361106374,0.9883688361106374,0.0,0,False
2024-10-24,0.9883688361106374,0.9883688361106374,0.0,0,False
2024-10-25,0.9883688361106374,0.9883688361106374,0.0,0,False
2024-10-26,0.9883688361106374,0.9883688361106374,0.0,0,False
2024-10-27,0.9883688361106374,0.9883688361106374,0.0,0,False
2024-10-28,0.9883688361106374,0.9883688361106374,0.0,0,False
2024-10-29,0.9883688361106374,0.9883688361106374,0.0,0,False
2024-10-30,0.9883688361106374,0.9883688361106374,0.0,0,False
2024-10-31,0.9883688361106374,0.9883688361106374,0.0,0,False
2024-11-01,0.9883688361106374,0.9883688361106374,0.0,0,False
2024-11-02,0.9883688361106374,0.9883688361106374,0.0,0,False
2024-11-03,0.9883688361106374,0.9883688361106374,0.0,0,False
2024-11-04,0.9883688361106374,0.9883688361106374,0.0,0,False
2024-11-05,0.9883688361106374,0.9883688361106374,0.0,0,False
2024-11-06,0.9883688361106374,0.9883688361106374,0.0,0,False
2024-11-07,0.9883688361106374,0.9883688361106374,0.0,0,False
2024-11-08,0.9883688361106374,0.9883688361106374,0.0,0,False
2024-11-09,0.9883688361106374,0.9870986958429938,-0.12850873289791398,1,True
2024-11-10,0.9870986958429938,0.9890057558261871,0.19319851107337804,0,True
2024-11-11,0.9890057558261871,0.9890057558261871,0.0,0,False
2024-11-12,0.9890057558261871,0.9890057558261871,0.0,0,False
2024-11-13,0.9890057558261871,0.9890057558261871,0.0,0,False
2024-11-14,0.9890057558261871,0.9890057558261871,0.0,0,False
2024-11-15,0.9890057558261871,0.9890057558261871,0.0,0,False
2024-11-16,0.9890057558261871,0.9890057558261871,0.0,0,False
2024-11-17,0.9890057558261871,0.9890057558261871,0.0,0,False
2024-11-18,0.9890057558261871,0.9890057558261871,0.0,0,False
2024-11-19,0.9890057558261871,0.9890057558261871,0.0,0,False
2024-11-20,0.9890057558261871,0.9890057558261871,0.0,0,False
2024-11-21,0.9890057558261871,0.9890057558261871,0.0,0,False
2024-11-22,0.9890057558261871,0.9890057558261871,0.0,0,False
2024-11-23,0.9890057558261871,0.9890057558261871,0.0,0,False
2024-11-24,0.9890057558261871,0.9948814705859035,0.5941031915236872,2,True
2024-11-25,0.9948814705859035,0.9948814705859035,0.0,0,False
2024-11-26,0.9948814705859035,0.9948814705859035,0.0,0,False
2024-11-27,0.9948814705859035,0.9948814705859035,0.0,0,False
2024-11-28,0.9948814705859035,0.9948814705859035,0.0,0,False
2024-11-29,0.9948814705859035,0.9948814705859035,0.0,0,False
2024-11-30,0.9948814705859035,0.9948814705859035,0.0,0,False
2024-12-01,0.9948814705859035,0.9948814705859035,0.0,0,False
2024-12-02,0.9948814705859035,0.9948814705859035,0.0,0,False
2024-12-03,0.9948814705859035,0.9948814705859035,0.0,0,False
2024-12-04,0.9948814705859035,0.9948814705859035,0.0,0,False
2024-12-05,0.9948814705859035,0.9948814705859035,0.0,0,False
2024-12-06,0.9948814705859035,0.9948814705859035,0.0,0,False
2024-12-07,0.9948814705859035,0.9948814705859035,0.0,0,False
2024-12-08,0.9948814705859035,0.9948814705859035,0.0,0,False
2024-12-09,0.9948814705859035,0.9948814705859035,0.0,0,False
2024-12-10,0.9948814705859035,0.9948814705859035,0.0,0,False
2024-12-11,0.9948814705859035,0.9948814705859035,0.0,0,False
2024-12-12,0.9948814705859035,0.9948814705859035,0.0,0,False
2024-12-13,0.9948814705859035,0.9948814705859035,0.0,0,False
2024-12-14,0.9948814705859035,0.9948814705859035,0.0,0,False
2024-12-15,0.9948814705859035,0.9899144759625245,-0.49925491329674276,1,True
2024-12-16,0.9899144759625245,0.9899144759625245,0.0,0,False
2024-12-17,0.9899144759625245,0.9899144759625245,0.0,0,False
2024-12-18,0.9899144759625245,0.9899144759625245,0.0,0,False
2024-12-19,0.9899144759625245,0.9899144759625245,0.0,0,False
2024-12-20,0.9899144759625245,0.9900402792826541,0.012708503934888427,1,True
2024-12-21,0.9900402792826541,0.9900402792826541,0.0,0,False
2024-12-22,0.9900402792826541,0.9900402792826541,0.0,0,False
2024-12-23,0.9900402792826541,0.9900402792826541,0.0,0,False
2024-12-24,0.9900402792826541,0.9900402792826541,0.0,0,False
2024-12-25,0.9900402792826541,0.9900402792826541,0.0,0,False
2024-12-26,0.9900402792826541,0.9900402792826541,0.0,0,False
2024-12-27,0.9900402792826541,0.9900402792826541,0.0,0,False
2024-12-28,0.9900402792826541,0.9900402792826541,0.0,0,False
2024-12-29,0.9900402792826541,0.9900402792826541,0.0,0,False
2024-12-30,0.9900402792826541,0.9900402792826541,0.0,0,False
2024-12-31,0.9900402792826541,0.9900402792826541,0.0,0,False
