day,start_equity,end_equity,return_pct,entries,active
2021-09-02,1.0,1.0,0.0,0,False
2021-09-03,1.0,1.0,0.0,0,False
2021-09-04,1.0,1.0,0.0,0,False
2021-09-05,1.0,1.0,0.0,0,False
2021-09-06,1.0,1.0,0.0,0,False
2021-09-07,1.0,1.0,0.0,0,False
2021-09-08,1.0,1.0,0.0,0,False
2021-09-09,1.0,1.0,0.0,0,False
2021-09-10,1.0,1.0,0.0,0,False
2021-09-11,1.0,1.0,0.0,0,False
2021-09-12,1.0,1.0,0.0,0,False
2021-09-13,1.0,1.0,0.0,0,False
2021-09-14,1.0,1.0,0.0,0,False
2021-09-15,1.0,1.0,0.0,0,False
2021-09-16,1.0,1.0,0.0,0,False
2021-09-17,1.0,1.0,0.0,0,False
2021-09-18,1.0,1.0,0.0,0,False
2021-09-19,1.0,1.0,0.0,0,False
2021-09-20,1.0,1.0,0.0,0,False
2021-09-21,1.0,1.0,0.0,0,False
2021-09-22,1.0,1.0,0.0,0,False
2021-09-23,1.0,1.0,0.0,0,False
2021-09-24,1.0,1.0,0.0,0,False
2021-09-25,1.0,1.0,0.0,0,False
2021-09-26,1.0,1.0,0.0,0,False
2021-09-27,1.0,1.0,0.0,0,False
2021-09-28,1.0,1.0,0.0,0,False
2021-09-29,1.0,1.0,0.0,0,False
2021-09-30,1.0,1.0,0.0,0,False
2021-10-01,1.0,1.0,0.0,0,False
2021-10-02,1.0,1.0,0.0,0,False
2021-10-03,1.0,1.0,0.0,0,False
2021-10-04,1.0,1.0,0.0,0,False
2021-10-05,1.0,0.9991229226558256,-0.08770773441744151,1,True
2021-10-06,0.9991229226558256,0.9998486930470231,0.07264075067643372,5,True
2021-10-07,0.9998486930470231,0.9879237306946332,-1.192676695515671,2,True
2021-10-08,0.9879237306946332,0.9870889239760444,-0.08450113026456929,1,True
2021-10-09,0.9870889239760444,0.9879165053656258,0.08384061146669008,4,True
2021-10-10,0.9879165053656258,0.9825171346025049,-0.5465412040183137,1,True
2021-10-11,0.9825171346025049,0.9825171346025049,0.0,0,False
2021-10-12,0.9825171346025049,0.9825171346025049,0.0,0,False
2021-10-13,0.9825171346025049,0.9998561376634829,1.7647532496207097,4,True
2021-10-14,0.9998561376634829,1.0177196198287073,1.7866052417269351,1,True
2021-10-15,1.0177196198287073,1.0152787328288657,-0.23983884679872336,6,True
2021-10-16,1.0152787328288657,1.0371138384919327,2.150651339088716,4,True
2021-10-17,1.0371138384919327,1.0371138384919327,0.0,0,False
2021-10-18,1.0371138384919327,1.0378316326351944,0.06921073816790191,2,True
2021-10-19,1.0378316326351944,1.0378316326351944,0.0,0,False
2021-10-20,1.0378316326351944,1.0378316326351944,0.0,0,False
2021-10-21,1.0378316326351944,1.0378316326351944,0.0,0,False
2021-10-22,1.0378316326351944,1.0378316326351944,0.0,0,False
2021-10-23,1.0378316326351944,1.0378316326351944,0.0,0,False
2021-10-24,1.0378316326351944,1.0419658468694004,0.3983511490884828,1,True
2021-10-25,1.0419658468694004,1.0338823564995328,-0.7757922578896959,3,True
2021-10-26,1.0338823564995328,1.0338823564995328,0.0,0,False
2021-10-27,1.0338823564995328,1.0299490004338818,-0.38044522579612217,7,True
2021-10-28,1.0299490004338818,1.0048368441528128,-2.438194150437556,8,True
2021-10-29,1.0048368441528128,1.0087485486451284,0.38928752613700546,3,True
2021-10-30,1.0087485486451284,1.0099394785473073,0.1180601353804489,3,True
2021-10-31,1.0099394785473073,1.0058528394290964,-0.40464198152636577,15,True
2021-11-01,1.0058528394290964,0.9891756680896152,-1.6580130497963141,9,True
2021-11-02,0.9891756680896152,0.9956228947131335,0.6517777207328379,3,True
2021-11-03,0.9956228947131335,0.9915563676262923,-0.4084404957373833,2,True
2021-11-04,0.9915563676262923,0.9837758284816944,-0.7846794593457052,6,True
2021-11-05,0.9837758284816944,0.9693165560033687,-1.4697730986785174,7,True
2021-11-06,0.9693165560033687,0.967047996639284,-0.23403699751486373,3,True
2021-11-07,0.967047996639284,0.967047996639284,0.0,0,False
2021-11-08,0.967047996639284,0.967047996639284,0.0,0,False
2021-11-09,0.967047996639284,0.9728646835310637,0.6014889552528935,2,True
2021-11-10,0.9728646835310637,1.0046377034981586,3.26592387461051,1,True
2021-11-11,1.0046377034981586,0.9826455221562808,-2.1890658956259412,7,True
2021-11-12,0.9826455221562808,0.9610465163790627,-2.1980465274824668,8,True
2021-11-13,0.9610465163790627,0.9609789428463268,-0.007031244750821397,1,True
2021-11-14,0.9609789428463268,0.9522671308125848,-0.9065559759237174,2,True
2021-11-15,0.9522671308125848,0.9522671308125848,0.0,0,False
2021-11-16,0.9522671308125848,0.9752173318659888,2.4100591431545304,9,True
2021-11-17,0.9752173318659888,0.96544614055791,-1.001950128324991,1,True
2021-11-18,0.96544614055791,0.9538567094681488,-1.2004223335611353,4,True
2021-11-19,0.9538567094681488,0.9563015633238381,0.2563124871294731,6,True
2021-11-20,0.9563015633238381,0.9603099082616384,0.41915072520308794,0,True
2021-11-21,0.9603099082616384,0.9569141133835654,-0.35361447891547604,3,True
2021-11-22,0.9569141133835654,0.9435831096080252,-1.3931243764817025,11,True
2021-11-23,0.9435831096080252,0.942776180451775,-0.08551754986217963,0,True
2021-11-24,0.942776180451775,0.9362573693354825,-0.6914484319246017,4,True
2021-11-25,0.9362573693354825,0.9450331207640141,0.9373225478332081,11,True
2021-11-26,0.9450331207640141,0.9257373537572752,-2.0418085443544287,16,True
2021-11-27,0.9257373537572752,0.9281359453551574,0.25910066047860614,9,True
2021-11-28,0.9281359453551574,0.9093013622279554,-2.029291422389079,11,True
2021-11-29,0.9093013622279554,0.9084855133645194,-0.08972260433406376,2,True
2021-11-30,0.9084855133645194,0.9037365770835137,-0.5227310959993514,3,True
2021-12-01,0.9037365770835137,0.9060954142043135,0.2610093671777669,3,True
2021-12-02,0.9060954142043135,0.9065666392380222,0.052006116168512584,8,True
2021-12-03,0.9065666392380222,0.9019199671086052,-0.5125571500538051,3,True
2021-12-04,0.9019199671086052,0.8930783337000402,-0.9803124147378273,5,True
2021-12-05,0.8930783337000402,0.8930783337000402,0.0,0,False
2021-12-06,0.8930783337000402,0.8930783337000402,0.0,0,False
2021-12-07,0.8930783337000402,0.8930783337000402,0.0,0,False
2021-12-08,0.8930783337000402,0.8930783337000402,0.0,0,False
2021-12-09,0.8930783337000402,0.8930783337000402,0.0,0,False
2021-12-10,0.8930783337000402,0.8930783337000402,0.0,0,False
2021-12-11,0.8930783337000402,0.8930783337000402,0.0,0,False
2021-12-12,0.8930783337000402,0.8930783337000402,0.0,0,False
2021-12-13,0.8930783337000402,0.8930783337000402,0.0,0,False
2021-12-14,0.8930783337000402,0.8930783337000402,0.0,0,False
2021-12-15,0.8930783337000402,0.8930783337000402,0.0,0,False
2021-12-16,0.8930783337000402,0.8930783337000402,0.0,0,False
2021-12-17,0.8930783337000402,0.8930783337000402,0.0,0,False
2021-12-18,0.8930783337000402,0.8930783337000402,0.0,0,False
2021-12-19,0.8930783337000402,0.8930783337000402,0.0,0,False
2021-12-20,0.8930783337000402,0.8930783337000402,0.0,0,False
2021-12-21,0.8930783337000402,0.8930783337000402,0.0,0,False
2021-12-22,0.8930783337000402,0.8930783337000402,0.0,0,False
2021-12-23,0.8930783337000402,0.8930783337000402,0.0,0,False
2021-12-24,0.8930783337000402,0.8930783337000402,0.0,0,False
2021-12-25,0.8930783337000402,0.8930783337000402,0.0,0,False
2021-12-26,0.8930783337000402,0.8930783337000402,0.0,0,False
2021-12-27,0.8930783337000402,0.8930783337000402,0.0,0,False
2021-12-28,0.8930783337000402,0.8930783337000402,0.0,0,False
2021-12-29,0.8930783337000402,0.8930783337000402,0.0,0,False
2021-12-30,0.8930783337000402,0.8930783337000402,0.0,0,False
2021-12-31,0.8930783337000402,0.8930783337000402,0.0,0,False
2022-01-01,0.8930783337000402,0.8930783337000402,0.0,0,False
2022-01-02,0.8930783337000402,0.8930783337000402,0.0,0,False
2022-01-03,0.8930783337000402,0.8930783337000402,0.0,0,False
2022-01-04,0.8930783337000402,0.8930783337000402,0.0,0,False
2022-01-05,0.8930783337000402,0.8930783337000402,0.0,0,False
2022-01-06,0.8930783337000402,0.8930783337000402,0.0,0,False
2022-01-07,0.8930783337000402,0.8930783337000402,0.0,0,False
2022-01-08,0.8930783337000402,0.8930783337000402,0.0,0,False
2022-01-09,0.8930783337000402,0.8930783337000402,0.0,0,False
2022-01-10,0.8930783337000402,0.8930783337000402,0.0,0,False
2022-01-11,0.8930783337000402,0.8930783337000402,0.0,0,False
2022-01-12,0.8930783337000402,0.8930783337000402,0.0,0,False
2022-01-13,0.8930783337000402,0.8930783337000402,0.0,0,False
2022-01-14,0.8930783337000402,0.8930783337000402,0.0,0,False
2022-01-15,0.8930783337000402,0.8930783337000402,0.0,0,False
2022-01-16,0.8930783337000402,0.8930783337000402,0.0,0,False
2022-01-17,0.8930783337000402,0.8930783337000402,0.0,0,False
2022-01-18,0.8930783337000402,0.8930783337000402,0.0,0,False
2022-01-19,0.8930783337000402,0.8930783337000402,0.0,0,False
2022-01-20,0.8930783337000402,0.8930783337000402,0.0,0,False
2022-01-21,0.8930783337000402,0.8930783337000402,0.0,0,False
2022-01-22,0.8930783337000402,0.8930783337000402,0.0,0,False
2022-01-23,0.8930783337000402,0.8930783337000402,0.0,0,False
2022-01-24,0.8930783337000402,0.8930783337000402,0.0,0,False
2022-01-25,0.8930783337000402,0.8930783337000402,0.0,0,False
2022-01-26,0.8930783337000402,0.8930783337000402,0.0,0,False
2022-01-27,0.8930783337000402,0.8930783337000402,0.0,0,False
2022-01-28,0.8930783337000402,0.8930783337000402,0.0,0,False
2022-01-29,0.8930783337000402,0.8930783337000402,0.0,0,False
2022-01-30,0.8930783337000402,0.8930783337000402,0.0,0,False
2022-01-31,0.8930783337000402,0.8930783337000402,0.0,0,False
2022-02-01,0.8930783337000402,0.8930783337000402,0.0,0,False
2022-02-02,0.8930783337000402,0.8930783337000402,0.0,0,False
2022-02-03,0.8930783337000402,0.8930783337000402,0.0,0,False
2022-02-04,0.8930783337000402,0.8930783337000402,0.0,0,False
2022-02-05,0.8930783337000402,0.8930783337000402,0.0,0,False
2022-02-06,0.8930783337000402,0.8930783337000402,0.0,0,False
2022-02-07,0.8930783337000402,0.8930783337000402,0.0,0,False
2022-02-08,0.8930783337000402,0.8930783337000402,0.0,0,False
2022-02-09,0.8930783337000402,0.8930783337000402,0.0,0,False
2022-02-10,0.8930783337000402,0.8930783337000402,0.0,0,False
2022-02-11,0.8930783337000402,0.8930783337000402,0.0,0,False
2022-02-12,0.8930783337000402,0.8930783337000402,0.0,0,False
2022-02-13,0.8930783337000402,0.8930783337000402,0.0,0,False
2022-02-14,0.8930783337000402,0.8930783337000402,0.0,0,False
2022-02-15,0.8930783337000402,0.8930783337000402,0.0,0,False
2022-02-16,0.8930783337000402,0.8930783337000402,0.0,0,False
2022-02-17,0.8930783337000402,0.8930783337000402,0.0,0,False
2022-02-18,0.8930783337000402,0.8930783337000402,0.0,0,False
2022-02-19,0.8930783337000402,0.8930783337000402,0.0,0,False
2022-02-20,0.8930783337000402,0.8930783337000402,0.0,0,False
2022-02-21,0.8930783337000402,0.8930783337000402,0.0,0,False
2022-02-22,0.8930783337000402,0.8930783337000402,0.0,0,False
2022-02-23,0.8930783337000402,0.8930783337000402,0.0,0,False
2022-02-24,0.8930783337000402,0.8930783337000402,0.0,0,False
2022-02-25,0.8930783337000402,0.8930783337000402,0.0,0,False
2022-02-26,0.8930783337000402,0.8930783337000402,0.0,0,False
2022-02-27,0.8930783337000402,0.8930783337000402,0.0,0,False
2022-02-28,0.8930783337000402,0.8930783337000402,0.0,0,False
2022-03-01,0.8930783337000402,0.8930783337000402,0.0,0,False
2022-03-02,0.8930783337000402,0.8930783337000402,0.0,0,False
2022-03-03,0.8930783337000402,0.8930783337000402,0.0,0,False
2022-03-04,0.8930783337000402,0.8930783337000402,0.0,0,False
2022-03-05,0.8930783337000402,0.8930783337000402,0.0,0,False
2022-03-06,0.8930783337000402,0.8930783337000402,0.0,0,False
2022-03-07,0.8930783337000402,0.8930783337000402,0.0,0,False
2022-03-08,0.8930783337000402,0.8930783337000402,0.0,0,False
2022-03-09,0.8930783337000402,0.8930783337000402,0.0,0,False
2022-03-10,0.8930783337000402,0.8930783337000402,0.0,0,False
2022-03-11,0.8930783337000402,0.8930783337000402,0.0,0,False
2022-03-12,0.8930783337000402,0.8930783337000402,0.0,0,False
2022-03-13,0.8930783337000402,0.8930783337000402,0.0,0,False
2022-03-14,0.8930783337000402,0.8930783337000402,0.0,0,False
2022-03-15,0.8930783337000402,0.8930783337000402,0.0,0,False
2022-03-16,0.8930783337000402,0.8930783337000402,0.0,0,False
2022-03-17,0.8930783337000402,0.8930783337000402,0.0,0,False
2022-03-18,0.8930783337000402,0.8930783337000402,0.0,0,False
2022-03-19,0.8930783337000402,0.8930783337000402,0.0,0,False
2022-03-20,0.8930783337000402,0.8930783337000402,0.0,0,False
2022-03-21,0.8930783337000402,0.8930783337000402,0.0,0,False
2022-03-22,0.8930783337000402,0.8930783337000402,0.0,0,False
2022-03-23,0.8930783337000402,0.8930783337000402,0.0,0,False
2022-03-24,0.8930783337000402,0.8930783337000402,0.0,0,False
2022-03-25,0.8930783337000402,0.8930783337000402,0.0,0,False
2022-03-26,0.8930783337000402,0.8930783337000402,0.0,0,False
2022-03-27,0.8930783337000402,0.8930783337000402,0.0,0,False
2022-03-28,0.8930783337000402,0.8930783337000402,0.0,0,False
2022-03-29,0.8930783337000402,0.8930783337000402,0.0,0,False
2022-03-30,0.8930783337000402,0.8930783337000402,0.0,0,False
2022-03-31,0.8930783337000402,0.8930783337000402,0.0,0,False
2022-04-01,0.8930783337000402,0.8930783337000402,0.0,0,False
2022-04-02,0.8930783337000402,0.8930783337000402,0.0,0,False
2022-04-03,0.8930783337000402,0.8930783337000402,0.0,0,False
2022-04-04,0.8930783337000402,0.8930783337000402,0.0,0,False
2022-04-05,0.8930783337000402,0.8930783337000402,0.0,0,False
2022-04-06,0.8930783337000402,0.8930783337000402,0.0,0,False
2022-04-07,0.8930783337000402,0.8930783337000402,0.0,0,False
2022-04-08,0.8930783337000402,0.8930783337000402,0.0,0,False
2022-04-09,0.8930783337000402,0.8930783337000402,0.0,0,False
2022-04-10,0.8930783337000402,0.8930783337000402,0.0,0,False
2022-04-11,0.8930783337000402,0.8930783337000402,0.0,0,False
2022-04-12,0.8930783337000402,0.8930783337000402,0.0,0,False
2022-04-13,0.8930783337000402,0.8930783337000402,0.0,0,False
2022-04-14,0.8930783337000402,0.8930783337000402,0.0,0,False
2022-04-15,0.8930783337000402,0.8930783337000402,0.0,0,False
2022-04-16,0.8930783337000402,0.8930783337000402,0.0,0,False
2022-04-17,0.8930783337000402,0.8930783337000402,0.0,0,False
2022-04-18,0.8930783337000402,0.8930783337000402,0.0,0,False
2022-04-19,0.8930783337000402,0.8930783337000402,0.0,0,False
2022-04-20,0.8930783337000402,0.8930783337000402,0.0,0,False
2022-04-21,0.8930783337000402,0.8930783337000402,0.0,0,False
2022-04-22,0.8930783337000402,0.8930783337000402,0.0,0,False
2022-04-23,0.8930783337000402,0.8930783337000402,0.0,0,False
2022-04-24,0.8930783337000402,0.8930783337000402,0.0,0,False
2022-04-25,0.8930783337000402,0.8930783337000402,0.0,0,False
2022-04-26,0.8930783337000402,0.8930783337000402,0.0,0,False
2022-04-27,0.8930783337000402,0.8930783337000402,0.0,0,False
2022-04-28,0.8930783337000402,0.8930783337000402,0.0,0,False
2022-04-29,0.8930783337000402,0.8930783337000402,0.0,0,False
2022-04-30,0.8930783337000402,0.8930783337000402,0.0,0,False
2022-05-01,0.8930783337000402,0.8930783337000402,0.0,0,False
2022-05-02,0.8930783337000402,0.8930783337000402,0.0,0,False
2022-05-03,0.8930783337000402,0.8930783337000402,0.0,0,False
2022-05-04,0.8930783337000402,0.8930783337000402,0.0,0,False
2022-05-05,0.8930783337000402,0.8930783337000402,0.0,0,False
2022-05-06,0.8930783337000402,0.8930783337000402,0.0,0,False
2022-05-07,0.8930783337000402,0.8930783337000402,0.0,0,False
2022-05-08,0.8930783337000402,0.8930783337000402,0.0,0,False
2022-05-09,0.8930783337000402,0.8930783337000402,0.0,0,False
2022-05-10,0.8930783337000402,0.8930783337000402,0.0,0,False
2022-05-11,0.8930783337000402,0.8930783337000402,0.0,0,False
2022-05-12,0.8930783337000402,0.8930783337000402,0.0,0,False
2022-05-13,0.8930783337000402,0.8930783337000402,0.0,0,False
2022-05-14,0.8930783337000402,0.8930783337000402,0.0,0,False
2022-05-15,0.8930783337000402,0.8930783337000402,0.0,0,False
2022-05-16,0.8930783337000402,0.8930783337000402,0.0,0,False
2022-05-17,0.8930783337000402,0.8930783337000402,0.0,0,False
2022-05-18,0.8930783337000402,0.8930783337000402,0.0,0,False
2022-05-19,0.8930783337000402,0.8930783337000402,0.0,0,False
2022-05-20,0.8930783337000402,0.8930783337000402,0.0,0,False
2022-05-21,0.8930783337000402,0.8930783337000402,0.0,0,False
2022-05-22,0.8930783337000402,0.8930783337000402,0.0,0,False
2022-05-23,0.8930783337000402,0.8930783337000402,0.0,0,False
2022-05-24,0.8930783337000402,0.8930783337000402,0.0,0,False
2022-05-25,0.8930783337000402,0.8930783337000402,0.0,0,False
2022-05-26,0.8930783337000402,0.8930783337000402,0.0,0,False
2022-05-27,0.8930783337000402,0.8930783337000402,0.0,0,False
2022-05-28,0.8930783337000402,0.8930783337000402,0.0,0,False
2022-05-29,0.8930783337000402,0.8930783337000402,0.0,0,False
2022-05-30,0.8930783337000402,0.8930783337000402,0.0,0,False
2022-05-31,0.8930783337000402,0.8930783337000402,0.0,0,False
2022-06-01,0.8930783337000402,0.8930783337000402,0.0,0,False
2022-06-02,0.8930783337000402,0.8930783337000402,0.0,0,False
2022-06-03,0.8930783337000402,0.8930783337000402,0.0,0,False
2022-06-04,0.8930783337000402,0.8930783337000402,0.0,0,False
2022-06-05,0.8930783337000402,0.8930783337000402,0.0,0,False
2022-06-06,0.8930783337000402,0.8930783337000402,0.0,0,False
2022-06-07,0.8930783337000402,0.8930783337000402,0.0,0,False
2022-06-08,0.8930783337000402,0.8930783337000402,0.0,0,False
2022-06-09,0.8930783337000402,0.8930783337000402,0.0,0,False
2022-06-10,0.8930783337000402,0.8930783337000402,0.0,0,False
2022-06-11,0.8930783337000402,0.8930783337000402,0.0,0,False
2022-06-12,0.8930783337000402,0.8930783337000402,0.0,0,False
2022-06-13,0.8930783337000402,0.8930783337000402,0.0,0,False
2022-06-14,0.8930783337000402,0.8930783337000402,0.0,0,False
2022-06-15,0.8930783337000402,0.8930783337000402,0.0,0,False
2022-06-16,0.8930783337000402,0.8930783337000402,0.0,0,False
2022-06-17,0.8930783337000402,0.8930783337000402,0.0,0,False
2022-06-18,0.8930783337000402,0.8930783337000402,0.0,0,False
2022-06-19,0.8930783337000402,0.8930783337000402,0.0,0,False
2022-06-20,0.8930783337000402,0.8930783337000402,0.0,0,False
2022-06-21,0.8930783337000402,0.8930783337000402,0.0,0,False
2022-06-22,0.8930783337000402,0.8930783337000402,0.0,0,False
2022-06-23,0.8930783337000402,0.8930783337000402,0.0,0,False
2022-06-24,0.8930783337000402,0.8930783337000402,0.0,0,False
2022-06-25,0.8930783337000402,0.8930783337000402,0.0,0,False
2022-06-26,0.8930783337000402,0.8930783337000402,0.0,0,False
2022-06-27,0.8930783337000402,0.8930783337000402,0.0,0,False
2022-06-28,0.8930783337000402,0.8930783337000402,0.0,0,False
2022-06-29,0.8930783337000402,0.8930783337000402,0.0,0,False
2022-06-30,0.8930783337000402,0.8930783337000402,0.0,0,False
2022-07-01,0.8930783337000402,0.8930783337000402,0.0,0,False
2022-07-02,0.8930783337000402,0.8930783337000402,0.0,0,False
2022-07-03,0.8930783337000402,0.8930783337000402,0.0,0,False
2022-07-04,0.8930783337000402,0.8930783337000402,0.0,0,False
2022-07-05,0.8930783337000402,0.8930783337000402,0.0,0,False
2022-07-06,0.8930783337000402,0.8930783337000402,0.0,0,False
2022-07-07,0.8930783337000402,0.8930783337000402,0.0,0,False
2022-07-08,0.8930783337000402,0.8930783337000402,0.0,0,False
2022-07-09,0.8930783337000402,0.8930783337000402,0.0,0,False
2022-07-10,0.8930783337000402,0.8930783337000402,0.0,0,False
2022-07-11,0.8930783337000402,0.8930783337000402,0.0,0,False
2022-07-12,0.8930783337000402,0.8930783337000402,0.0,0,False
2022-07-13,0.8930783337000402,0.8930783337000402,0.0,0,False
2022-07-14,0.8930783337000402,0.8930783337000402,0.0,0,False
2022-07-15,0.8930783337000402,0.8930783337000402,0.0,0,False
2022-07-16,0.8930783337000402,0.8930783337000402,0.0,0,False
2022-07-17,0.8930783337000402,0.8930783337000402,0.0,0,False
2022-07-18,0.8930783337000402,0.8930783337000402,0.0,0,False
2022-07-19,0.8930783337000402,0.8930783337000402,0.0,0,False
2022-07-20,0.8930783337000402,0.8930783337000402,0.0,0,False
2022-07-21,0.8930783337000402,0.8930783337000402,0.0,0,False
2022-07-22,0.8930783337000402,0.8930783337000402,0.0,0,False
2022-07-23,0.8930783337000402,0.8930783337000402,0.0,0,False
2022-07-24,0.8930783337000402,0.8930783337000402,0.0,0,False
2022-07-25,0.8930783337000402,0.8930783337000402,0.0,0,False
2022-07-26,0.8930783337000402,0.8930783337000402,0.0,0,False
2022-07-27,0.8930783337000402,0.8930783337000402,0.0,0,False
2022-07-28,0.8930783337000402,0.8930783337000402,0.0,0,False
2022-07-29,0.8930783337000402,0.8930783337000402,0.0,0,False
2022-07-30,0.8930783337000402,0.8930783337000402,0.0,0,False
2022-07-31,0.8930783337000402,0.8930783337000402,0.0,0,False
2022-08-01,0.8930783337000402,0.8930783337000402,0.0,0,False
2022-08-02,0.8930783337000402,0.8930783337000402,0.0,0,False
2022-08-03,0.8930783337000402,0.8930783337000402,0.0,0,False
2022-08-04,0.8930783337000402,0.8930783337000402,0.0,0,False
2022-08-05,0.8930783337000402,0.8930783337000402,0.0,0,False
2022-08-06,0.8930783337000402,0.8930783337000402,0.0,0,False
2022-08-07,0.8930783337000402,0.8930783337000402,0.0,0,False
2022-08-08,0.8930783337000402,0.8930783337000402,0.0,0,False
2022-08-09,0.8930783337000402,0.8930783337000402,0.0,0,False
2022-08-10,0.8930783337000402,0.8930783337000402,0.0,0,False
2022-08-11,0.8930783337000402,0.8930783337000402,0.0,0,False
2022-08-12,0.8930783337000402,0.8930783337000402,0.0,0,False
2022-08-13,0.8930783337000402,0.8930783337000402,0.0,0,False
2022-08-14,0.8930783337000402,0.8930783337000402,0.0,0,False
2022-08-15,0.8930783337000402,0.8930783337000402,0.0,0,False
2022-08-16,0.8930783337000402,0.8930783337000402,0.0,0,False
2022-08-17,0.8930783337000402,0.8930783337000402,0.0,0,False
2022-08-18,0.8930783337000402,0.8930783337000402,0.0,0,False
2022-08-19,0.8930783337000402,0.8930783337000402,0.0,0,False
2022-08-20,0.8930783337000402,0.8930783337000402,0.0,0,False
2022-08-21,0.8930783337000402,0.8930783337000402,0.0,0,False
2022-08-22,0.8930783337000402,0.8930783337000402,0.0,0,False
2022-08-23,0.8930783337000402,0.8930783337000402,0.0,0,False
2022-08-24,0.8930783337000402,0.8930783337000402,0.0,0,False
2022-08-25,0.8930783337000402,0.8930783337000402,0.0,0,False
2022-08-26,0.8930783337000402,0.8930783337000402,0.0,0,False
2022-08-27,0.8930783337000402,0.8930783337000402,0.0,0,False
2022-08-28,0.8930783337000402,0.8930783337000402,0.0,0,False
2022-08-29,0.8930783337000402,0.8930783337000402,0.0,0,False
2022-08-30,0.8930783337000402,0.8930783337000402,0.0,0,False
2022-08-31,0.8930783337000402,0.8930783337000402,0.0,0,False
2022-09-01,0.8930783337000402,0.8930783337000402,0.0,0,False
2022-09-02,0.8930783337000402,0.8930783337000402,0.0,0,False
2022-09-03,0.8930783337000402,0.8930783337000402,0.0,0,False
2022-09-04,0.8930783337000402,0.8930783337000402,0.0,0,False
2022-09-05,0.8930783337000402,0.8930783337000402,0.0,0,False
2022-09-06,0.8930783337000402,0.8930783337000402,0.0,0,False
2022-09-07,0.8930783337000402,0.8930783337000402,0.0,0,False
2022-09-08,0.8930783337000402,0.8930783337000402,0.0,0,False
2022-09-09,0.8930783337000402,0.8930783337000402,0.0,0,False
2022-09-10,0.8930783337000402,0.8930783337000402,0.0,0,False
2022-09-11,0.8930783337000402,0.8930783337000402,0.0,0,False
2022-09-12,0.8930783337000402,0.8930783337000402,0.0,0,False
2022-09-13,0.8930783337000402,0.8930783337000402,0.0,0,False
2022-09-14,0.8930783337000402,0.8930783337000402,0.0,0,False
2022-09-15,0.8930783337000402,0.8930783337000402,0.0,0,False
2022-09-16,0.8930783337000402,0.8930783337000402,0.0,0,False
2022-09-17,0.8930783337000402,0.8930783337000402,0.0,0,False
2022-09-18,0.8930783337000402,0.8930783337000402,0.0,0,False
2022-09-19,0.8930783337000402,0.8930783337000402,0.0,0,False
2022-09-20,0.8930783337000402,0.8930783337000402,0.0,0,False
2022-09-21,0.8930783337000402,0.8930783337000402,0.0,0,False
2022-09-22,0.8930783337000402,0.8930783337000402,0.0,0,False
2022-09-23,0.8930783337000402,0.8930783337000402,0.0,0,False
2022-09-24,0.8930783337000402,0.8930783337000402,0.0,0,False
2022-09-25,0.8930783337000402,0.8930783337000402,0.0,0,False
2022-09-26,0.8930783337000402,0.8930783337000402,0.0,0,False
2022-09-27,0.8930783337000402,0.8930783337000402,0.0,0,False
2022-09-28,0.8930783337000402,0.8930783337000402,0.0,0,False
2022-09-29,0.8930783337000402,0.8930783337000402,0.0,0,False
2022-09-30,0.8930783337000402,0.8930783337000402,0.0,0,False
2022-10-01,0.8930783337000402,0.8930783337000402,0.0,0,False
2022-10-02,0.8930783337000402,0.8930783337000402,0.0,0,False
2022-10-03,0.8930783337000402,0.8930783337000402,0.0,0,False
2022-10-04,0.8930783337000402,0.8930783337000402,0.0,0,False
2022-10-05,0.8930783337000402,0.8930783337000402,0.0,0,False
2022-10-06,0.8930783337000402,0.8930783337000402,0.0,0,False
2022-10-07,0.8930783337000402,0.8930783337000402,0.0,0,False
2022-10-08,0.8930783337000402,0.8930783337000402,0.0,0,False
2022-10-09,0.8930783337000402,0.8930783337000402,0.0,0,False
2022-10-10,0.8930783337000402,0.8930783337000402,0.0,0,False
2022-10-11,0.8930783337000402,0.8930783337000402,0.0,0,False
2022-10-12,0.8930783337000402,0.8930783337000402,0.0,0,False
2022-10-13,0.8930783337000402,0.8930783337000402,0.0,0,False
2022-10-14,0.8930783337000402,0.8930783337000402,0.0,0,False
2022-10-15,0.8930783337000402,0.8930783337000402,0.0,0,False
2022-10-16,0.8930783337000402,0.8930783337000402,0.0,0,False
2022-10-17,0.8930783337000402,0.8930783337000402,0.0,0,False
2022-10-18,0.8930783337000402,0.8930783337000402,0.0,0,False
2022-10-19,0.8930783337000402,0.8930783337000402,0.0,0,False
2022-10-20,0.8930783337000402,0.8930783337000402,0.0,0,False
2022-10-21,0.8930783337000402,0.8930783337000402,0.0,0,False
2022-10-22,0.8930783337000402,0.8930783337000402,0.0,0,False
2022-10-23,0.8930783337000402,0.8930783337000402,0.0,0,False
2022-10-24,0.8930783337000402,0.8930783337000402,0.0,0,False
2022-10-25,0.8930783337000402,0.8930783337000402,0.0,0,False
2022-10-26,0.8930783337000402,0.8930783337000402,0.0,0,False
2022-10-27,0.8930783337000402,0.8930783337000402,0.0,0,False
2022-10-28,0.8930783337000402,0.8930783337000402,0.0,0,False
2022-10-29,0.8930783337000402,0.8930783337000402,0.0,0,False
2022-10-30,0.8930783337000402,0.8930783337000402,0.0,0,False
2022-10-31,0.8930783337000402,0.8930783337000402,0.0,0,False
2022-11-01,0.8930783337000402,0.8930783337000402,0.0,0,False
2022-11-02,0.8930783337000402,0.8930783337000402,0.0,0,False
2022-11-03,0.8930783337000402,0.8930783337000402,0.0,0,False
2022-11-04,0.8930783337000402,0.8930783337000402,0.0,0,False
2022-11-05,0.8930783337000402,0.8930783337000402,0.0,0,False
2022-11-06,0.8930783337000402,0.8930783337000402,0.0,0,False
2022-11-07,0.8930783337000402,0.8930783337000402,0.0,0,False
2022-11-08,0.8930783337000402,0.8930783337000402,0.0,0,False
2022-11-09,0.8930783337000402,0.8930783337000402,0.0,0,False
2022-11-10,0.8930783337000402,0.8930783337000402,0.0,0,False
2022-11-11,0.8930783337000402,0.8930783337000402,0.0,0,False
2022-11-12,0.8930783337000402,0.8930783337000402,0.0,0,False
2022-11-13,0.8930783337000402,0.8930783337000402,0.0,0,False
2022-11-14,0.8930783337000402,0.8930783337000402,0.0,0,False
2022-11-15,0.8930783337000402,0.8930783337000402,0.0,0,False
2022-11-16,0.8930783337000402,0.8930783337000402,0.0,0,False
2022-11-17,0.8930783337000402,0.8930783337000402,0.0,0,False
2022-11-18,0.8930783337000402,0.8930783337000402,0.0,0,False
2022-11-19,0.8930783337000402,0.8930783337000402,0.0,0,False
2022-11-20,0.8930783337000402,0.8930783337000402,0.0,0,False
2022-11-21,0.8930783337000402,0.8930783337000402,0.0,0,False
2022-11-22,0.8930783337000402,0.8930783337000402,0.0,0,False
2022-11-23,0.8930783337000402,0.8930783337000402,0.0,0,False
2022-11-24,0.8930783337000402,0.8930783337000402,0.0,0,False
2022-11-25,0.8930783337000402,0.8930783337000402,0.0,0,False
2022-11-26,0.8930783337000402,0.8930783337000402,0.0,0,False
2022-11-27,0.8930783337000402,0.8930783337000402,0.0,0,False
2022-11-28,0.8930783337000402,0.8930783337000402,0.0,0,False
2022-11-29,0.8930783337000402,0.8930783337000402,0.0,0,False
2022-11-30,0.8930783337000402,0.8930783337000402,0.0,0,False
2022-12-01,0.8930783337000402,0.8930783337000402,0.0,0,False
2022-12-02,0.8930783337000402,0.8930783337000402,0.0,0,False
2022-12-03,0.8930783337000402,0.8930783337000402,0.0,0,False
2022-12-04,0.8930783337000402,0.8930783337000402,0.0,0,False
2022-12-05,0.8930783337000402,0.8930783337000402,0.0,0,False
2022-12-06,0.8930783337000402,0.8930783337000402,0.0,0,False
2022-12-07,0.8930783337000402,0.8930783337000402,0.0,0,False
2022-12-08,0.8930783337000402,0.8930783337000402,0.0,0,False
2022-12-09,0.8930783337000402,0.8930783337000402,0.0,0,False
2022-12-10,0.8930783337000402,0.8930783337000402,0.0,0,False
2022-12-11,0.8930783337000402,0.8930783337000402,0.0,0,False
2022-12-12,0.8930783337000402,0.8930783337000402,0.0,0,False
2022-12-13,0.8930783337000402,0.8930783337000402,0.0,0,False
2022-12-14,0.8930783337000402,0.8930783337000402,0.0,0,False
2022-12-15,0.8930783337000402,0.8930783337000402,0.0,0,False
2022-12-16,0.8930783337000402,0.8930783337000402,0.0,0,False
2022-12-17,0.8930783337000402,0.8930783337000402,0.0,0,False
2022-12-18,0.8930783337000402,0.8930783337000402,0.0,0,False
2022-12-19,0.8930783337000402,0.8930783337000402,0.0,0,False
2022-12-20,0.8930783337000402,0.8930783337000402,0.0,0,False
2022-12-21,0.8930783337000402,0.8930783337000402,0.0,0,False
2022-12-22,0.8930783337000402,0.8930783337000402,0.0,0,False
2022-12-23,0.8930783337000402,0.8930783337000402,0.0,0,False
2022-12-24,0.8930783337000402,0.8930783337000402,0.0,0,False
2022-12-25,0.8930783337000402,0.8930783337000402,0.0,0,False
2022-12-26,0.8930783337000402,0.8930783337000402,0.0,0,False
2022-12-27,0.8930783337000402,0.8930783337000402,0.0,0,False
2022-12-28,0.8930783337000402,0.8930783337000402,0.0,0,False
2022-12-29,0.8930783337000402,0.8930783337000402,0.0,0,False
2022-12-30,0.8930783337000402,0.8930783337000402,0.0,0,False
2022-12-31,0.8930783337000402,0.8930783337000402,0.0,0,False
2023-01-01,0.8930783337000402,0.8930783337000402,0.0,0,False
2023-01-02,0.8930783337000402,0.8930783337000402,0.0,0,False
2023-01-03,0.8930783337000402,0.8930783337000402,0.0,0,False
2023-01-04,0.8930783337000402,0.8930783337000402,0.0,0,False
2023-01-05,0.8930783337000402,0.8930783337000402,0.0,0,False
2023-01-06,0.8930783337000402,0.8930783337000402,0.0,0,False
2023-01-07,0.8930783337000402,0.8930783337000402,0.0,0,False
2023-01-08,0.8930783337000402,0.8930783337000402,0.0,0,False
2023-01-09,0.8930783337000402,0.8930783337000402,0.0,0,False
2023-01-10,0.8930783337000402,0.8930783337000402,0.0,0,False
2023-01-11,0.8930783337000402,0.8930783337000402,0.0,0,False
2023-01-12,0.8930783337000402,0.8930783337000402,0.0,0,False
2023-01-13,0.8930783337000402,0.8930783337000402,0.0,0,False
2023-01-14,0.8930783337000402,0.8930783337000402,0.0,0,False
2023-01-15,0.8930783337000402,0.8930783337000402,0.0,0,False
2023-01-16,0.8930783337000402,0.8930783337000402,0.0,0,False
2023-01-17,0.8930783337000402,0.8930783337000402,0.0,0,False
2023-01-18,0.8930783337000402,0.8930783337000402,0.0,0,False
2023-01-19,0.8930783337000402,0.8930783337000402,0.0,0,False
2023-01-20,0.8930783337000402,0.8930783337000402,0.0,0,False
2023-01-21,0.8930783337000402,0.8930783337000402,0.0,0,False
2023-01-22,0.8930783337000402,0.8930783337000402,0.0,0,False
2023-01-23,0.8930783337000402,0.8930783337000402,0.0,0,False
2023-01-24,0.8930783337000402,0.8930783337000402,0.0,0,False
2023-01-25,0.8930783337000402,0.8930783337000402,0.0,0,False
2023-01-26,0.8930783337000402,0.8930783337000402,0.0,0,False
2023-01-27,0.8930783337000402,0.8930783337000402,0.0,0,False
2023-01-28,0.8930783337000402,0.8930783337000402,0.0,0,False
2023-01-29,0.8930783337000402,0.8930783337000402,0.0,0,False
2023-01-30,0.8930783337000402,0.8930783337000402,0.0,0,False
2023-01-31,0.8930783337000402,0.8930783337000402,0.0,0,False
2023-02-01,0.8930783337000402,0.8930783337000402,0.0,0,False
2023-02-02,0.8930783337000402,0.8930783337000402,0.0,0,False
2023-02-03,0.8930783337000402,0.8930783337000402,0.0,0,False
2023-02-04,0.8930783337000402,0.8930783337000402,0.0,0,False
2023-02-05,0.8930783337000402,0.8930783337000402,0.0,0,False
2023-02-06,0.8930783337000402,0.8930783337000402,0.0,0,False
2023-02-07,0.8930783337000402,0.8930783337000402,0.0,0,False
2023-02-08,0.8930783337000402,0.8930783337000402,0.0,0,False
2023-02-09,0.8930783337000402,0.8930783337000402,0.0,0,False
2023-02-10,0.8930783337000402,0.8930783337000402,0.0,0,False
2023-02-11,0.8930783337000402,0.8930783337000402,0.0,0,False
2023-02-12,0.8930783337000402,0.8930783337000402,0.0,0,False
2023-02-13,0.8930783337000402,0.8930783337000402,0.0,0,False
2023-02-14,0.8930783337000402,0.8930783337000402,0.0,0,False
2023-02-15,0.8930783337000402,0.8930783337000402,0.0,0,False
2023-02-16,0.8930783337000402,0.8930783337000402,0.0,0,False
2023-02-17,0.8930783337000402,0.8930783337000402,0.0,0,False
2023-02-18,0.8930783337000402,0.8930783337000402,0.0,0,False
2023-02-19,0.8930783337000402,0.8930783337000402,0.0,0,False
2023-02-20,0.8930783337000402,0.8930783337000402,0.0,0,False
2023-02-21,0.8930783337000402,0.8930783337000402,0.0,0,False
2023-02-22,0.8930783337000402,0.8930783337000402,0.0,0,False
2023-02-23,0.8930783337000402,0.8930783337000402,0.0,0,False
2023-02-24,0.8930783337000402,0.8930783337000402,0.0,0,False
2023-02-25,0.8930783337000402,0.8930783337000402,0.0,0,False
2023-02-26,0.8930783337000402,0.8930783337000402,0.0,0,False
2023-02-27,0.8930783337000402,0.8930783337000402,0.0,0,False
2023-02-28,0.8930783337000402,0.8930783337000402,0.0,0,False
2023-03-01,0.8930783337000402,0.8930783337000402,0.0,0,False
2023-03-02,0.8930783337000402,0.8930783337000402,0.0,0,False
2023-03-03,0.8930783337000402,0.8930783337000402,0.0,0,False
2023-03-04,0.8930783337000402,0.8930783337000402,0.0,0,False
2023-03-05,0.8930783337000402,0.8930783337000402,0.0,0,False
2023-03-06,0.8930783337000402,0.8930783337000402,0.0,0,False
2023-03-07,0.8930783337000402,0.8930783337000402,0.0,0,False
2023-03-08,0.8930783337000402,0.8930783337000402,0.0,0,False
2023-03-09,0.8930783337000402,0.8930783337000402,0.0,0,False
2023-03-10,0.8930783337000402,0.8930783337000402,0.0,0,False
2023-03-11,0.8930783337000402,0.8930783337000402,0.0,0,False
2023-03-12,0.8930783337000402,0.8930783337000402,0.0,0,False
2023-03-13,0.8930783337000402,0.8930783337000402,0.0,0,False
2023-03-14,0.8930783337000402,0.8930783337000402,0.0,0,False
2023-03-15,0.8930783337000402,0.8930783337000402,0.0,0,False
2023-03-16,0.8930783337000402,0.8930783337000402,0.0,0,False
2023-03-17,0.8930783337000402,0.8930783337000402,0.0,0,False
2023-03-18,0.8930783337000402,0.8930783337000402,0.0,0,False
2023-03-19,0.8930783337000402,0.8930783337000402,0.0,0,False
2023-03-20,0.8930783337000402,0.8930783337000402,0.0,0,False
2023-03-21,0.8930783337000402,0.8930783337000402,0.0,0,False
2023-03-22,0.8930783337000402,0.8930783337000402,0.0,0,False
2023-03-23,0.8930783337000402,0.8930783337000402,0.0,0,False
2023-03-24,0.8930783337000402,0.8930783337000402,0.0,0,False
2023-03-25,0.8930783337000402,0.8930783337000402,0.0,0,False
2023-03-26,0.8930783337000402,0.8930783337000402,0.0,0,False
2023-03-27,0.8930783337000402,0.8930783337000402,0.0,0,False
2023-03-28,0.8930783337000402,0.8930783337000402,0.0,0,False
2023-03-29,0.8930783337000402,0.8930783337000402,0.0,0,False
2023-03-30,0.8930783337000402,0.8930783337000402,0.0,0,False
2023-03-31,0.8930783337000402,0.8930783337000402,0.0,0,False
2023-04-01,0.8930783337000402,0.8930783337000402,0.0,0,False
2023-04-02,0.8930783337000402,0.8930783337000402,0.0,0,False
2023-04-03,0.8930783337000402,0.8930783337000402,0.0,0,False
2023-04-04,0.8930783337000402,0.8930783337000402,0.0,0,False
2023-04-05,0.8930783337000402,0.8930783337000402,0.0,0,False
2023-04-06,0.8930783337000402,0.8930783337000402,0.0,0,False
2023-04-07,0.8930783337000402,0.8930783337000402,0.0,0,False
2023-04-08,0.8930783337000402,0.8930783337000402,0.0,0,False
2023-04-09,0.8930783337000402,0.8930783337000402,0.0,0,False
2023-04-10,0.8930783337000402,0.8930783337000402,0.0,0,False
2023-04-11,0.8930783337000402,0.8930783337000402,0.0,0,False
2023-04-12,0.8930783337000402,0.8930783337000402,0.0,0,False
2023-04-13,0.8930783337000402,0.8930783337000402,0.0,0,False
2023-04-14,0.8930783337000402,0.8930783337000402,0.0,0,False
2023-04-15,0.8930783337000402,0.8930783337000402,0.0,0,False
2023-04-16,0.8930783337000402,0.8930783337000402,0.0,0,False
2023-04-17,0.8930783337000402,0.8930783337000402,0.0,0,False
2023-04-18,0.8930783337000402,0.8930783337000402,0.0,0,False
2023-04-19,0.8930783337000402,0.8930783337000402,0.0,0,False
2023-04-20,0.8930783337000402,0.8930783337000402,0.0,0,False
2023-04-21,0.8930783337000402,0.8930783337000402,0.0,0,False
2023-04-22,0.8930783337000402,0.8930783337000402,0.0,0,False
2023-04-23,0.8930783337000402,0.8930783337000402,0.0,0,False
2023-04-24,0.8930783337000402,0.8930783337000402,0.0,0,False
2023-04-25,0.8930783337000402,0.8930783337000402,0.0,0,False
2023-04-26,0.8930783337000402,0.8930783337000402,0.0,0,False
2023-04-27,0.8930783337000402,0.8930783337000402,0.0,0,False
2023-04-28,0.8930783337000402,0.8930783337000402,0.0,0,False
2023-04-29,0.8930783337000402,0.8930783337000402,0.0,0,False
2023-04-30,0.8930783337000402,0.8930783337000402,0.0,0,False
2023-05-01,0.8930783337000402,0.8930783337000402,0.0,0,False
2023-05-02,0.8930783337000402,0.8930783337000402,0.0,0,False
2023-05-03,0.8930783337000402,0.8930783337000402,0.0,0,False
2023-05-04,0.8930783337000402,0.8930783337000402,0.0,0,False
2023-05-05,0.8930783337000402,0.8930783337000402,0.0,0,False
2023-05-06,0.8930783337000402,0.8930783337000402,0.0,0,False
2023-05-07,0.8930783337000402,0.8930783337000402,0.0,0,False
2023-05-08,0.8930783337000402,0.8930783337000402,0.0,0,False
2023-05-09,0.8930783337000402,0.8930783337000402,0.0,0,False
2023-05-10,0.8930783337000402,0.8930783337000402,0.0,0,False
2023-05-11,0.8930783337000402,0.8930783337000402,0.0,0,False
2023-05-12,0.8930783337000402,0.8930783337000402,0.0,0,False
2023-05-13,0.8930783337000402,0.8930783337000402,0.0,0,False
2023-05-14,0.8930783337000402,0.8930783337000402,0.0,0,False
2023-05-15,0.8930783337000402,0.8930783337000402,0.0,0,False
2023-05-16,0.8930783337000402,0.8930783337000402,0.0,0,False
2023-05-17,0.8930783337000402,0.8930783337000402,0.0,0,False
2023-05-18,0.8930783337000402,0.8930783337000402,0.0,0,False
2023-05-19,0.8930783337000402,0.8930783337000402,0.0,0,False
2023-05-20,0.8930783337000402,0.8930783337000402,0.0,0,False
2023-05-21,0.8930783337000402,0.8930783337000402,0.0,0,False
2023-05-22,0.8930783337000402,0.8930783337000402,0.0,0,False
2023-05-23,0.8930783337000402,0.8930783337000402,0.0,0,False
2023-05-24,0.8930783337000402,0.8930783337000402,0.0,0,False
2023-05-25,0.8930783337000402,0.8930783337000402,0.0,0,False
2023-05-26,0.8930783337000402,0.8930783337000402,0.0,0,False
2023-05-27,0.8930783337000402,0.8930783337000402,0.0,0,False
2023-05-28,0.8930783337000402,0.8930783337000402,0.0,0,False
2023-05-29,0.8930783337000402,0.8930783337000402,0.0,0,False
2023-05-30,0.8930783337000402,0.8930783337000402,0.0,0,False
2023-05-31,0.8930783337000402,0.8930783337000402,0.0,0,False
2023-06-01,0.8930783337000402,0.8930783337000402,0.0,0,False
2023-06-02,0.8930783337000402,0.8930783337000402,0.0,0,False
2023-06-03,0.8930783337000402,0.8930783337000402,0.0,0,False
2023-06-04,0.8930783337000402,0.8930783337000402,0.0,0,False
2023-06-05,0.8930783337000402,0.8930783337000402,0.0,0,False
2023-06-06,0.8930783337000402,0.8930783337000402,0.0,0,False
2023-06-07,0.8930783337000402,0.8930783337000402,0.0,0,False
2023-06-08,0.8930783337000402,0.8930783337000402,0.0,0,False
2023-06-09,0.8930783337000402,0.8930783337000402,0.0,0,False
2023-06-10,0.8930783337000402,0.8930783337000402,0.0,0,False
2023-06-11,0.8930783337000402,0.8930783337000402,0.0,0,False
2023-06-12,0.8930783337000402,0.8930783337000402,0.0,0,False
2023-06-13,0.8930783337000402,0.8930783337000402,0.0,0,False
2023-06-14,0.8930783337000402,0.8930783337000402,0.0,0,False
2023-06-15,0.8930783337000402,0.8930783337000402,0.0,0,False
2023-06-16,0.8930783337000402,0.8930783337000402,0.0,0,False
2023-06-17,0.8930783337000402,0.8930783337000402,0.0,0,False
2023-06-18,0.8930783337000402,0.8930783337000402,0.0,0,False
2023-06-19,0.8930783337000402,0.8930783337000402,0.0,0,False
2023-06-20,0.8930783337000402,0.8930783337000402,0.0,0,False
2023-06-21,0.8930783337000402,0.8930783337000402,0.0,0,False
2023-06-22,0.8930783337000402,0.8930783337000402,0.0,0,False
2023-06-23,0.8930783337000402,0.8930783337000402,0.0,0,False
2023-06-24,0.8930783337000402,0.8930783337000402,0.0,0,False
2023-06-25,0.8930783337000402,0.8930783337000402,0.0,0,False
2023-06-26,0.8930783337000402,0.8930783337000402,0.0,0,False
2023-06-27,0.8930783337000402,0.8930783337000402,0.0,0,False
2023-06-28,0.8930783337000402,0.8930783337000402,0.0,0,False
2023-06-29,0.8930783337000402,0.8930783337000402,0.0,0,False
2023-06-30,0.8930783337000402,0.8930783337000402,0.0,0,False
2023-07-01,0.8930783337000402,0.8930783337000402,0.0,0,False
2023-07-02,0.8930783337000402,0.8930783337000402,0.0,0,False
2023-07-03,0.8930783337000402,0.8930783337000402,0.0,0,False
2023-07-04,0.8930783337000402,0.8930783337000402,0.0,0,False
2023-07-05,0.8930783337000402,0.8930783337000402,0.0,0,False
2023-07-06,0.8930783337000402,0.8930783337000402,0.0,0,False
2023-07-07,0.8930783337000402,0.8930783337000402,0.0,0,False
2023-07-08,0.8930783337000402,0.8930783337000402,0.0,0,False
2023-07-09,0.8930783337000402,0.8930783337000402,0.0,0,False
2023-07-10,0.8930783337000402,0.8930783337000402,0.0,0,False
2023-07-11,0.8930783337000402,0.8930783337000402,0.0,0,False
2023-07-12,0.8930783337000402,0.8930783337000402,0.0,0,False
2023-07-13,0.8930783337000402,0.8930783337000402,0.0,0,False
2023-07-14,0.8930783337000402,0.8930783337000402,0.0,0,False
2023-07-15,0.8930783337000402,0.8930783337000402,0.0,0,False
2023-07-16,0.8930783337000402,0.8930783337000402,0.0,0,False
2023-07-17,0.8930783337000402,0.8930783337000402,0.0,0,False
2023-07-18,0.8930783337000402,0.8930783337000402,0.0,0,False
2023-07-19,0.8930783337000402,0.8930783337000402,0.0,0,False
2023-07-20,0.8930783337000402,0.8930783337000402,0.0,0,False
2023-07-21,0.8930783337000402,0.8930783337000402,0.0,0,False
2023-07-22,0.8930783337000402,0.8930783337000402,0.0,0,False
2023-07-23,0.8930783337000402,0.8930783337000402,0.0,0,False
2023-07-24,0.8930783337000402,0.8930783337000402,0.0,0,False
2023-07-25,0.8930783337000402,0.8930783337000402,0.0,0,False
2023-07-26,0.8930783337000402,0.8930783337000402,0.0,0,False
2023-07-27,0.8930783337000402,0.8930783337000402,0.0,0,False
2023-07-28,0.8930783337000402,0.8930783337000402,0.0,0,False
2023-07-29,0.8930783337000402,0.8930783337000402,0.0,0,False
2023-07-30,0.8930783337000402,0.8930783337000402,0.0,0,False
2023-07-31,0.8930783337000402,0.8930783337000402,0.0,0,False
2023-08-01,0.8930783337000402,0.8930783337000402,0.0,0,False
2023-08-02,0.8930783337000402,0.8930783337000402,0.0,0,False
2023-08-03,0.8930783337000402,0.8930783337000402,0.0,0,False
2023-08-04,0.8930783337000402,0.8930783337000402,0.0,0,False
2023-08-05,0.8930783337000402,0.8930783337000402,0.0,0,False
2023-08-06,0.8930783337000402,0.8930783337000402,0.0,0,False
2023-08-07,0.8930783337000402,0.8930783337000402,0.0,0,False
2023-08-08,0.8930783337000402,0.8930783337000402,0.0,0,False
2023-08-09,0.8930783337000402,0.8930783337000402,0.0,0,False
2023-08-10,0.8930783337000402,0.8930783337000402,0.0,0,False
2023-08-11,0.8930783337000402,0.8930783337000402,0.0,0,False
2023-08-12,0.8930783337000402,0.8930783337000402,0.0,0,False
2023-08-13,0.8930783337000402,0.8930783337000402,0.0,0,False
2023-08-14,0.8930783337000402,0.8930783337000402,0.0,0,False
2023-08-15,0.8930783337000402,0.8930783337000402,0.0,0,False
2023-08-16,0.8930783337000402,0.8930783337000402,0.0,0,False
2023-08-17,0.8930783337000402,0.8930783337000402,0.0,0,False
2023-08-18,0.8930783337000402,0.8930783337000402,0.0,0,False
2023-08-19,0.8930783337000402,0.8930783337000402,0.0,0,False
2023-08-20,0.8930783337000402,0.8930783337000402,0.0,0,False
2023-08-21,0.8930783337000402,0.8930783337000402,0.0,0,False
2023-08-22,0.8930783337000402,0.8930783337000402,0.0,0,False
2023-08-23,0.8930783337000402,0.8930783337000402,0.0,0,False
2023-08-24,0.8930783337000402,0.8930783337000402,0.0,0,False
2023-08-25,0.8930783337000402,0.8930783337000402,0.0,0,False
2023-08-26,0.8930783337000402,0.8930783337000402,0.0,0,False
2023-08-27,0.8930783337000402,0.8930783337000402,0.0,0,False
2023-08-28,0.8930783337000402,0.8930783337000402,0.0,0,False
2023-08-29,0.8930783337000402,0.8930783337000402,0.0,0,False
2023-08-30,0.8930783337000402,0.8930783337000402,0.0,0,False
2023-08-31,0.8930783337000402,0.8930783337000402,0.0,0,False
2023-09-01,0.8930783337000402,0.8930783337000402,0.0,0,False
2023-09-02,0.8930783337000402,0.8930783337000402,0.0,0,False
2023-09-03,0.8930783337000402,0.8930783337000402,0.0,0,False
2023-09-04,0.8930783337000402,0.8930783337000402,0.0,0,False
2023-09-05,0.8930783337000402,0.8930783337000402,0.0,0,False
2023-09-06,0.8930783337000402,0.8930783337000402,0.0,0,False
2023-09-07,0.8930783337000402,0.8930783337000402,0.0,0,False
2023-09-08,0.8930783337000402,0.8930783337000402,0.0,0,False
2023-09-09,0.8930783337000402,0.8930783337000402,0.0,0,False
2023-09-10,0.8930783337000402,0.8930783337000402,0.0,0,False
2023-09-11,0.8930783337000402,0.8930783337000402,0.0,0,False
2023-09-12,0.8930783337000402,0.8930783337000402,0.0,0,False
2023-09-13,0.8930783337000402,0.8930783337000402,0.0,0,False
2023-09-14,0.8930783337000402,0.8930783337000402,0.0,0,False
2023-09-15,0.8930783337000402,0.8930783337000402,0.0,0,False
2023-09-16,0.8930783337000402,0.8930783337000402,0.0,0,False
2023-09-17,0.8930783337000402,0.8930783337000402,0.0,0,False
2023-09-18,0.8930783337000402,0.8930783337000402,0.0,0,False
2023-09-19,0.8930783337000402,0.8930783337000402,0.0,0,False
2023-09-20,0.8930783337000402,0.8930783337000402,0.0,0,False
2023-09-21,0.8930783337000402,0.8930783337000402,0.0,0,False
2023-09-22,0.8930783337000402,0.8930783337000402,0.0,0,False
2023-09-23,0.8930783337000402,0.8930783337000402,0.0,0,False
2023-09-24,0.8930783337000402,0.8930783337000402,0.0,0,False
2023-09-25,0.8930783337000402,0.8930783337000402,0.0,0,False
2023-09-26,0.8930783337000402,0.8930783337000402,0.0,0,False
2023-09-27,0.8930783337000402,0.8930783337000402,0.0,0,False
2023-09-28,0.8930783337000402,0.8930783337000402,0.0,0,False
2023-09-29,0.8930783337000402,0.8930783337000402,0.0,0,False
2023-09-30,0.8930783337000402,0.8930783337000402,0.0,0,False
2023-10-01,0.8930783337000402,0.8930783337000402,0.0,0,False
2023-10-02,0.8930783337000402,0.8930783337000402,0.0,0,False
2023-10-03,0.8930783337000402,0.8930783337000402,0.0,0,False
2023-10-04,0.8930783337000402,0.8930783337000402,0.0,0,False
2023-10-05,0.8930783337000402,0.8930783337000402,0.0,0,False
2023-10-06,0.8930783337000402,0.8930783337000402,0.0,0,False
2023-10-07,0.8930783337000402,0.8930783337000402,0.0,0,False
2023-10-08,0.8930783337000402,0.8930783337000402,0.0,0,False
2023-10-09,0.8930783337000402,0.8930783337000402,0.0,0,False
2023-10-10,0.8930783337000402,0.8930783337000402,0.0,0,False
2023-10-11,0.8930783337000402,0.8930783337000402,0.0,0,False
2023-10-12,0.8930783337000402,0.8930783337000402,0.0,0,False
2023-10-13,0.8930783337000402,0.8930783337000402,0.0,0,False
2023-10-14,0.8930783337000402,0.8930783337000402,0.0,0,False
2023-10-15,0.8930783337000402,0.8930783337000402,0.0,0,False
2023-10-16,0.8930783337000402,0.8930783337000402,0.0,0,False
2023-10-17,0.8930783337000402,0.8930783337000402,0.0,0,False
2023-10-18,0.8930783337000402,0.8930783337000402,0.0,0,False
2023-10-19,0.8930783337000402,0.8930783337000402,0.0,0,False
2023-10-20,0.8930783337000402,0.8930783337000402,0.0,0,False
2023-10-21,0.8930783337000402,0.8930783337000402,0.0,0,False
2023-10-22,0.8930783337000402,0.8930783337000402,0.0,0,False
2023-10-23,0.8930783337000402,0.8930783337000402,0.0,0,False
2023-10-24,0.8930783337000402,0.8930783337000402,0.0,0,False
2023-10-25,0.8930783337000402,0.8930783337000402,0.0,0,False
2023-10-26,0.8930783337000402,0.8930783337000402,0.0,0,False
2023-10-27,0.8930783337000402,0.8930783337000402,0.0,0,False
2023-10-28,0.8930783337000402,0.8930783337000402,0.0,0,False
2023-10-29,0.8930783337000402,0.8930783337000402,0.0,0,False
2023-10-30,0.8930783337000402,0.8930783337000402,0.0,0,False
2023-10-31,0.8930783337000402,0.8930783337000402,0.0,0,False
2023-11-01,0.8930783337000402,0.8930783337000402,0.0,0,False
2023-11-02,0.8930783337000402,0.8930783337000402,0.0,0,False
2023-11-03,0.8930783337000402,0.8930783337000402,0.0,0,False
2023-11-04,0.8930783337000402,0.8930783337000402,0.0,0,False
2023-11-05,0.8930783337000402,0.8930783337000402,0.0,0,False
2023-11-06,0.8930783337000402,0.8930783337000402,0.0,0,False
2023-11-07,0.8930783337000402,0.8930783337000402,0.0,0,False
2023-11-08,0.8930783337000402,0.8930783337000402,0.0,0,False
2023-11-09,0.8930783337000402,0.8930783337000402,0.0,0,False
2023-11-10,0.8930783337000402,0.8930783337000402,0.0,0,False
2023-11-11,0.8930783337000402,0.8930783337000402,0.0,0,False
2023-11-12,0.8930783337000402,0.8930783337000402,0.0,0,False
2023-11-13,0.8930783337000402,0.8930783337000402,0.0,0,False
2023-11-14,0.8930783337000402,0.8930783337000402,0.0,0,False
2023-11-15,0.8930783337000402,0.8930783337000402,0.0,0,False
2023-11-16,0.8930783337000402,0.8930783337000402,0.0,0,False
2023-11-17,0.8930783337000402,0.8930783337000402,0.0,0,False
2023-11-18,0.8930783337000402,0.8930783337000402,0.0,0,False
2023-11-19,0.8930783337000402,0.8930783337000402,0.0,0,False
2023-11-20,0.8930783337000402,0.8930783337000402,0.0,0,False
2023-11-21,0.8930783337000402,0.8930783337000402,0.0,0,False
2023-11-22,0.8930783337000402,0.8930783337000402,0.0,0,False
2023-11-23,0.8930783337000402,0.8930783337000402,0.0,0,False
2023-11-24,0.8930783337000402,0.8930783337000402,0.0,0,False
2023-11-25,0.8930783337000402,0.8930783337000402,0.0,0,False
2023-11-26,0.8930783337000402,0.8930783337000402,0.0,0,False
2023-11-27,0.8930783337000402,0.8930783337000402,0.0,0,False
2023-11-28,0.8930783337000402,0.8930783337000402,0.0,0,False
2023-11-29,0.8930783337000402,0.8930783337000402,0.0,0,False
2023-11-30,0.8930783337000402,0.8930783337000402,0.0,0,False
2023-12-01,0.8930783337000402,0.8930783337000402,0.0,0,False
2023-12-02,0.8930783337000402,0.8930783337000402,0.0,0,False
2023-12-03,0.8930783337000402,0.8930783337000402,0.0,0,False
2023-12-04,0.8930783337000402,0.8930783337000402,0.0,0,False
2023-12-05,0.8930783337000402,0.8930783337000402,0.0,0,False
2023-12-06,0.8930783337000402,0.8930783337000402,0.0,0,False
2023-12-07,0.8930783337000402,0.8930783337000402,0.0,0,False
2023-12-08,0.8930783337000402,0.8930783337000402,0.0,0,False
2023-12-09,0.8930783337000402,0.8930783337000402,0.0,0,False
2023-12-10,0.8930783337000402,0.8930783337000402,0.0,0,False
2023-12-11,0.8930783337000402,0.8930783337000402,0.0,0,False
2023-12-12,0.8930783337000402,0.8930783337000402,0.0,0,False
2023-12-13,0.8930783337000402,0.8930783337000402,0.0,0,False
2023-12-14,0.8930783337000402,0.8930783337000402,0.0,0,False
2023-12-15,0.8930783337000402,0.8930783337000402,0.0,0,False
2023-12-16,0.8930783337000402,0.8930783337000402,0.0,0,False
2023-12-17,0.8930783337000402,0.8930783337000402,0.0,0,False
2023-12-18,0.8930783337000402,0.8930783337000402,0.0,0,False
2023-12-19,0.8930783337000402,0.8930783337000402,0.0,0,False
2023-12-20,0.8930783337000402,0.8930783337000402,0.0,0,False
2023-12-21,0.8930783337000402,0.8930783337000402,0.0,0,False
2023-12-22,0.8930783337000402,0.8930783337000402,0.0,0,False
2023-12-23,0.8930783337000402,0.8930783337000402,0.0,0,False
2023-12-24,0.8930783337000402,0.8930783337000402,0.0,0,False
2023-12-25,0.8930783337000402,0.8930783337000402,0.0,0,False
2023-12-26,0.8930783337000402,0.8930783337000402,0.0,0,False
2023-12-27,0.8930783337000402,0.8930783337000402,0.0,0,False
2023-12-28,0.8930783337000402,0.8930783337000402,0.0,0,False
2023-12-29,0.8930783337000402,0.8930783337000402,0.0,0,False
2023-12-30,0.8930783337000402,0.8930783337000402,0.0,0,False
2023-12-31,0.8930783337000402,0.8930783337000402,0.0,0,False
