day,start_equity,end_equity,return_pct,entries,active
2024-01-02,1.00371343555889,0.9922079032340996,-1.1462965341680231,1,True
2024-01-03,0.9922079032340996,0.9875004780424611,-0.4744393968536875,11,True
2024-01-04,0.9875004780424611,1.0219877608570018,3.492381379187326,3,True
2024-01-05,1.0219877608570018,1.0130490127277114,-0.8746433638104123,8,True
2024-01-06,1.0130490127277114,1.0074470983366566,-0.5529756527743124,7,True
2024-01-07,1.0074470983366566,1.0129191430182556,0.5431595059069316,8,True
2024-01-08,1.0129191430182556,0.986057465677628,-2.651907363561745,12,True
2024-01-09,0.986057465677628,0.9843535120782834,-0.1728046953301643,5,True
2024-01-10,0.9843535120782834,0.9683099984681999,-1.629852833684775,7,True
2024-01-11,0.9683099984681999,0.9899928132467904,2.2392430949686792,6,True
2024-01-12,0.9899928132467904,0.9783124889060484,-1.1798393063516488,6,True
2024-01-13,0.9783124889060484,0.9802263723293994,0.19563109385336563,8,True
2024-01-14,0.9802263723293994,0.9796663959724079,-0.05712724864367358,1,True
2024-01-15,0.9796663959724079,0.9914337773034738,1.201162087364005,5,True
2024-01-16,0.9914337773034738,0.9890755585259356,-0.23785943464142978,1,True
2024-01-17,0.9890755585259356,0.9971940792201165,0.8208190591910025,0,True
2024-01-18,0.9971940792201165,0.9960374744878981,-0.11598592052641798,1,True
2024-01-19,0.9960374744878981,0.9872672457468372,-0.8805119250729021,1,True
2024-01-20,0.9872672457468372,1.028699944756058,4.196705520993782,11,True
2024-01-21,1.028699944756058,1.0257564447352838,-0.2861378612664667,3,True
2024-01-22,1.0257564447352838,0.9993110520658413,-2.5781356583401527,4,True
2024-01-23,0.9993110520658413,0.9717756851620599,-2.7554350416577944,11,True
2024-01-24,0.9717756851620599,0.971187772939732,-0.06049875823245232,1,True
2024-01-25,0.971187772939732,0.9613919716575726,-1.0086413312750064,3,True
2024-01-26,0.9613919716575726,0.9567355199300437,-0.4843447693348768,0,True
2024-01-27,0.9567355199300437,0.9567355199300437,0.0,0,False
2024-01-28,0.9567355199300437,0.9539580642122346,-0.29030548777077003,1,True
2024-01-29,0.9539580642122346,0.9519594446249852,-0.20950811804288927,0,True
2024-01-30,0.9519594446249852,0.9519594446249852,0.0,0,False
2024-01-31,0.9519594446249852,0.9472177966134647,-0.4980934889918909,1,True
2024-02-01,0.9472177966134647,0.9472177966134647,0.0,0,False
2024-02-02,0.9472177966134647,0.9468076820369291,-0.043296755825517064,3,True
2024-02-03,0.9468076820369291,0.9482004853670274,0.14710519955878354,1,True
2024-02-04,0.9482004853670274,0.9441850568848077,-0.42347884695138616,1,True
2024-02-05,0.9441850568848077,0.9441850568848077,0.0,0,False
2024-02-06,0.9441850568848077,0.9371103371922055,-0.7492937577241676,2,True
2024-02-07,0.9371103371922055,0.9301885628756885,-0.7386295980104318,5,True
2024-02-08,0.9301885628756885,0.954978771042252,2.665073422309594,1,True
2024-02-09,0.954978771042252,0.954978771042252,0.0,0,False
2024-02-10,0.954978771042252,0.9489061528061958,-0.6358903904668645,2,True
2024-02-11,0.9489061528061958,0.9461713121819398,-0.2882098104399766,0,True
2024-02-12,0.9461713121819398,0.9533326686557697,0.7568773626538405,3,True
2024-02-13,0.9533326686557697,0.9534376035281988,0.01100716212496522,0,True
2024-02-14,0.9534376035281988,0.9560049323421942,0.26927077393370524,2,True
2024-02-15,0.9560049323421942,0.9729856559549033,1.7762171551883865,7,True
2024-02-16,0.9729856559549033,0.9803514142022604,0.7570263962553669,7,True
2024-02-17,0.9803514142022604,0.9673122376526192,-1.3300512816877497,6,True
2024-02-18,0.9673122376526192,0.9669280980839686,-0.039712055083973574,4,True
2024-02-19,0.9669280980839686,0.9574797313186374,-0.9771529841829829,6,True
2024-02-20,0.9574797313186374,0.9389101235852598,-1.9394256740874916,12,True
2024-02-21,0.9389101235852598,0.9265360488651373,-1.3179189796006963,9,True
2024-02-22,0.9265360488651373,0.9643574973016174,4.082026649994397,5,True
2024-02-23,0.9643574973016174,0.9492442827904275,-1.5671796562455653,7,True
2024-02-24,0.9492442827904275,0.9613523202681947,1.2755449463623947,9,True
2024-02-25,0.9613523202681947,0.9576576405915254,-0.3843210859093449,7,True
2024-02-26,0.9576576405915254,0.9678799916578078,1.0674327267903738,7,True
2024-02-27,0.9678799916578078,0.9523314276661078,-1.6064557719669414,7,True
2024-02-28,0.9523314276661078,0.9480290973133132,-0.45176817941821046,7,True
2024-02-29,0.9480290973133132,0.9388027143292073,-0.9732172789056026,16,True
2024-03-01,0.9388027143292073,0.9585258235752313,2.1008790180284675,9,True
2024-03-02,0.9585258235752313,0.9545573879034995,-0.4140144766188736,9,True
2024-03-03,0.9545573879034995,0.9833973306068662,3.0212895598354716,12,True
2024-03-04,0.9833973306068662,0.9937358219652855,1.0513035816397176,4,True
2024-03-05,0.9937358219652855,1.024034042957117,3.048921083665035,16,True
2024-03-06,1.024034042957117,0.9957186537185743,-2.7650828049403553,18,True
2024-03-07,0.9957186537185743,0.9901182027242478,-0.5624531561612578,6,True
2024-03-08,0.9901182027242478,0.9923868417030735,0.2291280952702035,6,True
2024-03-09,0.9923868417030735,1.0070815738521501,1.4807463714309632,7,True
2024-03-10,1.0070815738521501,0.9879503302696493,-1.899671692862237,9,True
2024-03-11,0.9879503302696493,0.9962049250105691,0.8355273021333876,10,True
2024-03-12,0.9962049250105691,1.0154112278610279,1.9279469884426748,8,True
2024-03-13,1.0154112278610279,1.026144444775576,1.0570315375729944,9,True
2024-03-14,1.026144444775576,1.0324047648672703,0.610081760279213,6,True
2024-03-15,1.0324047648672703,1.000082064058309,-3.130816701830774,16,True
2024-03-16,1.000082064058309,1.0034676213725013,0.3385279504417582,4,True
2024-03-17,1.0034676213725013,0.9760209970572407,-2.7351778702854768,9,True
2024-03-18,0.9760209970572407,1.0105552253434127,3.5382669420324753,5,True
2024-03-19,1.0105552253434127,0.9756035675518386,-3.4586588555510778,18,True
2024-03-20,0.9756035675518386,0.9509550346549,-2.526490648121671,7,True
2024-03-21,0.9509550346549,0.9691222709664545,1.9104201197217785,5,True
2024-03-22,0.9691222709664545,0.9705261494699728,0.1448608236108706,10,True
2024-03-23,0.9705261494699728,0.9904078835269674,2.048552124829661,6,True
2024-03-24,0.9904078835269674,0.9839120601817957,-0.6558735500003632,6,True
2024-03-25,0.9839120601817957,1.0193992719108493,3.6067462901610003,4,True
2024-03-26,1.0193992719108493,1.0464399440319636,2.65260853781335,9,True
2024-03-27,1.0464399440319636,1.0392484148547099,-0.6872376401788061,10,True
2024-03-28,1.0392484148547099,1.024137323674671,-1.454040339542062,5,True
2024-03-29,1.024137323674671,0.9990615851294605,-2.448474239298004,7,True
2024-03-30,0.9990615851294605,0.9909091161397153,-0.8160126573867554,3,True
2024-03-31,0.9909091161397153,0.9873645534037729,-0.35770815690453484,1,True
2024-04-01,0.9873645534037729,0.9803451195717006,-0.7109262539225281,6,True
2024-04-02,0.9803451195717006,0.9537661949022632,-2.7111803933954737,9,True
2024-04-03,0.9537661949022632,0.9388493518747296,-1.56399368181237,5,True
2024-04-04,0.9388493518747296,0.9349473066820884,-0.41561994848795525,3,True
2024-04-05,0.9349473066820884,0.9066599967441171,-3.0255512514770877,5,True
2024-04-06,0.9066599967441171,0.8929647396795901,-1.5105174060516258,3,True
2024-04-07,0.8929647396795901,0.9101006314816148,1.9189886274987078,4,True
2024-04-08,0.9101006314816148,0.9010493515702497,-0.9945361642733852,2,True
2024-04-09,0.9010493515702497,0.8914882055312726,-1.061112359973948,3,True
2024-04-10,0.8914882055312726,0.8826218214698744,-0.9945598838421388,6,True
2024-04-11,0.8826218214698744,0.8867616234324238,0.46903462636525006,1,True
2024-04-12,0.8867616234324238,0.8888940974616065,0.24047883589373154,9,True
2024-04-13,0.8888940974616065,0.873075345788997,-1.779599135350629,11,True
2024-04-14,0.873075345788997,0.8483615977604707,-2.830654667747212,15,True
2024-04-15,0.8483615977604707,0.8710490851811127,2.6742709100144424,3,True
2024-04-16,0.8710490851811127,0.8620614294828493,-1.0318196587503103,1,True
2024-04-17,0.8620614294828493,0.8634449314186554,0.1604876275042466,2,True
2024-04-18,0.8634449314186554,0.8713187022093648,0.9119019064449896,1,True
2024-04-19,0.8713187022093648,0.8794557328838284,0.9338753608560069,10,True
2024-04-20,0.8794557328838284,0.8794557328838284,0.0,0,False
2024-04-21,0.8794557328838284,0.8794557328838284,0.0,0,False
2024-04-22,0.8794557328838284,0.8794557328838284,0.0,0,False
2024-04-23,0.8794557328838284,0.8771660657344708,-0.26035047174569614,4,True
2024-04-24,0.8771660657344708,0.8706263307207048,-0.7455526688997072,6,True
2024-04-25,0.8706263307207048,0.8595545289252486,-1.2717053694310976,3,True
2024-04-26,0.8595545289252486,0.8631547777138705,0.41885054030528224,2,True
2024-04-27,0.8631547777138705,0.862298924361937,-0.09915410005610914,6,True
2024-04-28,0.862298924361937,0.8686751774827068,0.7394481125542418,3,True
2024-04-29,0.8686751774827068,0.8757265242714127,0.8117357294748162,3,True
2024-04-30,0.8757265242714127,0.867039318527205,-0.9919998428088439,2,True
2024-05-01,0.867039318527205,0.8567151023710076,-1.190743710877451,6,True
2024-05-02,0.8567151023710076,0.8562926885171409,-0.04930622241835492,4,True
2024-05-03,0.8562926885171409,0.8576851723056277,0.16261773657066936,3,True
2024-05-04,0.8576851723056277,0.8589581356932172,0.14841849068785162,0,True
2024-05-05,0.8589581356932172,0.8546827231102841,-0.49774400000095476,1,True
2024-05-06,0.8546827231102841,0.8504211141191974,-0.49861882963754267,1,True
2024-05-07,0.8504211141191974,0.8529245704551789,0.2943784313933051,4,True
2024-05-08,0.8529245704551789,0.8572757651378672,0.5101499984185187,3,True
2024-05-09,0.8572757651378672,0.8580318723055269,0.08819882684285574,10,True
2024-05-10,0.8580318723055269,0.8526498670482052,-0.6272500394257197,4,True
2024-05-11,0.8526498670482052,0.8380375340281581,-1.71375538597498,4,True
2024-05-12,0.8380375340281581,0.8327155164409736,-0.6350571867113519,0,True
2024-05-13,0.8327155164409736,0.840627341504395,0.9501234103618694,5,True
2024-05-14,0.840627341504395,0.8256603276499875,-1.7804576553056561,4,True
2024-05-15,0.8256603276499875,0.8114122340014737,-1.7256604406641562,3,True
2024-05-16,0.8114122340014737,0.7920161743627365,-2.390407591352872,4,True
2024-05-17,0.7920161743627365,0.7908713834206202,-0.14454135902431942,1,True
2024-05-18,0.7908713834206202,0.7977993718538064,0.8759943245413293,2,True
2024-05-19,0.7977993718538064,0.7967385885001765,-0.1329636737072204,0,True
2024-05-20,0.7967385885001765,0.8000929581117826,0.4210125704995127,2,True
2024-05-21,0.8000929581117826,0.7951912093362622,-0.612647408757172,2,True
2024-05-22,0.7951912093362622,0.8016451121115908,0.8116164640094015,1,True
2024-05-23,0.8016451121115908,0.7976542445355438,-0.49783470462818613,5,True
2024-05-24,0.7976542445355438,0.7993598967343574,0.21383352630521824,5,True
2024-05-25,0.7993598967343574,0.7998685334410763,0.06363050095419265,3,True
2024-05-26,0.7998685334410763,0.8146842409623465,1.8522678292559158,3,True
2024-05-27,0.8146842409623465,0.806598461248101,-0.9925047408176457,5,True
2024-05-28,0.806598461248101,0.8086939898292127,0.25979823689090686,2,True
2024-05-29,0.8086939898292127,0.8012818059389382,-0.9165622576025267,4,True
2024-05-30,0.8012818059389382,0.776576981848903,-3.0831629904645275,6,True
2024-05-31,0.776576981848903,0.7662092011240016,-1.335061554389294,3,True
2024-06-01,0.7662092011240016,0.7559717322268242,-1.3361192846756964,3,True
2024-06-02,0.7559717322268242,0.759001695332291,0.40080375711160077,4,True
2024-06-03,0.759001695332291,0.7457358039781616,-1.7478078686400722,10,True
2024-06-04,0.7457358039781616,0.7409156914318273,-0.646356594469677,9,True
2024-06-05,0.7409156914318273,0.7426533999776214,0.23453526033925254,0,True
2024-06-06,0.7426533999776214,0.73700977185539,-0.759927595080212,3,True
2024-06-07,0.73700977185539,0.7360112501955772,-0.1354828250511475,0,True
2024-06-08,0.7360112501955772,0.75245501852421,2.234173502682646,13,True
2024-06-09,0.75245501852421,0.7518724515592521,-0.07742216486249509,3,True
2024-06-10,0.7518724515592521,0.7518724515592521,0.0,0,False
2024-06-11,0.7518724515592521,0.7375508063657266,-1.9047971718906487,4,True
2024-06-12,0.7375508063657266,0.7327012248249392,-0.6575250815172518,4,True
2024-06-13,0.7327012248249392,0.7363490267642225,0.4978566727734002,3,True
2024-06-14,0.7363490267642225,0.7171379970514548,-2.6089570318559185,6,True
2024-06-15,0.7171379970514548,0.7256571407493494,1.1879364547578763,5,True
2024-06-16,0.7256571407493494,0.726904818232557,0.17193760153992876,0,True
2024-06-17,0.726904818232557,0.7124423471305603,-1.9895962633954878,4,True
2024-06-18,0.7124423471305603,0.7190512310405611,0.9276377150542414,6,True
2024-06-19,0.7190512310405611,0.7317368032477473,1.7642097891729325,2,True
2024-06-20,0.7317368032477473,0.737470176415439,0.7835294250944758,1,True
2024-06-21,0.737470176415439,0.733798395728222,-0.4978887017593192,1,True
2024-06-22,0.733798395728222,0.7270721199959674,-0.9166381081522346,3,True
2024-06-23,0.7270721199959674,0.7303946149565891,0.4569691051611313,2,True
2024-06-24,0.7303946149565891,0.7376864053270219,0.9983357244311319,2,True
2024-06-25,0.7376864053270219,0.7468823684691815,1.246595175911236,1,True
2024-06-26,0.7468823684691815,0.7464805006228842,-0.05380604272678946,0,True
2024-06-27,0.7464805006228842,0.7427729733294566,-0.4966676678538784,1,True
2024-06-28,0.7427729733294566,0.7405838115516503,-0.29472824892825544,2,True
2024-06-29,0.7405838115516503,0.7193368583052928,-2.8689464872100667,7,True
2024-06-30,0.7193368583052928,0.7220222237019763,0.37331124711308394,0,True
2024-07-01,0.7220222237019763,0.7148588175672715,-0.9921309759658548,2,True
2024-07-02,0.7148588175672715,0.7148588175672715,0.0,0,False
2024-07-03,0.7148588175672715,0.7113064818503836,-0.4969282926350238,1,True
2024-07-04,0.7113064818503836,0.6958809540946106,-2.168619034040742,5,True
2024-07-05,0.6958809540946106,0.6555110274157155,-5.8012690879604705,19,True
2024-07-06,0.6555110274157155,0.6610345555276487,0.8426293198619428,3,True
2024-07-07,0.6610345555276487,0.6676071472767124,0.9942886788750993,3,True
2024-07-08,0.6676071472767124,0.6631470049836593,-0.668078871121569,2,True
2024-07-09,0.6631470049836593,0.6692971772767585,0.9274221623380097,2,True
2024-07-10,0.6692971772767585,0.6740859940948489,0.7154993298455592,1,True
2024-07-11,0.6740859940948489,0.6654907971225789,-1.2750890906451096,3,True
2024-07-12,0.6654907971225789,0.6655401573023415,0.007417109293772484,0,True
2024-07-13,0.6655401573023415,0.661392121425723,-0.6232585413676439,2,True
2024-07-14,0.661392121425723,0.6616997162647977,0.04650718221614891,2,True
2024-07-15,0.6616997162647977,0.6616997162647977,0.0,0,False
2024-07-16,0.6616997162647977,0.6643708020604301,0.40367038552022727,2,True
2024-07-17,0.6643708020604301,0.6704725184756793,0.9184203153308035,1,True
2024-07-18,0.6704725184756793,0.6704725184756793,0.0,0,False
2024-07-19,0.6704725184756793,0.6694236932078281,-0.15643076173139647,2,True
2024-07-20,0.6694236932078281,0.667432477519114,-0.2974522277770508,2,True
2024-07-21,0.667432477519114,0.6732823319596833,0.876471349178809,1,True
2024-07-22,0.6732823319596833,0.6720788128056555,-0.1787540080733785,1,True
2024-07-23,0.6720788128056555,0.6687602875321609,-0.49377025584859124,3,True
2024-07-24,0.6687602875321609,0.6637688828529044,-0.7463667882666392,1,True
2024-07-25,0.6637688828529044,0.6587929189541469,-0.7496530836713089,3,True
2024-07-26,0.6587929189541469,0.6493912481458805,-1.4271056257240788,1,True
2024-07-27,0.6493912481458805,0.6567290026338476,1.1299435446531891,2,True
2024-07-28,0.6567290026338476,0.6455603621461425,-1.7006467573249529,2,True
2024-07-29,0.6455603621461425,0.6455603621461425,0.0,0,False
2024-07-30,0.6455603621461425,0.6421452128289964,-0.5290209122803979,2,True
2024-07-31,0.6421452128289964,0.6332401888770082,-1.386761712784057,7,True
2024-08-01,0.6332401888770082,0.6292345302565355,-0.6325654452817187,1,True
2024-08-02,0.6292345302565355,0.6167627374660706,-1.982057911758317,4,True
2024-08-03,0.6167627374660706,0.6177362464183866,0.1578417263526033,9,True
2024-08-04,0.6177362464183866,0.5935681229360538,-3.9123693360165968,7,True
2024-08-05,0.5935681229360538,0.5841984838289503,-1.578528014738556,22,True
2024-08-06,0.5841984838289503,0.5841984838289503,0.0,0,False
2024-08-07,0.5841984838289503,0.5839132243412333,-0.04882920712964145,1,True
2024-08-08,0.5839132243412333,0.5812887022292086,-0.4494712574776294,0,True
2024-08-09,0.5812887022292086,0.5812887022292086,0.0,0,False
2024-08-10,0.5812887022292086,0.5812887022292086,0.0,0,False
2024-08-11,0.5812887022292086,0.578385410681237,-0.4994577628702479,1,True
2024-08-12,0.578385410681237,0.5862542083161925,1.360476507470576,3,True
2024-08-13,0.5862542083161925,0.5815935039032969,-0.7949971781493592,0,True
2024-08-14,0.5815935039032969,0.5815935039032969,0.0,0,False
2024-08-15,0.5815935039032969,0.5815935039032969,0.0,0,False
2024-08-16,0.5815935039032969,0.5815935039032969,0.0,0,False
2024-08-17,0.5815935039032969,0.5866607435481717,0.871268267418146,1,True
2024-08-18,0.5866607435481717,0.5903719666015612,0.6326012255300606,4,True
2024-08-19,0.5903719666015612,0.5817674863304862,-1.457467623438513,6,True
2024-08-20,0.5817674863304862,0.5791485108132074,-0.4501756421277703,3,True
2024-08-21,0.5791485108132074,0.5784388874008065,-0.12252874679837822,1,True
2024-08-22,0.5784388874008065,0.5811784410731193,0.4736116004618651,2,True
2024-08-23,0.5811784410731193,0.5816050522681483,0.07340451139949966,0,True
2024-08-24,0.5816050522681483,0.5808461425710184,-0.1304854031391689,3,True
2024-08-25,0.5808461425710184,0.5830823502164068,0.3849913912641556,2,True
2024-08-26,0.5830823502164068,0.5775946467854092,-0.9411540975234223,2,True
2024-08-27,0.5775946467854092,0.5775160258794094,-0.013611778855171508,1,True
2024-08-28,0.5775160258794094,0.5791186610988734,0.2775048912319944,4,True
2024-08-29,0.5791186610988734,0.5809251270697129,0.3119336488677016,3,True
2024-08-30,0.5809251270697129,0.5844128446697208,0.6003729977390515,0,True
2024-08-31,0.5844128446697208,0.5844128446697208,0.0,0,False
2024-09-01,0.5844128446697208,0.581519877967777,-0.49502106744054863,1,True
2024-09-02,0.581519877967777,0.5828115455164368,0.2221192426256735,1,True
2024-09-03,0.5828115455164368,0.5820424104116112,-0.13196977835160384,1,True
2024-09-04,0.5820424104116112,0.5816849354859904,-0.061417333037294686,0,True
2024-09-05,0.5816849354859904,0.5775234819060678,-0.7154136760385121,2,True
2024-09-06,0.5775234819060678,0.5757678232765739,-0.30399779134512306,1,True
2024-09-07,0.5757678232765739,0.573025807706399,-0.4762363333488673,0,True
2024-09-08,0.573025807706399,0.573025807706399,0.0,0,False
2024-09-09,0.573025807706399,0.573025807706399,0.0,0,False
2024-09-10,0.573025807706399,0.573025807706399,0.0,0,False
2024-09-11,0.573025807706399,0.5673337181858601,-0.9933391208542863,2,True
2024-09-12,0.5673337181858601,0.5673337181858601,0.0,0,False
2024-09-13,0.5673337181858601,0.5645097476786897,-0.49776179639040574,1,True
2024-09-14,0.5645097476786897,0.5645097476786897,0.0,0,False
2024-09-15,0.5645097476786897,0.5683763379405915,0.6849465891070272,3,True
2024-09-16,0.5683763379405915,0.5609447907331319,-1.3075046780424593,1,True
2024-09-17,0.5609447907331319,0.5581508092719487,-0.4980849287380851,1,True
2024-09-18,0.5581508092719487,0.5497990636457883,-1.496324199019683,3,True
2024-09-19,0.5497990636457883,0.5515215481160975,0.3132934528638831,2,True
2024-09-20,0.5515215481160975,0.5587278060570219,1.3066140326773557,3,True
2024-09-21,0.5587278060570219,0.5570076245327529,-0.30787469419294444,7,True
2024-09-22,0.5570076245327529,0.5606199569015031,0.6485247615381384,3,True
2024-09-23,0.5606199569015031,0.5557818868888538,-0.8629856916598122,0,True
2024-09-24,0.5557818868888538,0.5557818868888538,0.0,0,False
2024-09-25,0.5557818868888538,0.5557818868888538,0.0,0,False
2024-09-26,0.5557818868888538,0.5557818868888538,0.0,0,False
2024-09-27,0.5557818868888538,0.5530104591124172,-0.4986538499752835,1,True
2024-09-28,0.5530104591124172,0.5530104591124172,0.0,0,False
2024-09-29,0.5530104591124172,0.5530104591124172,0.0,0,False
2024-09-30,0.5530104591124172,0.5489334175381169,-0.73724493038414,2,True
2024-10-01,0.5489334175381169,0.551167996922892,0.4070765803978249,0,True
2024-10-02,0.551167996922892,0.5337218569631759,-3.1653035112916394,14,True
2024-10-03,0.5337218569631759,0.5360850675277905,0.44277942411072857,3,True
2024-10-04,0.5360850675277905,0.5368671751615086,0.14589244899598786,3,True
2024-10-05,0.5368671751615086,0.5341385209886864,-0.5082549835536687,0,True
2024-10-06,0.5341385209886864,0.5341385209886864,0.0,0,False
2024-10-07,0.5341385209886864,0.5341385209886864,0.0,0,False
2024-10-08,0.5341385209886864,0.5288165655119027,-0.9963624168002005,2,True
2024-10-09,0.5288165655119027,0.5288165655119027,0.0,0,False
2024-10-10,0.5288165655119027,0.5288165655119027,0.0,0,False
2024-10-11,0.5288165655119027,0.527636578326221,-0.22313733393344304,1,True
2024-10-12,0.527636578326221,0.5285550237058326,0.17406779918958115,1,True
2024-10-13,0.5285550237058326,0.5276151869548205,-0.1778124715233531,0,True
2024-10-14,0.5276151869548205,0.5276151869548205,0.0,0,False
2024-10-15,0.5276151869548205,0.5226043225680922,-0.9497195135054648,3,True
2024-10-16,0.5226043225680922,0.5152708522000499,-1.4032548242244647,5,True
2024-10-17,0.5152708522000499,0.5126970513970185,-0.4995044435449847,2,True
2024-10-18,0.5126970513970185,0.5246758333023454,2.3364249653253566,3,True
2024-10-19,0.5246758333023454,0.5261366046879289,0.2784140783442135,2,True
2024-10-20,0.5261366046879289,0.5297944195697762,0.6952215164761189,3,True
2024-10-21,0.5297944195697762,0.5296062838686483,-0.03551107640596962,7,True
2024-10-22,0.5296062838686483,0.5293726018228105,-0.04412372982638413,3,True
2024-10-23,0.5293726018228105,0.5215282163734968,-1.4818268686937808,4,True
2024-10-24,0.5215282163734968,0.5139740002836376,-1.4484769668625441,3,True
2024-10-25,0.5139740002836376,0.5086472702956584,-1.036381214816251,3,True
2024-10-26,0.5086472702956584,0.5007783074907317,-1.547037262256945,9,True
2024-10-27,0.5007783074907317,0.5013850882131234,0.1211675332807749,2,True
2024-10-28,0.5013850882131234,0.49888635104910006,-0.4983668686535103,1,True
2024-10-29,0.49888635104910006,0.5060256690913151,1.4310509852999198,2,True
2024-10-30,0.5060256690913151,0.5076971207576292,0.33030965984701677,0,True
2024-10-31,0.5076971207576292,0.5057414561340752,-0.3852030164432696,1,True
2024-11-01,0.5057414561340752,0.504567452425085,-0.2321351541881289,3,True
2024-11-02,0.504567452425085,0.5020451053363713,-0.49990285274856827,1,True
2024-11-03,0.5020451053363713,0.49534810753942304,-1.3339434496550284,3,True
2024-11-04,0.49534810753942304,0.5014357824127049,1.228969038263128,4,True
2024-11-05,0.5014357824127049,0.4948443789293862,-1.314506007449956,1,True
2024-11-06,0.4948443789293862,0.5000185446073911,1.045614722187893,3,True
2024-11-07,0.5000185446073911,0.4975643939206609,-0.4908119335168326,4,True
2024-11-08,0.4975643939206609,0.4926573688796764,-0.9862090416716818,2,True
2024-11-09,0.4926573688796764,0.4900090512739539,-0.5375576968928542,2,True
2024-11-10,0.4900090512739539,0.4935279171410483,0.7181226260914775,7,True
2024-11-11,0.4935279171410483,0.48990652760123393,-0.7337760264490623,8,True
2024-11-12,0.48990652760123393,0.4773228845862265,-2.568580393615416,8,True
2024-11-13,0.4773228845862265,0.49917469189054225,4.577992803185671,8,True
2024-11-14,0.49917469189054225,0.5042308713795807,1.0129078198834573,8,True
2024-11-15,0.5042308713795807,0.5120208508814172,1.5449231580214606,7,True
2024-11-16,0.5120208508814172,0.5178803988634907,1.144396360419031,7,True
2024-11-17,0.5178803988634907,0.5154932906378821,-0.46093812989392857,10,True
2024-11-18,0.5154932906378821,0.5313350106145501,3.073118557385146,7,True
2024-11-19,0.5313350106145501,0.5189177276456194,-2.3369969455934614,6,True
2024-11-20,0.5189177276456194,0.5125676592375805,-1.2237139087249438,2,True
2024-11-21,0.5125676592375805,0.5239196429310766,2.214728824362755,6,True
2024-11-22,0.5239196429310766,0.5394297011755278,2.9603887645212046,7,True
2024-11-23,0.5394297011755278,0.5551134328480425,2.9074653543059714,1,True
2024-11-24,0.5551134328480425,0.5608310711081254,1.0299945779997044,16,True
2024-11-25,0.5608310711081254,0.5701522121774256,1.6620229422886545,6,True
2024-11-26,0.5701522121774256,0.5589230854961798,-1.9694962926411486,12,True
2024-11-27,0.5589230854961798,0.5669508342456095,1.4362886339366776,5,True
2024-11-28,0.5669508342456095,0.5670513802021658,0.017734510734079834,4,True
2024-11-29,0.5670513802021658,0.5786872129775704,2.051989146249178,6,True
2024-11-30,0.5786872129775704,0.5847361439727438,1.045285062382706,4,True
2024-12-01,0.5847361439727438,0.5826356195459644,-0.3592260284285165,5,True
2024-12-02,0.5826356195459644,0.5870157138443424,0.7517724889170463,11,True
2024-12-03,0.5870157138443424,0.6042371245224752,2.93372226193922,15,True
2024-12-04,0.6042371245224752,0.6210804612208368,2.787537543588159,8,True
2024-12-05,0.6210804612208368,0.6251873657346982,0.6612516043072114,9,True
2024-12-06,0.6251873657346982,0.6253253039099634,0.02206349373408134,8,True
2024-12-07,0.6253253039099634,0.6240623651155445,-0.2019650870550449,4,True
2024-12-08,0.6240623651155445,0.6216259766040367,-0.3904078578839898,0,True
2024-12-09,0.6216259766040367,0.6209456143181835,-0.10944881833446773,2,True
2024-12-10,0.6209456143181835,0.5814577779222547,-6.359306754954308,21,True
2024-12-11,0.5814577779222547,0.6008190105110863,3.329774460669488,5,True
2024-12-12,0.6008190105110863,0.5966175276025962,-0.6992926047589831,2,True
2024-12-13,0.5966175276025962,0.5963888486794866,-0.03832923314012193,1,True
2024-12-14,0.5963888486794866,0.5983677188449544,0.3318087133670211,0,True
2024-12-15,0.5983677188449544,0.5884132969747095,-1.663596072572271,4,True
2024-12-16,0.5884132969747095,0.5865288207944191,-0.3202640371961718,0,True
2024-12-17,0.5865288207944191,0.5865288207944191,0.0,0,False
2024-12-18,0.5865288207944191,0.5779800942605287,-1.4575117591513642,4,True
2024-12-19,0.5779800942605287,0.5737144905907571,-0.7380191311309847,13,True
2024-12-20,0.5737144905907571,0.5435126735242318,-5.264259062975086,22,True
2024-12-21,0.5435126735242318,0.548439248795848,0.9064324553227809,3,True
2024-12-22,0.548439248795848,0.5513632556018355,0.5331505380782753,2,True
2024-12-23,0.5513632556018355,0.5641861137238711,2.3256642497946123,3,True
2024-12-24,0.5641861137238711,0.5641861137238711,0.0,0,False
2024-12-25,0.5641861137238711,0.5743359322722402,1.7990195613599935,4,True
2024-12-26,0.5743359322722402,0.5713055605768629,-0.5276305251159075,3,True
2024-12-27,0.5713055605768629,0.5685756743554888,-0.47783295135751525,0,True
2024-12-28,0.5685756743554888,0.5596557439067709,-1.5688202733662893,4,True
2024-12-29,0.5596557439067709,0.5569624817606119,-0.48123550512645386,5,True
2024-12-30,0.5569624817606119,0.55746829353793,0.09081613104695574,6,True
2024-12-31,0.55746829353793,0.5494599506273665,-1.4365557653044592,3,True
