day,start_equity,end_equity,return_pct,entries,active
2024-01-02,1.0121101055005912,1.0099256271790267,-0.2158340589321628,0,True
2024-01-03,1.0099256271790267,1.0326229911413602,2.247429251373001,4,True
2024-01-04,1.0326229911413602,1.0313111960587784,-0.12703523878854206,2,True
2024-01-05,1.0313111960587784,1.0313111960587784,0.0,0,False
2024-01-06,1.0313111960587784,1.0450639385798801,1.3335201415109799,3,True
2024-01-07,1.0450639385798801,1.0651112589091394,1.9182864884325967,2,True
2024-01-08,1.0651112589091394,1.050201520040834,-1.3998292425878245,5,True
2024-01-09,1.050201520040834,1.0485929649326675,-0.1531663283161011,1,True
2024-01-10,1.0485929649326675,1.0315525691784853,-1.6250724851350151,4,True
2024-01-11,1.0315525691784853,1.0315525691784853,0.0,0,False
2024-01-12,1.0315525691784853,1.0412178886001922,0.9369681885823988,1,True
2024-01-13,1.0412178886001922,1.0412178886001922,0.0,0,False
2024-01-14,1.0412178886001922,1.036013672372102,-0.49982009386014825,1,True
2024-01-15,1.036013672372102,1.0414590118010276,0.5256049774379656,1,True
2024-01-16,1.0414590118010276,1.0414590118010276,0.0,0,False
2024-01-17,1.0414590118010276,1.0414590118010276,0.0,0,False
2024-01-18,1.0414590118010276,1.0362543449412975,-0.49974764256247584,1,True
2024-01-19,1.0362543449412975,1.0362543449412975,0.0,0,False
2024-01-20,1.0362543449412975,1.0362543449412975,0.0,0,False
2024-01-21,1.0362543449412975,1.0362543449412975,0.0,0,False
2024-01-22,1.0362543449412975,1.0362543449412975,0.0,0,False
2024-01-23,1.0362543449412975,1.030253161384718,-0.5791226435744923,3,True
2024-01-24,1.030253161384718,1.028725589326404,-0.14827152350211925,0,True
2024-01-25,1.028725589326404,1.0235862669939628,-0.4995814613502847,1,True
2024-01-26,1.0235862669939628,1.0235862669939628,0.0,0,False
2024-01-27,1.0235862669939628,1.0235862669939628,0.0,0,False
2024-01-28,1.0235862669939628,1.0188115824717383,-0.4664662545978304,2,True
2024-01-29,1.0188115824717383,1.018697295589959,-0.0112176661264618,0,True
2024-01-30,1.018697295589959,1.018697295589959,0.0,0,False
2024-01-31,1.018697295589959,1.018697295589959,0.0,0,False
2024-02-01,1.018697295589959,1.018697295589959,0.0,0,False
2024-02-02,1.018697295589959,1.0196927854714661,0.09772185376526465,1,True
2024-02-03,1.0196927854714661,1.0183333380799153,-0.13331931057276591,0,True
2024-02-04,1.0183333380799153,1.0183333380799153,0.0,0,False
2024-02-05,1.0183333380799153,1.0183333380799153,0.0,0,False
2024-02-06,1.0183333380799153,1.0106805602414621,-0.7515002752323308,2,True
2024-02-07,1.0106805602414621,1.003162368731804,-0.743874158207003,1,True
2024-02-08,1.003162368731804,1.003162368731804,0.0,0,False
2024-02-09,1.003162368731804,1.003162368731804,0.0,0,False
2024-02-10,1.003162368731804,1.003162368731804,0.0,0,False
2024-02-11,1.003162368731804,1.003162368731804,0.0,0,False
2024-02-12,1.003162368731804,1.003162368731804,0.0,0,False
2024-02-13,1.003162368731804,1.003162368731804,0.0,0,False
2024-02-14,1.003162368731804,1.003162368731804,0.0,0,False
2024-02-15,1.003162368731804,1.0153542338908466,1.2153431527196723,2,True
2024-02-16,1.0153542338908466,1.019152398872263,0.3740728954132466,1,True
2024-02-17,1.019152398872263,1.019152398872263,0.0,0,False
2024-02-18,1.019152398872263,1.019152398872263,0.0,0,False
2024-02-19,1.019152398872263,1.019152398872263,0.0,0,False
2024-02-20,1.019152398872263,1.0140632042738,-0.49935560217435615,1,True
2024-02-21,1.0140632042738,1.0374510901936909,2.3063538664376937,5,True
2024-02-22,1.0374510901936909,1.0452446841948726,0.7512251974911566,1,True
2024-02-23,1.0452446841948726,1.0367832194048359,-0.8095200021566606,2,True
2024-02-24,1.0367832194048359,1.0348125102151287,-0.1900791942638258,0,True
2024-02-25,1.0348125102151287,1.0348125102151287,0.0,0,False
2024-02-26,1.0348125102151287,1.0393345934617157,0.43699541723234425,2,True
2024-02-27,1.0393345934617157,1.0356525905622584,-0.3542654042904214,2,True
2024-02-28,1.0356525905622584,1.0238379612363286,-1.1407907857900135,1,True
2024-02-29,1.0238379612363286,1.0421852161860619,1.7920076852374178,6,True
2024-03-01,1.0421852161860619,1.0416321808714415,-0.05306497405943578,2,True
2024-03-02,1.0416321808714415,1.032878878773708,-0.8403448221434906,2,True
2024-03-03,1.032878878773708,1.0585134111646435,2.481852704875731,4,True
2024-03-04,1.0585134111646435,1.060240513338874,0.16316299406449186,0,True
2024-03-05,1.060240513338874,1.0554232118008147,-0.4543593154055947,2,True
2024-03-06,1.0554232118008147,1.0881841772003595,3.1040595879681776,9,True
2024-03-07,1.0881841772003595,1.08613819172535,-0.1880183077347497,5,True
2024-03-08,1.08613819172535,1.0875991450062363,0.13450896874969143,1,True
2024-03-09,1.0875991450062363,1.0857864668741655,-0.16666785188218514,2,True
2024-03-10,1.0857864668741655,1.0949741333094827,0.8461761787994293,1,True
2024-03-11,1.0949741333094827,1.094645402754782,-0.03002176441438964,1,True
2024-03-12,1.094645402754782,1.116606050805833,2.0061883049784734,2,True
2024-03-13,1.116606050805833,1.116606050805833,0.0,0,False
2024-03-14,1.116606050805833,1.116606050805833,0.0,0,False
2024-03-15,1.116606050805833,1.1110270343455706,-0.49964053626936344,1,True
2024-03-16,1.1110270343455706,1.1054814462136295,-0.49914070139684963,1,True
2024-03-17,1.1054814462136295,1.099962911507495,-0.499197406255536,1,True
2024-03-18,1.099962911507495,1.097776838593939,-0.19874060213174172,1,True
2024-03-19,1.097776838593939,1.0835717070552284,-1.2939908221150764,2,True
2024-03-20,1.0835717070552284,1.0829688821366583,-0.055633135734811656,1,True
2024-03-21,1.0829688821366583,1.0775301720541433,-0.5022037264620804,3,True
2024-03-22,1.0775301720541433,1.0890670691293043,1.0706797242779453,2,True
2024-03-23,1.0890670691293043,1.0845724866341242,-0.41270024799973104,1,True
2024-03-24,1.0845724866341242,1.080589131444123,-0.36727422455304914,2,True
2024-03-25,1.080589131444123,1.0817532857885779,0.10773330126865321,0,True
2024-03-26,1.0817532857885779,1.0875046164828623,0.5316675040272001,1,True
2024-03-27,1.0875046164828623,1.0865853199497637,-0.08453265569315915,3,True
2024-03-28,1.0865853199497637,1.0865853199497637,0.0,0,False
2024-03-29,1.0865853199497637,1.0757703119668154,-0.9953206420503014,2,True
2024-03-30,1.0757703119668154,1.0757703119668154,0.0,0,False
2024-03-31,1.0757703119668154,1.0757703119668154,0.0,0,False
2024-04-01,1.0757703119668154,1.068838637199343,-0.6443452371165836,2,True
2024-04-02,1.068838637199343,1.0696377264008397,0.07476237980976741,2,True
2024-04-03,1.0696377264008397,1.0669316187510587,-0.2529929136742992,1,True
2024-04-04,1.0669316187510587,1.0642927142530294,-0.24733586029799248,0,True
2024-04-05,1.0642927142530294,1.063188172150114,-0.10378179688006473,2,True
2024-04-06,1.063188172150114,1.0585682132156093,-0.43453821774197543,0,True
2024-04-07,1.0585682132156093,1.0653190724494133,0.6377349281343703,2,True
2024-04-08,1.0653190724494133,1.064549383876446,-0.07224958163920547,0,True
2024-04-09,1.064549383876446,1.0592355705925545,-0.49916080591224654,1,True
2024-04-10,1.0592355705925545,1.0539539737064227,-0.49862344437480166,1,True
2024-04-11,1.0539539737064227,1.0539539737064227,0.0,0,False
2024-04-12,1.0539539737064227,1.0486966640946676,-0.4988177608237332,1,True
2024-04-13,1.0486966640946676,1.0557306347571769,0.6707345320471347,9,True
2024-04-14,1.0557306347571769,1.0298181450970019,-2.4544603336375648,8,True
2024-04-15,1.0298181450970019,1.0424386492271092,1.2255080365590754,2,True
2024-04-16,1.0424386492271092,1.0342779370667619,-0.7828481960447164,0,True
2024-04-17,1.0342779370667619,1.0291151441917328,-0.4991688104331926,1,True
2024-04-18,1.0291151441917328,1.0291151441917328,0.0,0,False
2024-04-19,1.0291151441917328,1.0291151441917328,0.0,0,False
2024-04-20,1.0291151441917328,1.0291151441917328,0.0,0,False
2024-04-21,1.0291151441917328,1.0291151441917328,0.0,0,False
2024-04-22,1.0291151441917328,1.0291151441917328,0.0,0,False
2024-04-23,1.0291151441917328,1.0239755289318602,-0.4994208168911274,1,True
2024-04-24,1.0239755289318602,1.0239755289318602,0.0,0,False
2024-04-25,1.0239755289318602,1.0281381767857172,0.4065182942603274,2,True
2024-04-26,1.0281381767857172,1.0281381767857172,0.0,0,False
2024-04-27,1.0281381767857172,1.0230065642254311,-0.49911701327238767,1,True
2024-04-28,1.0230065642254311,1.0230065642254311,0.0,0,False
2024-04-29,1.0230065642254311,1.0322045469982335,0.8991127813306576,1,True
2024-04-30,1.0322045469982335,1.0322045469982335,0.0,0,False
2024-05-01,1.0322045469982335,1.0322045469982335,0.0,0,False
2024-05-02,1.0322045469982335,1.0322045469982335,0.0,0,False
2024-05-03,1.0322045469982335,1.0322045469982335,0.0,0,False
2024-05-04,1.0322045469982335,1.0322045469982335,0.0,0,False
2024-05-05,1.0322045469982335,1.0322045469982335,0.0,0,False
2024-05-06,1.0322045469982335,1.0322045469982335,0.0,0,False
2024-05-07,1.0322045469982335,1.0270512976080044,-0.49924691818257205,1,True
2024-05-08,1.0270512976080044,1.0270512976080044,0.0,0,False
2024-05-09,1.0270512976080044,1.0120319817907324,-1.46237250780481,5,True
2024-05-10,1.0120319817907324,1.0097843844812562,-0.22208757726205341,1,True
2024-05-11,1.0097843844812562,1.0100465797069795,0.025965466465205367,1,True
2024-05-12,1.0100465797069795,1.0072641465536678,-0.2754757264876728,0,True
2024-05-13,1.0072641465536678,1.0118604073632538,0.456311368305129,1,True
2024-05-14,1.0118604073632538,1.0118604073632538,0.0,0,False
2024-05-15,1.0118604073632538,1.0118604073632538,0.0,0,False
2024-05-16,1.0118604073632538,1.0118604073632538,0.0,0,False
2024-05-17,1.0118604073632538,1.0118604073632538,0.0,0,False
2024-05-18,1.0118604073632538,1.0118604073632538,0.0,0,False
2024-05-19,1.0118604073632538,1.0118604073632538,0.0,0,False
2024-05-20,1.0118604073632538,1.0118604073632538,0.0,0,False
2024-05-21,1.0118604073632538,1.014118973167084,0.22320922801157828,2,True
2024-05-22,1.014118973167084,1.014118973167084,0.0,0,False
2024-05-23,1.014118973167084,1.0187181953778033,0.45351899850132327,1,True
2024-05-24,1.0187181953778033,1.0184152810598432,-0.029734849081364256,2,True
2024-05-25,1.0184152810598432,1.0184152810598432,0.0,0,False
2024-05-26,1.0184152810598432,1.0184152810598432,0.0,0,False
2024-05-27,1.0184152810598432,1.0184152810598432,0.0,0,False
2024-05-28,1.0184152810598432,1.0184152810598432,0.0,0,False
2024-05-29,1.0184152810598432,1.0184152810598432,0.0,0,False
2024-05-30,1.0184152810598432,1.0184152810598432,0.0,0,False
2024-05-31,1.0184152810598432,1.0133288777671803,-0.49944294702349845,2,True
2024-06-01,1.0133288777671803,1.0133288777671803,0.0,0,False
2024-06-02,1.0133288777671803,1.0107986530490962,-0.24969432664934121,1,True
2024-06-03,1.0107986530490962,1.0068268655513217,-0.3929355748341634,3,True
2024-06-04,1.0068268655513217,1.003754341207127,-0.3051690860982559,2,True
2024-06-05,1.003754341207127,1.003754341207127,0.0,0,False
2024-06-06,1.003754341207127,0.9987508299076739,-0.49847966718986614,2,True
2024-06-07,0.9987508299076739,0.9987508299076739,0.0,0,False
2024-06-08,0.9987508299076739,1.0134810188984438,1.4748612516428672,5,True
2024-06-09,1.0134810188984438,1.0109510540611713,-0.2496312007917334,1,True
2024-06-10,1.0109510540611713,1.0109510540611713,0.0,0,False
2024-06-11,1.0109510540611713,1.0084266649360734,-0.2497043862763615,1,True
2024-06-12,1.0084266649360734,1.0059098488198965,-0.249578497246139,1,True
2024-06-13,1.0059098488198965,1.0017712141923638,-0.41143196205783994,2,True
2024-06-14,1.0017712141923638,0.9992726000473025,-0.24941963890185992,1,True
2024-06-15,0.9992726000473025,1.0034953859018114,0.4225859744687366,1,True
2024-06-16,1.0034953859018114,1.0034953859018114,0.0,0,False
2024-06-17,1.0034953859018114,1.0034953859018114,0.0,0,False
2024-06-18,1.0034953859018114,1.0092826088406028,0.5767064821718737,5,True
2024-06-19,1.0092826088406028,1.0071632048137211,-0.20999113710246098,1,True
2024-06-20,1.0071632048137211,1.006759924825622,-0.04004117566761556,0,True
2024-06-21,1.006759924825622,1.006759924825622,0.0,0,False
2024-06-22,1.006759924825622,1.004246759339908,-0.24962907479152419,1,True
2024-06-23,1.004246759339908,1.0083526551977213,0.408853284277666,1,True
2024-06-24,1.0083526551977213,1.008665021180458,0.030977850965774323,1,True
2024-06-25,1.008665021180458,1.0146200692317646,0.5903890713229387,1,True
2024-06-26,1.0146200692317646,1.015965533930861,0.13260773563401607,0,True
2024-06-27,1.015965533930861,1.0162673482464228,0.029707141185597585,1,True
2024-06-28,1.0162673482464228,1.0134265667007227,-0.2795309276246938,0,True
2024-06-29,1.0134265667007227,1.0083791167851657,-0.4980577854781676,2,True
2024-06-30,1.0083791167851657,1.0083791167851657,0.0,0,False
2024-07-01,1.0083791167851657,1.0083791167851657,0.0,0,False
2024-07-02,1.0083791167851657,1.0083791167851657,0.0,0,False
2024-07-03,1.0083791167851657,1.0083791167851657,0.0,0,False
2024-07-04,1.0083791167851657,1.0083791167851657,0.0,0,False
2024-07-05,1.0083791167851657,1.011928975947745,0.3520361641261127,6,True
2024-07-06,1.011928975947745,1.0127074547122858,0.0769301782085785,2,True
2024-07-07,1.0127074547122858,1.0106690945959118,-0.20127827704725654,2,True
2024-07-08,1.0106690945959118,1.0105655898997472,-0.010241205229100103,0,True
2024-07-09,1.0105655898997472,1.0105655898997472,0.0,0,False
2024-07-10,1.0105655898997472,1.0105655898997472,0.0,0,False
2024-07-11,1.0105655898997472,1.0105655898997472,0.0,0,False
2024-07-12,1.0105655898997472,1.0105655898997472,0.0,0,False
2024-07-13,1.0105655898997472,1.0105655898997472,0.0,0,False
2024-07-14,1.0105655898997472,1.0080431400586352,-0.2496077311876732,1,True
2024-07-15,1.0080431400586352,1.0080431400586352,0.0,0,False
2024-07-16,1.0080431400586352,1.0055261363657133,-0.24969206107343656,1,True
2024-07-17,1.0055261363657133,1.0030178382234425,-0.24945131225893036,1,True
2024-07-18,1.0030178382234425,1.0030178382234425,0.0,0,False
2024-07-19,1.0030178382234425,1.0030178382234425,0.0,0,False
2024-07-20,1.0030178382234425,1.0047442563053914,0.1721223707254138,2,True
2024-07-21,1.0047442563053914,1.0047442563053914,0.0,0,False
2024-07-22,1.0047442563053914,1.0047442563053914,0.0,0,False
2024-07-23,1.0047442563053914,1.0022350046163038,-0.24974033674146634,1,True
2024-07-24,1.0022350046163038,1.0022350046163038,0.0,0,False
2024-07-25,1.0022350046163038,1.0022350046163038,0.0,0,False
2024-07-26,1.0022350046163038,1.0022350046163038,0.0,0,False
2024-07-27,1.0022350046163038,1.0022350046163038,0.0,0,False
2024-07-28,1.0022350046163038,0.9997322049957237,-0.24972183260933978,1,True
2024-07-29,0.9997322049957237,0.9997322049957237,0.0,0,False
2024-07-30,0.9997322049957237,0.9997322049957237,0.0,0,False
2024-07-31,0.9997322049957237,0.9972383897824997,-0.24944832233694259,1,True
2024-08-01,0.9972383897824997,0.9972383897824997,0.0,0,False
2024-08-02,0.9972383897824997,0.9972383897824997,0.0,0,False
2024-08-03,0.9972383897824997,0.9947515563725984,-0.24937200927891423,1,True
2024-08-04,0.9947515563725984,0.9947515563725984,0.0,0,False
2024-08-05,0.9947515563725984,0.9961853137099449,0.14413220347950784,8,True
2024-08-06,0.9961853137099449,0.9961853137099449,0.0,0,False
2024-08-07,0.9961853137099449,0.9961853137099449,0.0,0,False
2024-08-08,0.9961853137099449,0.9961853137099449,0.0,0,False
2024-08-09,0.9961853137099449,0.9961853137099449,0.0,0,False
2024-08-10,0.9961853137099449,0.9961853137099449,0.0,0,False
2024-08-11,0.9961853137099449,0.9961853137099449,0.0,0,False
2024-08-12,0.9961853137099449,1.0018752940445215,0.5711768941248696,2,True
2024-08-13,1.0018752940445215,1.0013502555811813,-0.05240557047979655,0,True
2024-08-14,1.0013502555811813,1.0013502555811813,0.0,0,False
2024-08-15,1.0013502555811813,1.0013502555811813,0.0,0,False
2024-08-16,1.0013502555811813,1.0013502555811813,0.0,0,False
2024-08-17,1.0013502555811813,1.0013502555811813,0.0,0,False
2024-08-18,1.0013502555811813,1.0004235415628764,-0.09254644048271032,1,True
2024-08-19,1.0004235415628764,0.9956224305515522,-0.47990784021573196,2,True
2024-08-20,0.9956224305515522,0.9969431605540903,0.13265370104271756,1,True
2024-08-21,0.9969431605540903,0.9969431605540903,0.0,0,False
2024-08-22,0.9969431605540903,0.9969431605540903,0.0,0,False
2024-08-23,0.9969431605540903,0.9969431605540903,0.0,0,False
2024-08-24,0.9969431605540903,0.9969431605540903,0.0,0,False
2024-08-25,0.9969431605540903,0.9969431605540903,0.0,0,False
2024-08-26,0.9969431605540903,0.9969431605540903,0.0,0,False
2024-08-27,0.9969431605540903,0.9969431605540903,0.0,0,False
2024-08-28,0.9969431605540903,0.9969431605540903,0.0,0,False
2024-08-29,0.9969431605540903,0.9944580319331581,-0.24927485530378268,1,True
2024-08-30,0.9944580319331581,0.9944580319331581,0.0,0,False
2024-08-31,0.9944580319331581,0.9944580319331581,0.0,0,False
2024-09-01,0.9944580319331581,0.9919843012996787,-0.2487516369766296,1,True
2024-09-02,0.9919843012996787,0.9919843012996787,0.0,0,False
2024-09-03,0.9919843012996787,0.9919843012996787,0.0,0,False
2024-09-04,0.9919843012996787,0.9919843012996787,0.0,0,False
2024-09-05,0.9919843012996787,0.9885029546391781,-0.35094775753400365,2,True
2024-09-06,0.9885029546391781,0.9888628764580537,0.03641079848941686,0,True
2024-09-07,0.9888628764580537,0.9888628764580537,0.0,0,False
2024-09-08,0.9888628764580537,0.9888628764580537,0.0,0,False
2024-09-09,0.9888628764580537,0.9888628764580537,0.0,0,False
2024-09-10,0.9888628764580537,0.9888628764580537,0.0,0,False
2024-09-11,0.9888628764580537,0.9888628764580537,0.0,0,False
2024-09-12,0.9888628764580537,0.9888628764580537,0.0,0,False
2024-09-13,0.9888628764580537,0.9934594870166014,0.4648380142464159,1,True
2024-09-14,0.9934594870166014,0.9934594870166014,0.0,0,False
2024-09-15,0.9934594870166014,0.9934594870166014,0.0,0,False
2024-09-16,0.9934594870166014,0.9934594870166014,0.0,0,False
2024-09-17,0.9934594870166014,0.9934594870166014,0.0,0,False
2024-09-18,0.9934594870166014,0.988496418541743,-0.4995743198107361,2,True
2024-09-19,0.988496418541743,0.9881435825807616,-0.03569420731962536,1,True
2024-09-20,0.9881435825807616,0.9901264272367561,0.20066361720589843,1,True
2024-09-21,0.9901264272367561,0.984638487340397,-0.5542665810541858,4,True
2024-09-22,0.984638487340397,0.9891827986263575,0.4615207859927528,1,True
2024-09-23,0.9891827986263575,0.9938357102615466,0.4703793516881216,1,True
2024-09-24,0.9938357102615466,0.9938357102615466,0.0,0,False
2024-09-25,0.9938357102615466,0.9938357102615466,0.0,0,False
2024-09-26,0.9938357102615466,0.9938357102615466,0.0,0,False
2024-09-27,0.9938357102615466,0.9938357102615466,0.0,0,False
2024-09-28,0.9938357102615466,0.9938357102615466,0.0,0,False
2024-09-29,0.9938357102615466,0.9938357102615466,0.0,0,False
2024-09-30,0.9938357102615466,0.9938357102615466,0.0,0,False
2024-10-01,0.9938357102615466,0.9938357102615466,0.0,0,False
2024-10-02,0.9938357102615466,0.9938357102615466,0.0,0,False
2024-10-03,0.9938357102615466,0.9983824134701619,0.45749042439002796,1,True
2024-10-04,0.9983824134701619,0.9983824134701619,0.0,0,False
2024-10-05,0.9983824134701619,0.9983824134701619,0.0,0,False
2024-10-06,0.9983824134701619,0.9983824134701619,0.0,0,False
2024-10-07,0.9983824134701619,0.9983824134701619,0.0,0,False
2024-10-08,0.9983824134701619,0.9983824134701619,0.0,0,False
2024-10-09,0.9983824134701619,0.9983824134701619,0.0,0,False
2024-10-10,0.9983824134701619,0.9983824134701619,0.0,0,False
2024-10-11,0.9983824134701619,0.9976628736841986,-0.072070558961701,1,True
2024-10-12,0.9976628736841986,0.9981888886420456,0.052724720115571166,0,True
2024-10-13,0.9981888886420456,0.9981888886420456,0.0,0,False
2024-10-14,0.9981888886420456,0.9981888886420456,0.0,0,False
2024-10-15,0.9981888886420456,0.9932104127268487,-0.4987508849121358,2,True
2024-10-16,0.9932104127268487,0.9932104127268487,0.0,0,False
2024-10-17,0.9932104127268487,0.9932104127268487,0.0,0,False
2024-10-18,0.9932104127268487,1.0029553523658155,0.9811556055088211,3,True
2024-10-19,1.0029553523658155,1.001283795140946,-0.16666317408113862,1,True
2024-10-20,1.001283795140946,1.001283795140946,0.0,0,False
2024-10-21,1.001283795140946,1.0059223597822664,0.4632617309728415,1,True
2024-10-22,1.0059223597822664,1.008089814663712,0.21546940083077004,2,True
2024-10-23,1.008089814663712,1.0030631886572616,-0.4986287861788674,2,True
2024-10-24,1.0030631886572616,1.000560732727363,-0.24948138444285117,1,True
2024-10-25,1.000560732727363,1.002666258600353,0.21043458973757367,1,True
2024-10-26,1.002666258600353,1.009426885847306,0.6742649599469352,2,True
2024-10-27,1.009426885847306,1.009426885847306,0.0,0,False
2024-10-28,1.009426885847306,1.009426885847306,0.0,0,False
2024-10-29,1.009426885847306,1.009426885847306,0.0,0,False
2024-10-30,1.009426885847306,1.009426885847306,0.0,0,False
2024-10-31,1.009426885847306,1.009426885847306,0.0,0,False
2024-11-01,1.009426885847306,1.009426885847306,0.0,0,False
2024-11-02,1.009426885847306,1.009426885847306,0.0,0,False
2024-11-03,1.009426885847306,1.009426885847306,0.0,0,False
2024-11-04,1.009426885847306,1.009426885847306,0.0,0,False
2024-11-05,1.009426885847306,1.009426885847306,0.0,0,False
2024-11-06,1.009426885847306,1.009426885847306,0.0,0,False
2024-11-07,1.009426885847306,1.009426885847306,0.0,0,False
2024-11-08,1.009426885847306,1.009426885847306,0.0,0,False
2024-11-09,1.009426885847306,1.0082660979017377,-0.11499475215522859,1,True
2024-11-10,1.0082660979017377,1.0060288929179515,-0.22188636397098005,3,True
2024-11-11,1.0060288929179515,1.007585197299866,0.1546977818301487,3,True
2024-11-12,1.007585197299866,1.0085034444933494,0.09113345411824181,0,True
2024-11-13,1.0085034444933494,1.0085034444933494,0.0,0,False
2024-11-14,1.0085034444933494,1.0096460810212429,0.11330021073627794,1,True
2024-11-15,1.0096460810212429,1.0096460810212429,0.0,0,False
2024-11-16,1.0096460810212429,1.008923967660737,-0.07152143449864479,1,True
2024-11-17,1.008923967660737,1.0184918327553774,0.9483236994383359,2,True
2024-11-18,1.0184918327553774,1.0184918327553774,0.0,0,False
2024-11-19,1.0184918327553774,1.015949127289761,-0.24965398679118733,1,True
2024-11-20,1.015949127289761,1.015949127289761,0.0,0,False
2024-11-21,1.015949127289761,1.015949127289761,0.0,0,False
2024-11-22,1.015949127289761,1.015949127289761,0.0,0,False
2024-11-23,1.015949127289761,1.0186799920141896,0.26879935727821547,1,True
2024-11-24,1.0186799920141896,1.0343038138575098,1.5337320813014088,8,True
2024-11-25,1.0343038138575098,1.0359200369428192,0.15626192842521647,1,True
2024-11-26,1.0359200369428192,1.030752126968899,-0.49887151417319364,2,True
2024-11-27,1.030752126968899,1.034095731367167,0.32438491377169143,2,True
2024-11-28,1.034095731367167,1.034095731367167,0.0,0,False
2024-11-29,1.034095731367167,1.034095731367167,0.0,0,False
2024-11-30,1.034095731367167,1.03896117358843,0.47050210862300546,1,True
2024-12-01,1.03896117358843,1.03896117358843,0.0,0,False
2024-12-02,1.03896117358843,1.041422130973296,0.23686711760038115,1,True
2024-12-03,1.041422130973296,1.0443098892860028,0.27728989300503937,1,True
2024-12-04,1.0443098892860028,1.0428394265634473,-0.14080712417277041,4,True
2024-12-05,1.0428394265634473,1.0460198984710625,0.30498193936683293,1,True
2024-12-06,1.0460198984710625,1.047077191515879,0.1010777181544853,1,True
2024-12-07,1.047077191515879,1.047888204522622,0.07745493964670391,1,True
2024-12-08,1.047888204522622,1.047888204522622,0.0,0,False
2024-12-09,1.047888204522622,1.0452704511695305,-0.24981227403777506,1,True
2024-12-10,1.0452704511695305,1.04113259802388,-0.39586435654245244,5,True
2024-12-11,1.04113259802388,1.040982211670519,-0.014444495700782767,0,True
2024-12-12,1.040982211670519,1.040982211670519,0.0,0,False
2024-12-13,1.040982211670519,1.040982211670519,0.0,0,False
2024-12-14,1.040982211670519,1.040982211670519,0.0,0,False
2024-12-15,1.040982211670519,1.0374582867113558,-0.3385192292102879,2,True
2024-12-16,1.0374582867113558,1.0357946905755075,-0.16035306259123416,0,True
2024-12-17,1.0357946905755075,1.0357946905755075,0.0,0,False
2024-12-18,1.0357946905755075,1.0332094035737565,-0.24959454081722177,1,True
2024-12-19,1.0332094035737565,1.0344092976831727,0.11613271281367687,1,True
2024-12-20,1.0344092976831727,1.036494062140181,0.20154154276046388,2,True
2024-12-21,1.036494062140181,1.036494062140181,0.0,0,False
2024-12-22,1.036494062140181,1.036494062140181,0.0,0,False
2024-12-23,1.036494062140181,1.036494062140181,0.0,0,False
2024-12-24,1.036494062140181,1.036494062140181,0.0,0,False
2024-12-25,1.036494062140181,1.0412389414951457,0.457781624447251,1,True
2024-12-26,1.0412389414951457,1.0411245877767095,-0.010982466548170589,1,True
2024-12-27,1.0411245877767095,1.0411657566526034,0.003954269870987126,0,True
2024-12-28,1.0411657566526034,1.0411657566526034,0.0,0,False
2024-12-29,1.0411657566526034,1.0411657566526034,0.0,0,False
2024-12-30,1.0411657566526034,1.0427595055431602,0.15307350250173268,1,True
2024-12-31,1.0427595055431602,1.0427595055431602,0.0,0,False
