day,start_equity,end_equity,return_pct,entries,active
2021-09-02,1.0,1.0,0.0,0,False
2021-09-03,1.0,1.0,0.0,0,False
2021-09-04,1.0,1.0,0.0,0,False
2021-09-05,1.0,1.0,0.0,0,False
2021-09-06,1.0,1.0,0.0,0,False
2021-09-07,1.0,1.0,0.0,0,False
2021-09-08,1.0,1.0,0.0,0,False
2021-09-09,1.0,1.0,0.0,0,False
2021-09-10,1.0,1.0,0.0,0,False
2021-09-11,1.0,1.0,0.0,0,False
2021-09-12,1.0,1.0,0.0,0,False
2021-09-13,1.0,1.0,0.0,0,False
2021-09-14,1.0,1.0,0.0,0,False
2021-09-15,1.0,1.0,0.0,0,False
2021-09-16,1.0,1.0,0.0,0,False
2021-09-17,1.0,1.0,0.0,0,False
2021-09-18,1.0,1.0,0.0,0,False
2021-09-19,1.0,1.0,0.0,0,False
2021-09-20,1.0,1.0,0.0,0,False
2021-09-21,1.0,1.0,0.0,0,False
2021-09-22,1.0,1.0,0.0,0,False
2021-09-23,1.0,1.0,0.0,0,False
2021-09-24,1.0,1.0,0.0,0,False
2021-09-25,1.0,1.0,0.0,0,False
2021-09-26,1.0,1.0,0.0,0,False
2021-09-27,1.0,1.0,0.0,0,False
2021-09-28,1.0,1.0,0.0,0,False
2021-09-29,1.0,1.0,0.0,0,False
2021-09-30,1.0,1.0,0.0,0,False
2021-10-01,1.0,1.0,0.0,0,False
2021-10-02,1.0,1.0,0.0,0,False
2021-10-03,1.0,1.0,0.0,0,False
2021-10-04,1.0,1.0,0.0,0,False
2021-10-05,1.0,1.0,0.0,0,False
2021-10-06,1.0,0.9900197364997588,-0.9980263500241171,2,True
2021-10-07,0.9900197364997588,0.9900197364997588,0.0,0,False
2021-10-08,0.9900197364997588,0.9900197364997588,0.0,0,False
2021-10-09,0.9900197364997588,0.9900197364997588,0.0,0,False
2021-10-10,0.9900197364997588,0.9900197364997588,0.0,0,False
2021-10-11,0.9900197364997588,0.9900197364997588,0.0,0,False
2021-10-12,0.9900197364997588,0.9900197364997588,0.0,0,False
2021-10-13,0.9900197364997588,0.9988731730880753,0.8942686960583313,1,True
2021-10-14,0.9988731730880753,0.9988731730880753,0.0,0,False
2021-10-15,0.9988731730880753,1.0031606450901993,0.4292308691071334,2,True
2021-10-16,1.0031606450901993,0.9931568613479089,-0.9972264952031629,2,True
2021-10-17,0.9931568613479089,0.9931568613479089,0.0,0,False
2021-10-18,0.9931568613479089,0.9931568613479089,0.0,0,False
2021-10-19,0.9931568613479089,0.9931568613479089,0.0,0,False
2021-10-20,0.9931568613479089,0.9931568613479089,0.0,0,False
2021-10-21,0.9931568613479089,0.9931568613479089,0.0,0,False
2021-10-22,0.9931568613479089,0.9931568613479089,0.0,0,False
2021-10-23,0.9931568613479089,0.9931568613479089,0.0,0,False
2021-10-24,0.9931568613479089,0.9931568613479089,0.0,0,False
2021-10-25,0.9931568613479089,0.999862416156716,0.6751758025118404,1,True
2021-10-26,0.999862416156716,0.999862416156716,0.0,0,False
2021-10-27,0.999862416156716,1.0227269123114962,2.2867642372904617,4,True
2021-10-28,1.0227269123114962,1.0213028190193854,-0.13924472652158126,0,True
2021-10-29,1.0213028190193854,1.0213028190193854,0.0,0,False
2021-10-30,1.0213028190193854,1.0196326987859656,-0.16352840727721363,1,True
2021-10-31,1.0196326987859656,1.0080208159807622,-1.1388299746594277,4,True
2021-11-01,1.0080208159807622,1.0149088516477807,0.6833227605837378,2,True
2021-11-02,1.0149088516477807,1.0149088516477807,0.0,0,False
2021-11-03,1.0149088516477807,1.0149088516477807,0.0,0,False
2021-11-04,1.0149088516477807,1.0135001604872744,-0.13879977085815565,1,True
2021-11-05,1.0135001604872744,1.0135001604872744,0.0,0,False
2021-11-06,1.0135001604872744,1.0135001604872744,0.0,0,False
2021-11-07,1.0135001604872744,1.0135001604872744,0.0,0,False
2021-11-08,1.0135001604872744,1.0135001604872744,0.0,0,False
2021-11-09,1.0135001604872744,1.0135001604872744,0.0,0,False
2021-11-10,1.0135001604872744,1.0135001604872744,0.0,0,False
2021-11-11,1.0135001604872744,1.036174080589172,2.237189591661859,6,True
2021-11-12,1.036174080589172,1.0309998419089352,-0.49935997986888525,1,True
2021-11-13,1.0309998419089352,1.0309998419089352,0.0,0,False
2021-11-14,1.0309998419089352,1.0309998419089352,0.0,0,False
2021-11-15,1.0309998419089352,1.0309998419089352,0.0,0,False
2021-11-16,1.0309998419089352,1.0677777062171807,3.567203680666897,4,True
2021-11-17,1.0677777062171807,1.0677777062171807,0.0,0,False
2021-11-18,1.0677777062171807,1.062442021496927,-0.4996999552609571,1,True
2021-11-19,1.062442021496927,1.062442021496927,0.0,0,False
2021-11-20,1.062442021496927,1.062442021496927,0.0,0,False
2021-11-21,1.062442021496927,1.062442021496927,0.0,0,False
2021-11-22,1.062442021496927,1.062442021496927,0.0,0,False
2021-11-23,1.062442021496927,1.062442021496927,0.0,0,False
2021-11-24,1.062442021496927,1.062442021496927,0.0,0,False
2021-11-25,1.062442021496927,1.0571363736874766,-0.4993823382451579,1,True
2021-11-26,1.0571363736874766,1.0630783307550682,0.5620804671458757,6,True
2021-11-27,1.0630783307550682,1.0603459373044404,-0.2570265399622129,0,True
2021-11-28,1.0603459373044404,1.0550529215051039,-0.499178203369377,1,True
2021-11-29,1.0550529215051039,1.0550529215051039,0.0,0,False
2021-11-30,1.0550529215051039,1.0550529215051039,0.0,0,False
2021-12-01,1.0550529215051039,1.0645602426254186,0.9011226760788249,1,True
2021-12-02,1.0645602426254186,1.0672291352997867,0.2507037711446003,2,True
2021-12-03,1.0672291352997867,1.0561250926540213,-1.0404553510100945,1,True
2021-12-04,1.0561250926540213,1.043362609592178,-1.2084253229673325,13,True
2021-12-05,1.043362609592178,1.0441247414627912,0.0730457334398027,0,True
2021-12-06,1.0441247414627912,1.0441247414627912,0.0,0,False
2021-12-07,1.0441247414627912,1.0441247414627912,0.0,0,False
2021-12-08,1.0441247414627912,1.0441247414627912,0.0,0,False
2021-12-09,1.0441247414627912,1.0441247414627912,0.0,0,False
2021-12-10,1.0441247414627912,1.0441247414627912,0.0,0,False
2021-12-11,1.0441247414627912,1.0441247414627912,0.0,0,False
2021-12-12,1.0441247414627912,1.0441247414627912,0.0,0,False
2021-12-13,1.0441247414627912,1.0441247414627912,0.0,0,False
2021-12-14,1.0441247414627912,1.0441247414627912,0.0,0,False
2021-12-15,1.0441247414627912,1.0441247414627912,0.0,0,False
2021-12-16,1.0441247414627912,1.0441247414627912,0.0,0,False
2021-12-17,1.0441247414627912,1.0431617656134606,-0.09222804623721936,1,True
2021-12-18,1.0431617656134606,1.0431617656134606,0.0,0,False
2021-12-19,1.0431617656134606,1.0431617656134606,0.0,0,False
2021-12-20,1.0431617656134606,1.0431617656134606,0.0,0,False
2021-12-21,1.0431617656134606,1.0431617656134606,0.0,0,False
2021-12-22,1.0431617656134606,1.0431617656134606,0.0,0,False
2021-12-23,1.0431617656134606,1.0431617656134606,0.0,0,False
2021-12-24,1.0431617656134606,1.0431617656134606,0.0,0,False
2021-12-25,1.0431617656134606,1.0431617656134606,0.0,0,False
2021-12-26,1.0431617656134606,1.0431617656134606,0.0,0,False
2021-12-27,1.0431617656134606,1.0431617656134606,0.0,0,False
2021-12-28,1.0431617656134606,1.0431617656134606,0.0,0,False
2021-12-29,1.0431617656134606,1.0431617656134606,0.0,0,False
2021-12-30,1.0431617656134606,1.0431617656134606,0.0,0,False
2021-12-31,1.0431617656134606,1.0431617656134606,0.0,0,False
2022-01-01,1.0431617656134606,1.0431617656134606,0.0,0,False
2022-01-02,1.0431617656134606,1.0431617656134606,0.0,0,False
2022-01-03,1.0431617656134606,1.0431617656134606,0.0,0,False
2022-01-04,1.0431617656134606,1.0431617656134606,0.0,0,False
2022-01-05,1.0431617656134606,1.0431617656134606,0.0,0,False
2022-01-06,1.0431617656134606,1.0379605548896735,-0.4986005905544655,1,True
2022-01-07,1.0379605548896735,1.0379605548896735,0.0,0,False
2022-01-08,1.0379605548896735,1.0379605548896735,0.0,0,False
2022-01-09,1.0379605548896735,1.0379605548896735,0.0,0,False
2022-01-10,1.0379605548896735,1.0379605548896735,0.0,0,False
2022-01-11,1.0379605548896735,1.0379605548896735,0.0,0,False
2022-01-12,1.0379605548896735,1.0379605548896735,0.0,0,False
2022-01-13,1.0379605548896735,1.0379605548896735,0.0,0,False
2022-01-14,1.0379605548896735,1.0379605548896735,0.0,0,False
2022-01-15,1.0379605548896735,1.0379605548896735,0.0,0,False
2022-01-16,1.0379605548896735,1.0379605548896735,0.0,0,False
2022-01-17,1.0379605548896735,1.0379605548896735,0.0,0,False
2022-01-18,1.0379605548896735,1.0379605548896735,0.0,0,False
2022-01-19,1.0379605548896735,1.0379605548896735,0.0,0,False
2022-01-20,1.0379605548896735,1.0379605548896735,0.0,0,False
2022-01-21,1.0379605548896735,1.0379605548896735,0.0,0,False
2022-01-22,1.0379605548896735,1.0611517071445922,2.2342999592487978,3,True
2022-01-23,1.0611517071445922,1.063125031442517,0.1859606203937325,0,True
2022-01-24,1.063125031442517,1.063125031442517,0.0,0,False
2022-01-25,1.063125031442517,1.063125031442517,0.0,0,False
2022-01-26,1.063125031442517,1.063125031442517,0.0,0,False
2022-01-27,1.063125031442517,1.063125031442517,0.0,0,False
2022-01-28,1.063125031442517,1.063125031442517,0.0,0,False
2022-01-29,1.063125031442517,1.063125031442517,0.0,0,False
2022-01-30,1.063125031442517,1.063125031442517,0.0,0,False
2022-01-31,1.063125031442517,1.0665979736897977,0.3266729824401349,1,True
2022-02-01,1.0665979736897977,1.0665979736897977,0.0,0,False
2022-02-02,1.0665979736897977,1.0665979736897977,0.0,0,False
2022-02-03,1.0665979736897977,1.0665979736897977,0.0,0,False
2022-02-04,1.0665979736897977,1.0665979736897977,0.0,0,False
2022-02-05,1.0665979736897977,1.0665979736897977,0.0,0,False
2022-02-06,1.0665979736897977,1.0665979736897977,0.0,0,False
2022-02-07,1.0665979736897977,1.0665979736897977,0.0,0,False
2022-02-08,1.0665979736897977,1.0665979736897977,0.0,0,False
2022-02-09,1.0665979736897977,1.0665979736897977,0.0,0,False
2022-02-10,1.0665979736897977,1.0683904866653489,0.16805891439584109,2,True
2022-02-11,1.0683904866653489,1.055938736527802,-1.1654680842779874,0,True
2022-02-12,1.055938736527802,1.055938736527802,0.0,0,False
2022-02-13,1.055938736527802,1.055938736527802,0.0,0,False
2022-02-14,1.055938736527802,1.055938736527802,0.0,0,False
2022-02-15,1.055938736527802,1.055938736527802,0.0,0,False
2022-02-16,1.055938736527802,1.055938736527802,0.0,0,False
2022-02-17,1.055938736527802,1.055938736527802,0.0,0,False
2022-02-18,1.055938736527802,1.055938736527802,0.0,0,False
2022-02-19,1.055938736527802,1.055938736527802,0.0,0,False
2022-02-20,1.055938736527802,1.055938736527802,0.0,0,False
2022-02-21,1.055938736527802,1.055938736527802,0.0,0,False
2022-02-22,1.055938736527802,1.055938736527802,0.0,0,False
2022-02-23,1.055938736527802,1.055938736527802,0.0,0,False
2022-02-24,1.055938736527802,1.055938736527802,0.0,0,False
2022-02-25,1.055938736527802,1.055938736527802,0.0,0,False
2022-02-26,1.055938736527802,1.055938736527802,0.0,0,False
2022-02-27,1.055938736527802,1.055938736527802,0.0,0,False
2022-02-28,1.055938736527802,1.055938736527802,0.0,0,False
2022-03-01,1.055938736527802,1.055938736527802,0.0,0,False
2022-03-02,1.055938736527802,1.055938736527802,0.0,0,False
2022-03-03,1.055938736527802,1.055938736527802,0.0,0,False
2022-03-04,1.055938736527802,1.055938736527802,0.0,0,False
2022-03-05,1.055938736527802,1.055938736527802,0.0,0,False
2022-03-06,1.055938736527802,1.055938736527802,0.0,0,False
2022-03-07,1.055938736527802,1.055938736527802,0.0,0,False
2022-03-08,1.055938736527802,1.055938736527802,0.0,0,False
2022-03-09,1.055938736527802,1.055938736527802,0.0,0,False
2022-03-10,1.055938736527802,1.055938736527802,0.0,0,False
2022-03-11,1.055938736527802,1.055938736527802,0.0,0,False
2022-03-12,1.055938736527802,1.055938736527802,0.0,0,False
2022-03-13,1.055938736527802,1.055938736527802,0.0,0,False
2022-03-14,1.055938736527802,1.055938736527802,0.0,0,False
2022-03-15,1.055938736527802,1.055938736527802,0.0,0,False
2022-03-16,1.055938736527802,1.055938736527802,0.0,0,False
2022-03-17,1.055938736527802,1.055938736527802,0.0,0,False
2022-03-18,1.055938736527802,1.055938736527802,0.0,0,False
2022-03-19,1.055938736527802,1.055938736527802,0.0,0,False
2022-03-20,1.055938736527802,1.055938736527802,0.0,0,False
2022-03-21,1.055938736527802,1.055938736527802,0.0,0,False
2022-03-22,1.055938736527802,1.055938736527802,0.0,0,False
2022-03-23,1.055938736527802,1.055938736527802,0.0,0,False
2022-03-24,1.055938736527802,1.055938736527802,0.0,0,False
2022-03-25,1.055938736527802,1.055938736527802,0.0,0,False
2022-03-26,1.055938736527802,1.0588590546674923,0.276561322988611,1,True
2022-03-27,1.0588590546674923,1.0588590546674923,0.0,0,False
2022-03-28,1.0588590546674923,1.0688132298999489,0.9400850083472578,1,True
2022-03-29,1.0688132298999489,1.0688132298999489,0.0,0,False
2022-03-30,1.0688132298999489,1.063472711259054,-0.4996680890069771,1,True
2022-03-31,1.063472711259054,1.063472711259054,0.0,0,False
2022-04-01,1.063472711259054,1.0611643883930315,-0.21705520429289304,1,True
2022-04-02,1.0611643883930315,1.0611643883930315,0.0,0,False
2022-04-03,1.0611643883930315,1.0602641418380467,-0.08483572996150768,1,True
2022-04-04,1.0602641418380467,1.0549719268643305,-0.49914118236062954,1,True
2022-04-05,1.0549719268643305,1.0549719268643305,0.0,0,False
2022-04-06,1.0549719268643305,1.0571914746060591,0.2103892705776378,1,True
2022-04-07,1.0571914746060591,1.0519160628630073,-0.4990024862825848,1,True
2022-04-08,1.0519160628630073,1.0519160628630073,0.0,0,False
2022-04-09,1.0519160628630073,1.0519160628630073,0.0,0,False
2022-04-10,1.0519160628630073,1.0519160628630073,0.0,0,False
2022-04-11,1.0519160628630073,1.0519160628630073,0.0,0,False
2022-04-12,1.0519160628630073,1.0519160628630073,0.0,0,False
2022-04-13,1.0519160628630073,1.0519160628630073,0.0,0,False
2022-04-14,1.0519160628630073,1.0519160628630073,0.0,0,False
2022-04-15,1.0519160628630073,1.0519160628630073,0.0,0,False
2022-04-16,1.0519160628630073,1.0519160628630073,0.0,0,False
2022-04-17,1.0519160628630073,1.0519160628630073,0.0,0,False
2022-04-18,1.0519160628630073,1.0565115072530733,0.4368641712304111,1,True
2022-04-19,1.0565115072530733,1.0542569357947964,-0.21339771907821214,0,True
2022-04-20,1.0542569357947964,1.0542569357947964,0.0,0,False
2022-04-21,1.0542569357947964,1.0542569357947964,0.0,0,False
2022-04-22,1.0542569357947964,1.0542569357947964,0.0,0,False
2022-04-23,1.0542569357947964,1.0542569357947964,0.0,0,False
2022-04-24,1.0542569357947964,1.0542569357947964,0.0,0,False
2022-04-25,1.0542569357947964,1.0542569357947964,0.0,0,False
2022-04-26,1.0542569357947964,1.0542569357947964,0.0,0,False
2022-04-27,1.0542569357947964,1.0489941440496513,-0.4991944151809147,1,True
2022-04-28,1.0489941440496513,1.0489941440496513,0.0,0,False
2022-04-29,1.0489941440496513,1.0437553351057565,-0.4994126014536526,1,True
2022-04-30,1.0437553351057565,1.0437553351057565,0.0,0,False
2022-05-01,1.0437553351057565,1.055813995634473,1.1553148638511868,4,True
2022-05-02,1.055813995634473,1.055813995634473,0.0,0,False
2022-05-03,1.055813995634473,1.055813995634473,0.0,0,False
2022-05-04,1.055813995634473,1.0505418905380073,-0.4993403306135846,1,True
2022-05-05,1.0505418905380073,1.0505418905380073,0.0,0,False
2022-05-06,1.0505418905380073,1.0400810698859038,-0.9957547382281273,2,True
2022-05-07,1.0400810698859038,1.0400810698859038,0.0,0,False
2022-05-08,1.0400810698859038,1.0400810698859038,0.0,0,False
2022-05-09,1.0400810698859038,1.0400810698859038,0.0,0,False
2022-05-10,1.0400810698859038,1.018562097449237,-2.0689706850474,7,True
2022-05-11,1.018562097449237,1.0161532247643674,-0.23649738105336882,9,True
2022-05-12,1.0161532247643674,1.0480315638453968,3.1371586788421,8,True
2022-05-13,1.0480315638453968,1.0487961404880148,0.0729535892805222,0,True
2022-05-14,1.0487961404880148,1.045355020809382,-0.3281018632497634,2,True
2022-05-15,1.045355020809382,1.0401384103827878,-0.49902763393772087,1,True
2022-05-16,1.0401384103827878,1.0349485937884053,-0.49895442208239826,1,True
2022-05-17,1.0349485937884053,1.0349485937884053,0.0,0,False
2022-05-18,1.0349485937884053,1.0349485937884053,0.0,0,False
2022-05-19,1.0349485937884053,1.029782828543851,-0.49913254393100237,1,True
2022-05-20,1.029782828543851,1.0246461686463302,-0.4988100165531306,1,True
2022-05-21,1.0246461686463302,1.0246461686463302,0.0,0,False
2022-05-22,1.0246461686463302,1.0246461686463302,0.0,0,False
2022-05-23,1.0246461686463302,1.0195323554256828,-0.49908089027486113,1,True
2022-05-24,1.0195323554256828,1.0184801969614081,-0.10320010529095702,2,True
2022-05-25,1.0184801969614081,1.0333947434122468,1.464392385373392,1,True
2022-05-26,1.0333947434122468,1.0282347448925473,-0.49932502101387444,1,True
2022-05-27,1.0282347448925473,1.0230997391105587,-0.49940014257398024,1,True
2022-05-28,1.0230997391105587,1.0230997391105587,0.0,0,False
2022-05-29,1.0230997391105587,1.0230997391105587,0.0,0,False
2022-05-30,1.0230997391105587,1.0230997391105587,0.0,0,False
2022-05-31,1.0230997391105587,1.0078059565880029,-1.4948476612702155,3,True
2022-06-01,1.0078059565880029,1.0078059565880029,0.0,0,False
2022-06-02,1.0078059565880029,1.0027746311756376,-0.4992355303593543,1,True
2022-06-03,1.0027746311756376,1.0027746311756376,0.0,0,False
2022-06-04,1.0027746311756376,1.0027746311756376,0.0,0,False
2022-06-05,1.0027746311756376,1.0027746311756376,0.0,0,False
2022-06-06,1.0027746311756376,1.0027746311756376,0.0,0,False
2022-06-07,1.0027746311756376,1.0043128873692655,0.15339999096550816,1,True
2022-06-08,1.0043128873692655,1.0046649906658358,0.03505912360566299,1,True
2022-06-09,1.0046649906658358,1.0046649906658358,0.0,0,False
2022-06-10,1.0046649906658358,1.0125248446895303,0.7823358131037628,2,True
2022-06-11,1.0125248446895303,1.0074644424508388,-0.49978055010030387,1,True
2022-06-12,1.0074644424508388,1.0192682051948856,1.171630704437776,4,True
2022-06-13,1.0192682051948856,1.0091861564644122,-0.989145808638825,3,True
2022-06-14,1.0091861564644122,1.0120165715127758,0.2804651084671761,1,True
2022-06-15,1.0120165715127758,1.0120165715127758,0.0,0,False
2022-06-16,1.0120165715127758,1.040745580496304,2.8387883945994785,4,True
2022-06-17,1.040745580496304,1.0405613674434973,-0.01770010425783397,1,True
2022-06-18,1.0405613674434973,1.0198484101409737,-1.990556054700754,4,True
2022-06-19,1.0198484101409737,1.0198484101409737,0.0,0,False
2022-06-20,1.0198484101409737,1.0198484101409737,0.0,0,False
2022-06-21,1.0198484101409737,1.0198484101409737,0.0,0,False
2022-06-22,1.0198484101409737,1.0198484101409737,0.0,0,False
2022-06-23,1.0198484101409737,1.0198484101409737,0.0,0,False
2022-06-24,1.0198484101409737,1.0198484101409737,0.0,0,False
2022-06-25,1.0198484101409737,1.0198484101409737,0.0,0,False
2022-06-26,1.0198484101409737,1.0198484101409737,0.0,0,False
2022-06-27,1.0198484101409737,1.0198484101409737,0.0,0,False
2022-06-28,1.0198484101409737,1.0224010309716935,0.2502941422801275,1,True
2022-06-29,1.0224010309716935,1.0147577580486433,-0.7475807135861379,0,True
2022-06-30,1.0147577580486433,1.0147577580486433,0.0,0,False
2022-07-01,1.0147577580486433,1.0147577580486433,0.0,0,False
2022-07-02,1.0147577580486433,1.0147577580486433,0.0,0,False
2022-07-03,1.0147577580486433,1.0128993596944131,-0.183137141794687,1,True
2022-07-04,1.0128993596944131,1.0128993596944131,0.0,0,False
2022-07-05,1.0128993596944131,1.0128993596944131,0.0,0,False
2022-07-06,1.0128993596944131,1.0128993596944131,0.0,0,False
2022-07-07,1.0128993596944131,1.0128993596944131,0.0,0,False
2022-07-08,1.0128993596944131,1.0128993596944131,0.0,0,False
2022-07-09,1.0128993596944131,1.0128993596944131,0.0,0,False
2022-07-10,1.0128993596944131,1.0128993596944131,0.0,0,False
2022-07-11,1.0128993596944131,1.0128993596944131,0.0,0,False
2022-07-12,1.0128993596944131,1.0128993596944131,0.0,0,False
2022-07-13,1.0128993596944131,1.0309613381852372,1.7831957654977026,4,True
2022-07-14,1.0309613381852372,1.0481972891851021,1.67183291569446,0,True
2022-07-15,1.0481972891851021,1.0481972891851021,0.0,0,False
2022-07-16,1.0481972891851021,1.0481972891851021,0.0,0,False
2022-07-17,1.0481972891851021,1.0481972891851021,0.0,0,False
2022-07-18,1.0481972891851021,1.0481972891851021,0.0,0,False
2022-07-19,1.0481972891851021,1.045443167601428,-0.26274839785316306,2,True
2022-07-20,1.045443167601428,1.045443167601428,0.0,0,False
2022-07-21,1.045443167601428,1.0355219305018888,-0.9489982245808326,3,True
2022-07-22,1.0355219305018888,1.0355219305018888,0.0,0,False
2022-07-23,1.0355219305018888,1.0355219305018888,0.0,0,False
2022-07-24,1.0355219305018888,1.0449160717011776,0.9071890147933193,1,True
2022-07-25,1.0449160717011776,1.0466142051441136,0.16251386010086577,1,True
2022-07-26,1.0466142051441136,1.0466142051441136,0.0,0,False
2022-07-27,1.0466142051441136,1.0466142051441136,0.0,0,False
2022-07-28,1.0466142051441136,1.0466142051441136,0.0,0,False
2022-07-29,1.0466142051441136,1.0413870924280364,-0.4994307062130443,1,True
2022-07-30,1.0413870924280364,1.0413870924280364,0.0,0,False
2022-07-31,1.0413870924280364,1.0361820626505418,-0.4998170051598083,1,True
2022-08-01,1.0361820626505418,1.0361820626505418,0.0,0,False
2022-08-02,1.0361820626505418,1.0361820626505418,0.0,0,False
2022-08-03,1.0361820626505418,1.0338882431722562,-0.22137224344705997,1,True
2022-08-04,1.0338882431722562,1.0338882431722562,0.0,0,False
2022-08-05,1.0338882431722562,1.0338882431722562,0.0,0,False
2022-08-06,1.0338882431722562,1.0338882431722562,0.0,0,False
2022-08-07,1.0338882431722562,1.0338882431722562,0.0,0,False
2022-08-08,1.0338882431722562,1.0338882431722562,0.0,0,False
2022-08-09,1.0338882431722562,1.0369984869017803,0.3008297802072901,1,True
2022-08-10,1.0369984869017803,1.0369984869017803,0.0,0,False
2022-08-11,1.0369984869017803,1.0369984869017803,0.0,0,False
2022-08-12,1.0369984869017803,1.0375600977825645,0.054157348142536144,1,True
2022-08-13,1.0375600977825645,1.0375600977825645,0.0,0,False
2022-08-14,1.0375600977825645,1.0375600977825645,0.0,0,False
2022-08-15,1.0375600977825645,1.0375600977825645,0.0,0,False
2022-08-16,1.0375600977825645,1.0372762410493763,-0.027358100392915752,1,True
2022-08-17,1.0372762410493763,1.0372762410493763,0.0,0,False
2022-08-18,1.0372762410493763,1.0372762410493763,0.0,0,False
2022-08-19,1.0372762410493763,1.0195651933251724,-1.7074571867457755,8,True
2022-08-20,1.0195651933251724,1.0265127507556113,0.6814235593685325,0,True
2022-08-21,1.0265127507556113,1.0265127507556113,0.0,0,False
2022-08-22,1.0265127507556113,1.0265127507556113,0.0,0,False
2022-08-23,1.0265127507556113,1.0265127507556113,0.0,0,False
2022-08-24,1.0265127507556113,1.0265127507556113,0.0,0,False
2022-08-25,1.0265127507556113,1.0265127507556113,0.0,0,False
2022-08-26,1.0265127507556113,1.0265127507556113,0.0,0,False
2022-08-27,1.0265127507556113,1.0213879867495568,-0.499240170400439,1,True
2022-08-28,1.0213879867495568,1.022498462407847,0.10872221650306546,1,True
2022-08-29,1.022498462407847,1.019250870755762,-0.3176133531230363,0,True
2022-08-30,1.019250870755762,1.019250870755762,0.0,0,False
2022-08-31,1.019250870755762,1.019250870755762,0.0,0,False
2022-09-01,1.019250870755762,1.019250870755762,0.0,0,False
2022-09-02,1.019250870755762,1.019250870755762,0.0,0,False
2022-09-03,1.019250870755762,1.019250870755762,0.0,0,False
2022-09-04,1.019250870755762,1.019250870755762,0.0,0,False
2022-09-05,1.019250870755762,1.019250870755762,0.0,0,False
2022-09-06,1.019250870755762,1.019250870755762,0.0,0,False
2022-09-07,1.019250870755762,1.0084725947423832,-1.0574703758052029,4,True
2022-09-08,1.0084725947423832,1.0084725947423832,0.0,0,False
2022-09-09,1.0084725947423832,1.0084725947423832,0.0,0,False
2022-09-10,1.0084725947423832,1.0084725947423832,0.0,0,False
2022-09-11,1.0084725947423832,1.0084725947423832,0.0,0,False
2022-09-12,1.0084725947423832,1.0084725947423832,0.0,0,False
2022-09-13,1.0084725947423832,0.9988236068706795,-0.9567922739802892,4,True
2022-09-14,0.9988236068706795,0.9866747232078014,-1.216319235879959,1,True
2022-09-15,0.9866747232078014,0.9955457708458187,0.8990853246120034,1,True
2022-09-16,0.9955457708458187,0.9955457708458187,0.0,0,False
2022-09-17,0.9955457708458187,0.9955457708458187,0.0,0,False
2022-09-18,0.9955457708458187,0.9955457708458187,0.0,0,False
2022-09-19,0.9955457708458187,1.0024947118436427,0.6980031658333496,5,True
2022-09-20,1.0024947118436427,1.0024947118436427,0.0,0,False
2022-09-21,1.0024947118436427,1.0024947118436427,0.0,0,False
2022-09-22,1.0024947118436427,1.0024947118436427,0.0,0,False
2022-09-23,1.0024947118436427,1.0024947118436427,0.0,0,False
2022-09-24,1.0024947118436427,1.0024947118436427,0.0,0,False
2022-09-25,1.0024947118436427,1.0024947118436427,0.0,0,False
2022-09-26,1.0024947118436427,1.0024947118436427,0.0,0,False
2022-09-27,1.0024947118436427,1.0024947118436427,0.0,0,False
2022-09-28,1.0024947118436427,1.0024947118436427,0.0,0,False
2022-09-29,1.0024947118436427,1.0024947118436427,0.0,0,False
2022-09-30,1.0024947118436427,1.0024947118436427,0.0,0,False
2022-10-01,1.0024947118436427,1.0024947118436427,0.0,0,False
2022-10-02,1.0024947118436427,1.0024947118436427,0.0,0,False
2022-10-03,1.0024947118436427,1.0024947118436427,0.0,0,False
2022-10-04,1.0024947118436427,1.0024947118436427,0.0,0,False
2022-10-05,1.0024947118436427,1.0024947118436427,0.0,0,False
2022-10-06,1.0024947118436427,1.0024947118436427,0.0,0,False
2022-10-07,1.0024947118436427,1.0024947118436427,0.0,0,False
2022-10-08,1.0024947118436427,1.0024947118436427,0.0,0,False
2022-10-09,1.0024947118436427,1.0024947118436427,0.0,0,False
2022-10-10,1.0024947118436427,0.9974892513310369,-0.4993004405380308,1,True
2022-10-11,0.9974892513310369,1.0313920313668254,3.398811565192217,4,True
2022-10-12,1.0313920313668254,1.0313920313668254,0.0,0,False
2022-10-13,1.0313920313668254,1.0313920313668254,0.0,0,False
2022-10-14,1.0313920313668254,1.0313920313668254,0.0,0,False
2022-10-15,1.0313920313668254,1.0313920313668254,0.0,0,False
2022-10-16,1.0313920313668254,1.0313920313668254,0.0,0,False
2022-10-17,1.0313920313668254,1.0313920313668254,0.0,0,False
2022-10-18,1.0313920313668254,1.0313920313668254,0.0,0,False
2022-10-19,1.0313920313668254,1.0313920313668254,0.0,0,False
2022-10-20,1.0313920313668254,1.0377053293806153,0.6121142903754428,1,True
2022-10-21,1.0377053293806153,1.0377053293806153,0.0,0,False
2022-10-22,1.0377053293806153,1.0377053293806153,0.0,0,False
2022-10-23,1.0377053293806153,1.0377053293806153,0.0,0,False
2022-10-24,1.0377053293806153,1.0377053293806153,0.0,0,False
2022-10-25,1.0377053293806153,1.0377053293806153,0.0,0,False
2022-10-26,1.0377053293806153,1.0377053293806153,0.0,0,False
2022-10-27,1.0377053293806153,1.0377053293806153,0.0,0,False
2022-10-28,1.0377053293806153,1.0377053293806153,0.0,0,False
2022-10-29,1.0377053293806153,1.0377053293806153,0.0,0,False
2022-10-30,1.0377053293806153,1.0377053293806153,0.0,0,False
2022-10-31,1.0377053293806153,1.0377053293806153,0.0,0,False
2022-11-01,1.0377053293806153,1.0377053293806153,0.0,0,False
2022-11-02,1.0377053293806153,1.0470068847956617,0.8963580654055558,1,True
2022-11-03,1.0470068847956617,1.0462549800678551,-0.0718146880145265,3,True
2022-11-04,1.0462549800678551,1.034981489709073,-1.0775088839291347,5,True
2022-11-05,1.034981489709073,1.0361444479831832,0.11236512784755792,1,True
2022-11-06,1.0361444479831832,1.0361444479831832,0.0,0,False
2022-11-07,1.0361444479831832,1.0323563881040476,-0.36559187152996886,2,True
2022-11-08,1.0323563881040476,1.026138806998634,-0.602270802705307,5,True
2022-11-09,1.026138806998634,0.9940690409392637,-3.1252853747117726,14,True
2022-11-10,0.9940690409392637,1.0239090751881466,3.001807019428737,5,True
2022-11-11,1.0239090751881466,1.0461803006418127,2.175117497574064,5,True
2022-11-12,1.0461803006418127,1.0440415881967575,-0.204430578911019,2,True
2022-11-13,1.0440415881967575,1.0388314441421043,-0.49903606461233485,1,True
2022-11-14,1.0388314441421043,1.0390283456602722,0.018954135367987845,2,True
2022-11-15,1.0390283456602722,1.0390283456602722,0.0,0,False
2022-11-16,1.0390283456602722,1.0390283456602722,0.0,0,False
2022-11-17,1.0390283456602722,1.0390283456602722,0.0,0,False
2022-11-18,1.0390283456602722,1.0390283456602722,0.0,0,False
2022-11-19,1.0390283456602722,1.0395092858399626,0.046287493666463675,2,True
2022-11-20,1.0395092858399626,1.0352240336089236,-0.4122379943509946,1,True
2022-11-21,1.0352240336089236,1.0287737928031437,-0.6230768023510302,1,True
2022-11-22,1.0287737928031437,1.0287737928031437,0.0,0,False
2022-11-23,1.0287737928031437,1.0287737928031437,0.0,0,False
2022-11-24,1.0287737928031437,1.0287737928031437,0.0,0,False
2022-11-25,1.0287737928031437,1.0284360353970403,-0.03283106631081223,1,True
2022-11-26,1.0284360353970403,1.0284360353970403,0.0,0,False
2022-11-27,1.0284360353970403,1.0284360353970403,0.0,0,False
2022-11-28,1.0284360353970403,1.0236920122039173,-0.46128519711889915,2,True
2022-11-29,1.0236920122039173,1.0236920122039173,0.0,0,False
2022-11-30,1.0236920122039173,1.0236920122039173,0.0,0,False
2022-12-01,1.0236920122039173,1.0235945068694041,-0.009524870112376238,1,True
2022-12-02,1.0235945068694041,1.0222848002033753,-0.1279517091230309,1,True
2022-12-03,1.0222848002033753,1.0222848002033753,0.0,0,False
2022-12-04,1.0222848002033753,1.0216213110585313,-0.06490257359906826,3,True
2022-12-05,1.0216213110585313,1.0239694666187764,0.22984598449813376,1,True
2022-12-06,1.0239694666187764,1.0223433168893157,-0.1588084198282158,0,True
2022-12-07,1.0223433168893157,1.0223433168893157,0.0,0,False
2022-12-08,1.0223433168893157,1.017245522047171,-0.49863825174264464,1,True
2022-12-09,1.017245522047171,1.017245522047171,0.0,0,False
2022-12-10,1.017245522047171,1.017245522047171,0.0,0,False
2022-12-11,1.017245522047171,1.017245522047171,0.0,0,False
2022-12-12,1.017245522047171,1.017245522047171,0.0,0,False
2022-12-13,1.017245522047171,1.017245522047171,0.0,0,False
2022-12-14,1.017245522047171,1.017245522047171,0.0,0,False
2022-12-15,1.017245522047171,1.017245522047171,0.0,0,False
2022-12-16,1.017245522047171,1.017245522047171,0.0,0,False
2022-12-17,1.017245522047171,1.0336859331095463,1.61616942085816,4,True
2022-12-18,1.0336859331095463,1.0336859331095463,0.0,0,False
2022-12-19,1.0336859331095463,1.0336859331095463,0.0,0,False
2022-12-20,1.0336859331095463,1.0336859331095463,0.0,0,False
2022-12-21,1.0336859331095463,1.0336859331095463,0.0,0,False
2022-12-22,1.0336859331095463,1.0336859331095463,0.0,0,False
2022-12-23,1.0336859331095463,1.0336859331095463,0.0,0,False
2022-12-24,1.0336859331095463,1.0336859331095463,0.0,0,False
2022-12-25,1.0336859331095463,1.0336859331095463,0.0,0,False
2022-12-26,1.0336859331095463,1.0336859331095463,0.0,0,False
2022-12-27,1.0336859331095463,1.0336859331095463,0.0,0,False
2022-12-28,1.0336859331095463,1.0377105450102064,0.3893457163099079,1,True
2022-12-29,1.0377105450102064,1.0362008662435764,-0.14548168310414278,0,True
2022-12-30,1.0362008662435764,1.0362008662435764,0.0,0,False
2022-12-31,1.0362008662435764,1.0362008662435764,0.0,0,False
2023-01-01,1.0362008662435764,1.0362008662435764,0.0,0,False
2023-01-02,1.0362008662435764,1.0367577450431207,0.05374235996955523,1,True
2023-01-03,1.0367577450431207,1.036893814919427,0.013124558457056068,0,True
2023-01-04,1.036893814919427,1.036893814919427,0.0,0,False
2023-01-05,1.036893814919427,1.036893814919427,0.0,0,False
2023-01-06,1.036893814919427,1.036893814919427,0.0,0,False
2023-01-07,1.036893814919427,1.036893814919427,0.0,0,False
2023-01-08,1.036893814919427,1.036893814919427,0.0,0,False
2023-01-09,1.036893814919427,1.036893814919427,0.0,0,False
2023-01-10,1.036893814919427,1.0338337773787343,-0.2951158061378134,2,True
2023-01-11,1.0338337773787343,1.034891492981965,0.10231002569025538,0,True
2023-01-12,1.034891492981965,1.034891492981965,0.0,0,False
2023-01-13,1.034891492981965,1.034891492981965,0.0,0,False
2023-01-14,1.034891492981965,1.029295909634914,-0.5406927571631526,3,True
2023-01-15,1.029295909634914,1.031462524019716,0.21049480178838564,1,True
2023-01-16,1.031462524019716,1.031462524019716,0.0,0,False
2023-01-17,1.031462524019716,1.031462524019716,0.0,0,False
2023-01-18,1.031462524019716,1.031462524019716,0.0,0,False
2023-01-19,1.031462524019716,1.026314149513397,-0.49913345239681606,1,True
2023-01-20,1.026314149513397,1.026314149513397,0.0,0,False
2023-01-21,1.026314149513397,1.0282752481830844,0.19108171417272501,1,True
2023-01-22,1.0282752481830844,1.0272342524716709,-0.10123706792056764,0,True
2023-01-23,1.0272342524716709,1.0272342524716709,0.0,0,False
2023-01-24,1.0272342524716709,1.0366449821408716,0.9161230407336296,1,True
2023-01-25,1.0366449821408716,1.0531480991667177,1.5919738493079816,5,True
2023-01-26,1.0531480991667177,1.0629897382113245,0.9344971568949978,1,True
2023-01-27,1.0629897382113245,1.0629897382113245,0.0,0,False
2023-01-28,1.0629897382113245,1.0629897382113245,0.0,0,False
2023-01-29,1.0629897382113245,1.0629897382113245,0.0,0,False
2023-01-30,1.0629897382113245,1.0632456461718673,0.0240743585138814,2,True
2023-01-31,1.0632456461718673,1.064962552440739,0.16147785556923644,2,True
2023-02-01,1.064962552440739,1.064962552440739,0.0,0,False
2023-02-02,1.064962552440739,1.064962552440739,0.0,0,False
2023-02-03,1.064962552440739,1.064962552440739,0.0,0,False
2023-02-04,1.064962552440739,1.064962552440739,0.0,0,False
2023-02-05,1.064962552440739,1.0696829326471917,0.4432437737490691,5,True
2023-02-06,1.0696829326471917,1.0859237638745154,1.518284599262687,1,True
2023-02-07,1.0859237638745154,1.0859237638745154,0.0,0,False
2023-02-08,1.0859237638745154,1.0859237638745154,0.0,0,False
2023-02-09,1.0859237638745154,1.0859237638745154,0.0,0,False
2023-02-10,1.0859237638745154,1.0888468884403133,0.2691832210548917,1,True
2023-02-11,1.0888468884403133,1.0854953987100835,-0.3078017456642157,0,True
2023-02-12,1.0854953987100835,1.0800746830510497,-0.4993771199284014,1,True
2023-02-13,1.0800746830510497,1.0800746830510497,0.0,0,False
2023-02-14,1.0800746830510497,1.0800746830510497,0.0,0,False
2023-02-15,1.0800746830510497,1.0800746830510497,0.0,0,False
2023-02-16,1.0800746830510497,1.0800746830510497,0.0,0,False
2023-02-17,1.0800746830510497,1.0800746830510497,0.0,0,False
2023-02-18,1.0800746830510497,1.0800746830510497,0.0,0,False
2023-02-19,1.0800746830510497,1.0800746830510497,0.0,0,False
2023-02-20,1.0800746830510497,1.0800746830510497,0.0,0,False
2023-02-21,1.0800746830510497,1.07593880954092,-0.38292477131735003,3,True
2023-02-22,1.07593880954092,1.0728895915058885,-0.2834006923063237,2,True
2023-02-23,1.0728895915058885,1.082470413784933,0.8929923782369009,1,True
2023-02-24,1.082470413784933,1.082470413784933,0.0,0,False
2023-02-25,1.082470413784933,1.082470413784933,0.0,0,False
2023-02-26,1.082470413784933,1.084518074357262,0.1891655001607928,1,True
2023-02-27,1.084518074357262,1.0791040132071146,-0.4992135473035897,1,True
2023-02-28,1.0791040132071146,1.0791040132071146,0.0,0,False
2023-03-01,1.0791040132071146,1.0791040132071146,0.0,0,False
2023-03-02,1.0791040132071146,1.0791040132071146,0.0,0,False
2023-03-03,1.0791040132071146,1.0780863388462703,-0.0943073465012656,6,True
2023-03-04,1.0780863388462703,1.0780863388462703,0.0,0,False
2023-03-05,1.0780863388462703,1.0780863388462703,0.0,0,False
2023-03-06,1.0780863388462703,1.0780863388462703,0.0,0,False
2023-03-07,1.0780863388462703,1.0780863388462703,0.0,0,False
2023-03-08,1.0780863388462703,1.0780863388462703,0.0,0,False
2023-03-09,1.0780863388462703,1.0780863388462703,0.0,0,False
2023-03-10,1.0780863388462703,1.0726970666460218,-0.49989244887527207,1,True
2023-03-11,1.0726970666460218,1.0911253014258369,1.7179346670010087,3,True
2023-03-12,1.0911253014258369,1.1025903460246897,1.050754169468049,0,True
2023-03-13,1.1025903460246897,1.1025903460246897,0.0,0,False
2023-03-14,1.1025903460246897,1.1025903460246897,0.0,0,False
2023-03-15,1.1025903460246897,1.1025903460246897,0.0,0,False
2023-03-16,1.1025903460246897,1.111146587737444,0.7760127542929318,5,True
2023-03-17,1.111146587737444,1.1069091617598357,-0.3813561616777039,2,True
2023-03-18,1.1069091617598357,1.1043603901251853,-0.23026023477826785,0,True
2023-03-19,1.1043603901251853,1.1043603901251853,0.0,0,False
2023-03-20,1.1043603901251853,1.1043603901251853,0.0,0,False
2023-03-21,1.1043603901251853,1.0933644241668925,-0.9956863770753555,2,True
2023-03-22,1.0933644241668925,1.0933644241668925,0.0,0,False
2023-03-23,1.0933644241668925,1.1058748959370224,1.1442179289546939,3,True
2023-03-24,1.1058748959370224,1.1071378704391197,0.11420591124162716,0,True
2023-03-25,1.1071378704391197,1.1016129106714245,-0.49903087187360695,1,True
2023-03-26,1.1016129106714245,1.1016129106714245,0.0,0,False
2023-03-27,1.1016129106714245,1.1016129106714245,0.0,0,False
2023-03-28,1.1016129106714245,1.1016129106714245,0.0,0,False
2023-03-29,1.1016129106714245,1.1016129106714245,0.0,0,False
2023-03-30,1.1016129106714245,1.1016129106714245,0.0,0,False
2023-03-31,1.1016129106714245,1.1016129106714245,0.0,0,False
2023-04-01,1.1016129106714245,1.1016129106714245,0.0,0,False
2023-04-02,1.1016129106714245,1.1016129106714245,0.0,0,False
2023-04-03,1.1016129106714245,1.1016129106714245,0.0,0,False
2023-04-04,1.1016129106714245,1.096113036351245,-0.4992565234940294,1,True
2023-04-05,1.096113036351245,1.096113036351245,0.0,0,False
2023-04-06,1.096113036351245,1.0906436538971827,-0.4989797833505283,1,True
2023-04-07,1.0906436538971827,1.0851948340407536,-0.4995967140100199,1,True
2023-04-08,1.0851948340407536,1.0851948340407536,0.0,0,False
2023-04-09,1.0851948340407536,1.0851948340407536,0.0,0,False
2023-04-10,1.0851948340407536,1.0851948340407536,0.0,0,False
2023-04-11,1.0851948340407536,1.0851948340407536,0.0,0,False
2023-04-12,1.0851948340407536,1.0851948340407536,0.0,0,False
2023-04-13,1.0851948340407536,1.0851948340407536,0.0,0,False
2023-04-14,1.0851948340407536,1.0851948340407536,0.0,0,False
2023-04-15,1.0851948340407536,1.0851948340407536,0.0,0,False
2023-04-16,1.0851948340407536,1.0851948340407536,0.0,0,False
2023-04-17,1.0851948340407536,1.079777425670677,-0.4992106670748453,1,True
2023-04-18,1.079777425670677,1.079777425670677,0.0,0,False
2023-04-19,1.079777425670677,1.0636754954866272,-1.4912267844503613,3,True
2023-04-20,1.0636754954866272,1.0636754954866272,0.0,0,False
2023-04-21,1.0636754954866272,1.0636754954866272,0.0,0,False
2023-04-22,1.0636754954866272,1.0636754954866272,0.0,0,False
2023-04-23,1.0636754954866272,1.0636754954866272,0.0,0,False
2023-04-24,1.0636754954866272,1.0636754954866272,0.0,0,False
2023-04-25,1.0636754954866272,1.0636754954866272,0.0,0,False
2023-04-26,1.0636754954866272,1.0636754954866272,0.0,0,False
2023-04-27,1.0636754954866272,1.0636754954866272,0.0,0,False
2023-04-28,1.0636754954866272,1.0636754954866272,0.0,0,False
2023-04-29,1.0636754954866272,1.0636754954866272,0.0,0,False
2023-04-30,1.0636754954866272,1.0636754954866272,0.0,0,False
2023-05-01,1.0636754954866272,1.0636754954866272,0.0,0,False
2023-05-02,1.0636754954866272,1.0636754954866272,0.0,0,False
2023-05-03,1.0636754954866272,1.0636754954866272,0.0,0,False
2023-05-04,1.0636754954866272,1.0636754954866272,0.0,0,False
2023-05-05,1.0636754954866272,1.0636754954866272,0.0,0,False
2023-05-06,1.0636754954866272,1.0636754954866272,0.0,0,False
2023-05-07,1.0636754954866272,1.0636754954866272,0.0,0,False
2023-05-08,1.0636754954866272,1.059500503660665,-0.39250615847383763,5,True
2023-05-09,1.059500503660665,1.0588337828622068,-0.06292784157767572,2,True
2023-05-10,1.0588337828622068,1.0611726445631675,0.2208903549184571,1,True
2023-05-11,1.0611726445631675,1.0634820502517641,0.21762770652151708,0,True
2023-05-12,1.0634820502517641,1.0634820502517641,0.0,0,False
2023-05-13,1.0634820502517641,1.0634820502517641,0.0,0,False
2023-05-14,1.0634820502517641,1.0634820502517641,0.0,0,False
2023-05-15,1.0634820502517641,1.0634820502517641,0.0,0,False
2023-05-16,1.0634820502517641,1.0634820502517641,0.0,0,False
2023-05-17,1.0634820502517641,1.0634820502517641,0.0,0,False
2023-05-18,1.0634820502517641,1.0634820502517641,0.0,0,False
2023-05-19,1.0634820502517641,1.0634820502517641,0.0,0,False
2023-05-20,1.0634820502517641,1.0634820502517641,0.0,0,False
2023-05-21,1.0634820502517641,1.0634820502517641,0.0,0,False
2023-05-22,1.0634820502517641,1.0634820502517641,0.0,0,False
2023-05-23,1.0634820502517641,1.0634820502517641,0.0,0,False
2023-05-24,1.0634820502517641,1.0634820502517641,0.0,0,False
2023-05-25,1.0634820502517641,1.0634820502517641,0.0,0,False
2023-05-26,1.0634820502517641,1.0665591835931474,0.2893451131267044,1,True
2023-05-27,1.0665591835931474,1.067671596647564,0.10429923360362192,1,True
2023-05-28,1.067671596647564,1.067671596647564,0.0,0,False
2023-05-29,1.067671596647564,1.067671596647564,0.0,0,False
2023-05-30,1.067671596647564,1.0777617583424983,0.9450622950555987,1,True
2023-05-31,1.0777617583424983,1.0777617583424983,0.0,0,False
2023-06-01,1.0777617583424983,1.0777617583424983,0.0,0,False
2023-06-02,1.0777617583424983,1.086092377758303,0.7729555582502989,3,True
2023-06-03,1.086092377758303,1.0729829241386384,-1.2070293363739881,1,True
2023-06-04,1.0729829241386384,1.0729829241386384,0.0,0,False
2023-06-05,1.0729829241386384,1.0729829241386384,0.0,0,False
2023-06-06,1.0729829241386384,1.0516419791559013,-1.9889361240179149,4,True
2023-06-07,1.0516419791559013,1.0516419791559013,0.0,0,False
2023-06-08,1.0516419791559013,1.04639067501228,-0.4993433362023292,1,True
2023-06-09,1.04639067501228,1.04639067501228,0.0,0,False
2023-06-10,1.04639067501228,1.074417686382401,2.6784462093751182,5,True
2023-06-11,1.074417686382401,1.0746104462546113,0.017940869240451462,0,True
2023-06-12,1.0746104462546113,1.0746104462546113,0.0,0,False
2023-06-13,1.0746104462546113,1.0692439840222456,-0.4993867546206787,1,True
2023-06-14,1.0692439840222456,1.0692439840222456,0.0,0,False
2023-06-15,1.0692439840222456,1.0692439840222456,0.0,0,False
2023-06-16,1.0692439840222456,1.0692439840222456,0.0,0,False
2023-06-17,1.0692439840222456,1.0692439840222456,0.0,0,False
2023-06-18,1.0692439840222456,1.0692439840222456,0.0,0,False
2023-06-19,1.0692439840222456,1.0791039349162963,0.9221422838368243,1,True
2023-06-20,1.0791039349162963,1.0791039349162963,0.0,0,False
2023-06-21,1.0791039349162963,1.0791039349162963,0.0,0,False
2023-06-22,1.0791039349162963,1.0838912174821198,0.44363498370476595,2,True
2023-06-23,1.0838912174821198,1.0838912174821198,0.0,0,False
2023-06-24,1.0838912174821198,1.0838912174821198,0.0,0,False
2023-06-25,1.0838912174821198,1.0784765982982756,-0.4995537464010824,1,True
2023-06-26,1.0784765982982756,1.0784765982982756,0.0,0,False
2023-06-27,1.0784765982982756,1.0784765982982756,0.0,0,False
2023-06-28,1.0784765982982756,1.0784765982982756,0.0,0,False
2023-06-29,1.0784765982982756,1.0784765982982756,0.0,0,False
2023-06-30,1.0784765982982756,1.0569944580391986,-1.9918967451842406,4,True
2023-07-01,1.0569944580391986,1.0517189300941376,-0.49910649057208767,1,True
2023-07-02,1.0517189300941376,1.0517189300941376,0.0,0,False
2023-07-03,1.0517189300941376,1.0517189300941376,0.0,0,False
2023-07-04,1.0517189300941376,1.0517189300941376,0.0,0,False
2023-07-05,1.0517189300941376,1.0464663912632344,-0.4994241979112357,1,True
2023-07-06,1.0464663912632344,1.0464663912632344,0.0,0,False
2023-07-07,1.0464663912632344,1.0464663912632344,0.0,0,False
2023-07-08,1.0464663912632344,1.0464663912632344,0.0,0,False
2023-07-09,1.0464663912632344,1.0464663912632344,0.0,0,False
2023-07-10,1.0464663912632344,1.0464663912632344,0.0,0,False
2023-07-11,1.0464663912632344,1.0464663912632344,0.0,0,False
2023-07-12,1.0464663912632344,1.0464663912632344,0.0,0,False
2023-07-13,1.0464663912632344,1.0464663912632344,0.0,0,False
2023-07-14,1.0464663912632344,1.0464663912632344,0.0,0,False
2023-07-15,1.0464663912632344,1.0464663912632344,0.0,0,False
2023-07-16,1.0464663912632344,1.0464663912632344,0.0,0,False
2023-07-17,1.0464663912632344,1.0464663912632344,0.0,0,False
2023-07-18,1.0464663912632344,1.0464663912632344,0.0,0,False
2023-07-19,1.0464663912632344,1.0464663912632344,0.0,0,False
2023-07-20,1.0464663912632344,1.0464663912632344,0.0,0,False
2023-07-21,1.0464663912632344,1.0464663912632344,0.0,0,False
2023-07-22,1.0464663912632344,1.0464663912632344,0.0,0,False
2023-07-23,1.0464663912632344,1.0464663912632344,0.0,0,False
2023-07-24,1.0464663912632344,1.0419452047361557,-0.4320431659177282,2,True
2023-07-25,1.0419452047361557,1.0417158014951835,-0.022016823910653294,0,True
2023-07-26,1.0417158014951835,1.0417158014951835,0.0,0,False
2023-07-27,1.0417158014951835,1.0417158014951835,0.0,0,False
2023-07-28,1.0417158014951835,1.0417158014951835,0.0,0,False
2023-07-29,1.0417158014951835,1.0417158014951835,0.0,0,False
2023-07-30,1.0417158014951835,1.0417158014951835,0.0,0,False
2023-07-31,1.0417158014951835,1.0417158014951835,0.0,0,False
2023-08-01,1.0417158014951835,1.0417158014951835,0.0,0,False
2023-08-02,1.0417158014951835,1.0417158014951835,0.0,0,False
2023-08-03,1.0417158014951835,1.0417158014951835,0.0,0,False
2023-08-04,1.0417158014951835,1.0417158014951835,0.0,0,False
2023-08-05,1.0417158014951835,1.0417158014951835,0.0,0,False
2023-08-06,1.0417158014951835,1.0417158014951835,0.0,0,False
2023-08-07,1.0417158014951835,1.0417158014951835,0.0,0,False
2023-08-08,1.0417158014951835,1.0417158014951835,0.0,0,False
2023-08-09,1.0417158014951835,1.0417158014951835,0.0,0,False
2023-08-10,1.0417158014951835,1.0417158014951835,0.0,0,False
2023-08-11,1.0417158014951835,1.0417158014951835,0.0,0,False
2023-08-12,1.0417158014951835,1.0417158014951835,0.0,0,False
2023-08-13,1.0417158014951835,1.0514092781339943,0.9305298647575233,1,True
2023-08-14,1.0514092781339943,1.0519441224359058,0.050869277362730614,1,True
2023-08-15,1.0519441224359058,1.0523751358143618,0.04097302977061901,0,True
2023-08-16,1.0523751358143618,1.070489454925636,1.7212796554012755,4,True
2023-08-17,1.070489454925636,1.0674211199214885,-0.28662916668905636,1,True
2023-08-18,1.0674211199214885,1.105601829821596,3.5769116038209647,4,True
2023-08-19,1.105601829821596,1.1265929626191695,1.8986159602287112,2,True
2023-08-20,1.1265929626191695,1.1265929626191695,0.0,0,False
2023-08-21,1.1265929626191695,1.1265929626191695,0.0,0,False
2023-08-22,1.1265929626191695,1.1265929626191695,0.0,0,False
2023-08-23,1.1265929626191695,1.1265929626191695,0.0,0,False
2023-08-24,1.1265929626191695,1.1265929626191695,0.0,0,False
2023-08-25,1.1265929626191695,1.1204018275539491,-0.5495449794774898,5,True
2023-08-26,1.1204018275539491,1.1211606867861303,0.06773098842920433,0,True
2023-08-27,1.1211606867861303,1.1211606867861303,0.0,0,False
2023-08-28,1.1211606867861303,1.1211606867861303,0.0,0,False
2023-08-29,1.1211606867861303,1.1224900101181445,0.11856670927561375,1,True
2023-08-30,1.1224900101181445,1.1224900101181445,0.0,0,False
2023-08-31,1.1224900101181445,1.1224900101181445,0.0,0,False
2023-09-01,1.1224900101181445,1.1224900101181445,0.0,0,False
2023-09-02,1.1224900101181445,1.1467506575037212,2.161324124659525,3,True
2023-09-03,1.1467506575037212,1.1477225507459308,0.08475192369414852,0,True
2023-09-04,1.1477225507459308,1.1469049653575711,-0.07123545562717215,1,True
2023-09-05,1.1469049653575711,1.152332871250948,0.473265532657674,2,True
2023-09-06,1.152332871250948,1.1531041948553087,0.06693583283130522,1,True
2023-09-07,1.1531041948553087,1.1531041948553087,0.0,0,False
2023-09-08,1.1531041948553087,1.1574444468762959,0.3763972102739377,3,True
2023-09-09,1.1574444468762959,1.1499647052269448,-0.646228997818199,1,True
2023-09-10,1.1499647052269448,1.14191118625476,-0.700327491407271,3,True
2023-09-11,1.14191118625476,1.1372500039595859,-0.40819131568907707,1,True
2023-09-12,1.1372500039595859,1.1372500039595859,0.0,0,False
2023-09-13,1.1372500039595859,1.131572654585151,-0.4992173536749078,1,True
2023-09-14,1.131572654585151,1.131572654585151,0.0,0,False
2023-09-15,1.131572654585151,1.131572654585151,0.0,0,False
2023-09-16,1.131572654585151,1.142324076216988,0.9501309163200355,1,True
2023-09-17,1.142324076216988,1.1531889958795003,0.9511241064351417,1,True
2023-09-18,1.1531889958795003,1.1360001455335647,-1.490549286140752,3,True
2023-09-19,1.1360001455335647,1.1360001455335647,0.0,0,False
2023-09-20,1.1360001455335647,1.140169768590581,0.3670442361658255,1,True
2023-09-21,1.140169768590581,1.1464550437060848,0.5512578291979597,0,True
2023-09-22,1.1464550437060848,1.1464550437060848,0.0,0,False
2023-09-23,1.1464550437060848,1.1464550437060848,0.0,0,False
2023-09-24,1.1464550437060848,1.1464550437060848,0.0,0,False
2023-09-25,1.1464550437060848,1.1464550437060848,0.0,0,False
2023-09-26,1.1464550437060848,1.1480612507665011,0.14010205365089234,1,True
2023-09-27,1.1480612507665011,1.1401061916846729,-0.6929124274960952,1,True
2023-09-28,1.1401061916846729,1.1401061916846729,0.0,0,False
2023-09-29,1.1401061916846729,1.1401061916846729,0.0,0,False
2023-09-30,1.1401061916846729,1.1401061916846729,0.0,0,False
2023-10-01,1.1401061916846729,1.1401061916846729,0.0,0,False
2023-10-02,1.1401061916846729,1.1401061916846729,0.0,0,False
2023-10-03,1.1401061916846729,1.1407457799134373,0.05609900493737108,1,True
2023-10-04,1.1407457799134373,1.1344092711269353,-0.5554707190749131,0,True
2023-10-05,1.1344092711269353,1.1344092711269353,0.0,0,False
2023-10-06,1.1344092711269353,1.1344092711269353,0.0,0,False
2023-10-07,1.1344092711269353,1.1344092711269353,0.0,0,False
2023-10-08,1.1344092711269353,1.1344092711269353,0.0,0,False
2023-10-09,1.1344092711269353,1.1287398115958318,-0.49977196726110895,1,True
2023-10-10,1.1287398115958318,1.1287398115958318,0.0,0,False
2023-10-11,1.1287398115958318,1.1287398115958318,0.0,0,False
2023-10-12,1.1287398115958318,1.1287398115958318,0.0,0,False
2023-10-13,1.1287398115958318,1.1287398115958318,0.0,0,False
2023-10-14,1.1287398115958318,1.1287398115958318,0.0,0,False
2023-10-15,1.1287398115958318,1.128816589491231,0.006802089782809162,1,True
2023-10-16,1.128816589491231,1.1301884453570783,0.12153044866798357,1,True
2023-10-17,1.1301884453570783,1.1237539315869247,-0.5693310524087503,1,True
2023-10-18,1.1237539315869247,1.1237539315869247,0.0,0,False
2023-10-19,1.1237539315869247,1.1125696948465889,-0.9952567395730361,2,True
2023-10-20,1.1125696948465889,1.1125696948465889,0.0,0,False
2023-10-21,1.1125696948465889,1.1141702488108252,0.14386100678907,1,True
2023-10-22,1.1141702488108252,1.1141702488108252,0.0,0,False
2023-10-23,1.1141702488108252,1.1141702488108252,0.0,0,False
2023-10-24,1.1141702488108252,1.1086076968167968,-0.49925511832373815,1,True
2023-10-25,1.1086076968167968,1.1091673993883555,0.05048698229010995,1,True
2023-10-26,1.1091673993883555,1.1301687602143564,1.8934347365043402,5,True
2023-10-27,1.1301687602143564,1.1272124301805293,-0.2615830606808145,2,True
2023-10-28,1.1272124301805293,1.1342743835726052,0.6264971182889489,1,True
2023-10-29,1.1342743835726052,1.1342743835726052,0.0,0,False
2023-10-30,1.1342743835726052,1.1342743835726052,0.0,0,False
2023-10-31,1.1342743835726052,1.1342743835726052,0.0,0,False
2023-11-01,1.1342743835726052,1.1342743835726052,0.0,0,False
2023-11-02,1.1342743835726052,1.1342743835726052,0.0,0,False
2023-11-03,1.1342743835726052,1.1286120592712352,-0.499202343222771,1,True
2023-11-04,1.1286120592712352,1.1286120592712352,0.0,0,False
2023-11-05,1.1286120592712352,1.1392304164098461,0.9408332164612343,1,True
2023-11-06,1.1392304164098461,1.1417151985208414,0.21811058370664327,1,True
2023-11-07,1.1417151985208414,1.135047896784177,-0.5839724079439557,1,True
2023-11-08,1.135047896784177,1.135047896784177,0.0,0,False
2023-11-09,1.135047896784177,1.132806499780607,-0.1974715789457293,4,True
2023-11-10,1.132806499780607,1.1463214389397192,1.1930492243582114,4,True
2023-11-11,1.1463214389397192,1.1463214389397192,0.0,0,False
2023-11-12,1.1463214389397192,1.1463214389397192,0.0,0,False
2023-11-13,1.1463214389397192,1.1452836801975526,-0.09052947165730796,1,True
2023-11-14,1.1452836801975526,1.1568991318071489,1.0141986488092503,2,True
2023-11-15,1.1568991318071489,1.1676178041141627,0.9265001599811473,0,True
2023-11-16,1.1676178041141627,1.1676178041141627,0.0,0,False
2023-11-17,1.1676178041141627,1.1655383052848212,-0.17809756086403228,1,True
2023-11-18,1.1655383052848212,1.1568558615302942,-0.7449299362499495,2,True
2023-11-19,1.1568558615302942,1.157414095269356,0.04825438999145337,0,True
2023-11-20,1.157414095269356,1.1603573221227186,0.2542933307441375,1,True
2023-11-21,1.1603573221227186,1.1543034670494536,-0.5217233483036265,0,True
2023-11-22,1.1543034670494536,1.1485386080845745,-0.4994231698545293,1,True
2023-11-23,1.1485386080845745,1.1485386080845745,0.0,0,False
2023-11-24,1.1485386080845745,1.1485386080845745,0.0,0,False
2023-11-25,1.1485386080845745,1.1590070869430003,0.911460771517647,1,True
2023-11-26,1.1590070869430003,1.1590070869430003,0.0,0,False
2023-11-27,1.1590070869430003,1.1499737709917033,-0.779401269678448,2,True
2023-11-28,1.1499737709917033,1.1442307602620279,-0.4994036276777747,1,True
2023-11-29,1.1442307602620279,1.132785759205201,-1.000235394319049,2,True
2023-11-30,1.132785759205201,1.1304135335734655,-0.2094152060492016,1,True
2023-12-01,1.1304135335734655,1.1304135335734655,0.0,0,False
2023-12-02,1.1304135335734655,1.1411254309458534,0.9476087338166739,1,True
2023-12-03,1.1411254309458534,1.142484153857012,0.11906867328619342,1,True
2023-12-04,1.142484153857012,1.1616693225442636,1.6792503092916133,5,True
2023-12-05,1.1616693225442636,1.1673975702562032,0.49310484496514206,1,True
2023-12-06,1.1673975702562032,1.1602875588188994,-0.6090479900299317,0,True
2023-12-07,1.1602875588188994,1.154495987594088,-0.4991496444818444,1,True
2023-12-08,1.154495987594088,1.154495987594088,0.0,0,False
2023-12-09,1.154495987594088,1.154495987594088,0.0,0,False
2023-12-10,1.154495987594088,1.154495987594088,0.0,0,False
2023-12-11,1.154495987594088,1.1752929169083064,1.8013860193276443,4,True
2023-12-12,1.1752929169083064,1.1752929169083064,0.0,0,False
2023-12-13,1.1752929169083064,1.1742746365330203,-0.086640560887985,1,True
2023-12-14,1.1742746365330203,1.1742746365330203,0.0,0,False
2023-12-15,1.1742746365330203,1.1742746365330203,0.0,0,False
2023-12-16,1.1742746365330203,1.1720269289475795,-0.1914124273412754,1,True
2023-12-17,1.1720269289475795,1.166176025716855,-0.4992123547859384,1,True
2023-12-18,1.166176025716855,1.1723964582061102,0.5334042504802294,1,True
2023-12-19,1.1723964582061102,1.168057581455897,-0.3700861359519969,0,True
2023-12-20,1.168057581455897,1.168057581455897,0.0,0,False
2023-12-21,1.168057581455897,1.1622258085655353,-0.4992710105175657,1,True
2023-12-22,1.1622258085655353,1.1622258085655353,0.0,0,False
2023-12-23,1.1622258085655353,1.1622258085655353,0.0,0,False
2023-12-24,1.1622258085655353,1.1598135778074965,-0.20755267524269483,1,True
2023-12-25,1.1598135778074965,1.1564285026322432,-0.29186373051887093,0,True
2023-12-26,1.1564285026322432,1.1564285026322432,0.0,0,False
2023-12-27,1.1564285026322432,1.146694608443793,-0.8417203628494185,2,True
2023-12-28,1.146694608443793,1.149252193882912,0.22303980678779478,1,True
2023-12-29,1.149252193882912,1.1413523129256935,-0.687393158722438,1,True
2023-12-30,1.1413523129256935,1.1464213381445068,0.4441244970029956,2,True
2023-12-31,1.1464213381445068,1.140696475792373,-0.4993680910894027,1,True
