day,start_equity,end_equity,return_pct,entries,active
2021-09-02,1.0,1.0,0.0,0,False
2021-09-03,1.0,1.0,0.0,0,False
2021-09-04,1.0,1.0,0.0,0,False
2021-09-05,1.0,1.0,0.0,0,False
2021-09-06,1.0,1.0,0.0,0,False
2021-09-07,1.0,1.0,0.0,0,False
2021-09-08,1.0,1.0,0.0,0,False
2021-09-09,1.0,1.0,0.0,0,False
2021-09-10,1.0,1.0,0.0,0,False
2021-09-11,1.0,1.0,0.0,0,False
2021-09-12,1.0,1.0,0.0,0,False
2021-09-13,1.0,1.0,0.0,0,False
2021-09-14,1.0,1.0,0.0,0,False
2021-09-15,1.0,1.0,0.0,0,False
2021-09-16,1.0,1.0,0.0,0,False
2021-09-17,1.0,1.0,0.0,0,False
2021-09-18,1.0,1.0,0.0,0,False
2021-09-19,1.0,1.0,0.0,0,False
2021-09-20,1.0,1.0,0.0,0,False
2021-09-21,1.0,1.0,0.0,0,False
2021-09-22,1.0,1.0,0.0,0,False
2021-09-23,1.0,1.0,0.0,0,False
2021-09-24,1.0,1.0,0.0,0,False
2021-09-25,1.0,1.0,0.0,0,False
2021-09-26,1.0,1.0,0.0,0,False
2021-09-27,1.0,1.0,0.0,0,False
2021-09-28,1.0,1.0,0.0,0,False
2021-09-29,1.0,1.0,0.0,0,False
2021-09-30,1.0,1.0,0.0,0,False
2021-10-01,1.0,1.0,0.0,0,False
2021-10-02,1.0,1.0,0.0,0,False
2021-10-03,1.0,1.0,0.0,0,False
2021-10-04,1.0,1.0,0.0,0,False
2021-10-05,1.0,0.9991229226558256,-0.08770773441744151,1,True
2021-10-06,0.9991229226558256,1.0069110769363658,0.7794991090623871,5,True
2021-10-07,1.0069110769363658,0.9928610407769847,-1.3953601744187694,2,True
2021-10-08,0.9928610407769847,0.9920220619755716,-0.08450113026455819,1,True
2021-10-09,0.9920220619755716,0.9978376958155805,0.5862403733670307,4,True
2021-10-10,0.9978376958155805,0.9856447128408709,-1.2219405045370335,1,True
2021-10-11,0.9856447128408709,0.9831962517769297,-0.248412133910203,0,True
2021-10-12,0.9831962517769297,0.9831962517769297,0.0,0,False
2021-10-13,0.9831962517769297,1.0072762293028807,2.4491526978903,4,True
2021-10-14,1.0072762293028807,1.0235475520853345,1.6153784144906203,1,True
2021-10-15,1.0235475520853345,1.0429800922269405,1.898547859551325,7,True
2021-10-16,1.0429800922269405,1.0556628850978522,1.2160148564132056,3,True
2021-10-17,1.0556628850978522,1.055456616613215,-0.01953923809853153,0,True
2021-10-18,1.055456616613215,1.0584189164345847,0.2806652376556418,2,True
2021-10-19,1.0584189164345847,1.0584189164345847,0.0,0,False
2021-10-20,1.0584189164345847,1.0584189164345847,0.0,0,False
2021-10-21,1.0584189164345847,1.0584189164345847,0.0,0,False
2021-10-22,1.0584189164345847,1.0584189164345847,0.0,0,False
2021-10-23,1.0584189164345847,1.0584189164345847,0.0,0,False
2021-10-24,1.0584189164345847,1.0626351403503718,0.3983511490884828,1,True
2021-10-25,1.0626351403503718,1.056450361513978,-0.5820228036458985,2,True
2021-10-26,1.056450361513978,1.056450361513978,0.0,0,False
2021-10-27,1.056450361513978,1.064514199988358,0.7632955383558127,7,True
2021-10-28,1.064514199988358,1.0675629167867537,0.28639512731996053,4,True
2021-10-29,1.0675629167867537,1.0578774634792854,-0.9072489457221389,3,True
2021-10-30,1.0578774634792854,1.0696792474683785,1.115609737093548,2,True
2021-10-31,1.0696792474683785,1.0487931167199183,-1.9525601527646375,10,True
2021-11-01,1.0487931167199183,1.0411460640009624,-0.7291288050089273,10,True
2021-11-02,1.0411460640009624,1.0740835256212788,3.163577403706719,3,True
2021-11-03,1.0740835256212788,1.0677917805233053,-0.5857780096137577,2,True
2021-11-04,1.0677917805233053,1.0882864974644078,1.9193551884299387,7,True
2021-11-05,1.0882864974644078,1.0754365583332084,-1.1807496611543344,6,True
2021-11-06,1.0754365583332084,1.0736866232358988,-0.16271858007336215,2,True
2021-11-07,1.0736866232358988,1.0736866232358988,0.0,0,False
2021-11-08,1.0736866232358988,1.0736866232358988,0.0,0,False
2021-11-09,1.0736866232358988,1.0815004855888657,0.7277600543645901,2,True
2021-11-10,1.0815004855888657,1.1030908086609927,1.9963304094469558,1,True
2021-11-11,1.1030908086609927,1.0968240129012907,-0.5681124083799616,20,True
2021-11-12,1.0968240129012907,1.0561032219013002,-3.7126093631262624,7,True
2021-11-13,1.0561032219013002,1.0538443545670175,-0.21388698447639687,1,True
2021-11-14,1.0538443545670175,1.0587248157654041,0.4631102474702553,2,True
2021-11-15,1.0587248157654041,1.0587248157654041,0.0,0,False
2021-11-16,1.0587248157654041,1.0679186991574214,0.8683921690614715,9,True
2021-11-17,1.0679186991574214,1.0665647119644053,-0.12678747868020146,1,True
2021-11-18,1.0665647119644053,1.0534087559587413,-1.2334887755130475,4,True
2021-11-19,1.0534087559587413,1.0598434042174367,0.6108405898752167,7,True
2021-11-20,1.0598434042174367,1.0701073397717702,0.9684388762990936,0,True
2021-11-21,1.0701073397717702,1.0594257856831042,-0.9981759484935515,3,True
2021-11-22,1.0594257856831042,1.0457140645160945,-1.2942597161884728,10,True
2021-11-23,1.0457140645160945,1.0390980229380484,-0.6326817055011702,0,True
2021-11-24,1.0390980229380484,1.0239626111823583,-1.4565913341741066,4,True
2021-11-25,1.0239626111823583,1.0279420806645994,0.3886342566400858,11,True
2021-11-26,1.0279420806645994,1.0023604948475853,-2.488621323924667,14,True
2021-11-27,1.0023604948475853,1.0189367555455489,1.6537224664350036,7,True
2021-11-28,1.0189367555455489,0.9737943971241755,-4.430339584442978,9,True
2021-11-29,0.9737943971241755,0.9591909154063403,-1.4996473342794414,2,True
2021-11-30,0.9591909154063403,0.9486782048798073,-1.0959977161668077,3,True
2021-12-01,0.9486782048798073,0.9407477073358468,-0.8359523285311754,1,True
2021-12-02,0.9407477073358468,0.9320408340830397,-0.9255269170375668,7,True
2021-12-03,0.9320408340830397,0.9102370876396535,-2.339355277801447,3,True
2021-12-04,0.9102370876396535,0.828244373767925,-9.007841471758171,22,True
2021-12-05,0.828244373767925,0.8247485143928084,-0.42208066674971345,4,True
2021-12-06,0.8247485143928084,0.795530991853433,-3.542597777321943,15,True
2021-12-07,0.795530991853433,0.810027564725342,1.8222511781891493,1,True
2021-12-08,0.810027564725342,0.8026773266066722,-0.9074059252739186,4,True
2021-12-09,0.8026773266066722,0.7910166404537224,-1.4527239983525453,4,True
2021-12-10,0.7910166404537224,0.7762335076138097,-1.8688776043236266,4,True
2021-12-11,0.7762335076138097,0.7691745128555865,-0.9093906265297713,2,True
2021-12-12,0.7691745128555865,0.7691745128555865,0.0,0,False
2021-12-13,0.7691745128555865,0.7615071213520018,-0.9968337971989261,2,True
2021-12-14,0.7615071213520018,0.7577121656022557,-0.49834803159928276,1,True
2021-12-15,0.7577121656022557,0.7561448265061019,-0.20685151529908907,1,True
2021-12-16,0.7561448265061019,0.7568402963324988,0.09197574353718707,1,True
2021-12-17,0.7568402963324988,0.749728267429261,-0.9397000843772929,4,True
2021-12-18,0.749728267429261,0.7507556984662807,0.13704045607652038,2,True
2021-12-19,0.7507556984662807,0.7466759468690828,-0.5434193314193148,1,True
2021-12-20,0.7466759468690828,0.7466759468690828,0.0,0,False
2021-12-21,0.7466759468690828,0.7429582165262674,-0.49790412539795215,1,True
2021-12-22,0.7429582165262674,0.7375726014920704,-0.7248880104425925,2,True
2021-12-23,0.7375726014920704,0.7377838742739418,0.028644337037997403,0,True
2021-12-24,0.7377838742739418,0.7377838742739418,0.0,0,False
2021-12-25,0.7377838742739418,0.7433790698486558,0.7583786756277799,2,True
2021-12-26,0.7433790698486558,0.7402122087839913,-0.42600890892841026,0,True
2021-12-27,0.7402122087839913,0.7402122087839913,0.0,0,False
2021-12-28,0.7402122087839913,0.7365239203668623,-0.4982744641821135,1,True
2021-12-29,0.7365239203668623,0.7365239203668623,0.0,0,False
2021-12-30,0.7365239203668623,0.7365239203668623,0.0,0,False
2021-12-31,0.7365239203668623,0.7365239203668623,0.0,0,False
2022-01-01,0.7365239203668623,0.7365239203668623,0.0,0,False
2022-01-02,0.7365239203668623,0.7365239203668623,0.0,0,False
2022-01-03,0.7365239203668623,0.7365239203668623,0.0,0,False
2022-01-04,0.7365239203668623,0.7365239203668623,0.0,0,False
2022-01-05,0.7365239203668623,0.738285051670712,0.23911393169313566,1,True
2022-01-06,0.738285051670712,0.6976481319895128,-5.504231677079108,15,True
2022-01-07,0.6976481319895128,0.6966823011625414,-0.13844096797294148,5,True
2022-01-08,0.6966823011625414,0.6966823011625414,0.0,0,False
2022-01-09,0.6966823011625414,0.6973536847004929,0.09636868007572019,1,True
2022-01-10,0.6973536847004929,0.699267951570333,0.2745044461423207,0,True
2022-01-11,0.699267951570333,0.699267951570333,0.0,0,False
2022-01-12,0.699267951570333,0.699267951570333,0.0,0,False
2022-01-13,0.699267951570333,0.699267951570333,0.0,0,False
2022-01-14,0.699267951570333,0.699267951570333,0.0,0,False
2022-01-15,0.699267951570333,0.6997288478365152,0.06591125263888387,1,True
2022-01-16,0.6997288478365152,0.6983926790773045,-0.19095521977434693,0,True
2022-01-17,0.6983926790773045,0.7042130655070983,0.8333974000820588,1,True
2022-01-18,0.7042130655070983,0.7042130655070983,0.0,0,False
2022-01-19,0.7042130655070983,0.7007047643213762,-0.4981874602391523,1,True
2022-01-20,0.7007047643213762,0.7007047643213762,0.0,0,False
2022-01-21,0.7007047643213762,0.6698588995891497,-4.402120022988621,9,True
2022-01-22,0.6698588995891497,0.6364882117909578,-4.981748815856502,27,True
2022-01-23,0.6364882117909578,0.6364882117909578,0.0,0,False
2022-01-24,0.6364882117909578,0.6288677737901951,-1.1972630222514602,6,True
2022-01-25,0.6288677737901951,0.6433144347674904,2.2972493709170427,0,True
2022-01-26,0.6433144347674904,0.6441986066881037,0.13744008727751833,1,True
2022-01-27,0.6441986066881037,0.6379753758726256,-0.966042265672129,10,True
2022-01-28,0.6379753758726256,0.6266500717054806,-1.775194560080673,0,True
2022-01-29,0.6266500717054806,0.6266500717054806,0.0,0,False
2022-01-30,0.6266500717054806,0.6318291788929459,0.8264751607495846,1,True
2022-01-31,0.6318291788929459,0.6343394231173725,0.3972979261301024,2,True
2022-02-01,0.6343394231173725,0.6311761066015846,-0.49867884613605806,1,True
2022-02-02,0.6311761066015846,0.6366867469731513,0.8730749332761301,1,True
2022-02-03,0.6366867469731513,0.6414553885098728,0.7489776659231451,4,True
2022-02-04,0.6414553885098728,0.6460372076872272,0.7142849307101518,1,True
2022-02-05,0.6460372076872272,0.6460372076872272,0.0,0,False
2022-02-06,0.6460372076872272,0.6460372076872272,0.0,0,False
2022-02-07,0.6460372076872272,0.6460372076872272,0.0,0,False
2022-02-08,0.6460372076872272,0.639555135340855,-1.003358981377811,3,True
2022-02-09,0.639555135340855,0.6480040074482588,1.3210545331484136,2,True
2022-02-10,0.6480040074482588,0.6620393965537269,2.165941713962116,5,True
2022-02-11,0.6620393965537269,0.6506740050472102,-1.7167243468711568,0,True
2022-02-12,0.6506740050472102,0.6345781552072868,-2.473719514698536,5,True
2022-02-13,0.6345781552072868,0.6345781552072868,0.0,0,False
2022-02-14,0.6345781552072868,0.6345781552072868,0.0,0,False
2022-02-15,0.6345781552072868,0.6345781552072868,0.0,0,False
2022-02-16,0.6345781552072868,0.6345781552072868,0.0,0,False
2022-02-17,0.6345781552072868,0.6345781552072868,0.0,0,False
2022-02-18,0.6345781552072868,0.6345781552072868,0.0,0,False
2022-02-19,0.6345781552072868,0.6345781552072868,0.0,0,False
2022-02-20,0.6345781552072868,0.6345781552072868,0.0,0,False
2022-02-21,0.6345781552072868,0.6345781552072868,0.0,0,False
2022-02-22,0.6345781552072868,0.6282750626358882,-0.9932728568854854,2,True
2022-02-23,0.6282750626358882,0.6282750626358882,0.0,0,False
2022-02-24,0.6282750626358882,0.61628597299375,-1.9082548958474832,11,True
2022-02-25,0.61628597299375,0.6268894923390704,1.7205517908855494,0,True
2022-02-26,0.6268894923390704,0.6268894923390704,0.0,0,False
2022-02-27,0.6268894923390704,0.6268894923390704,0.0,0,False
2022-02-28,0.6268894923390704,0.6206464171304232,-0.9958812972526987,2,True
2022-03-01,0.6206464171304232,0.6206464171304232,0.0,0,False
2022-03-02,0.6206464171304232,0.6206464171304232,0.0,0,False
2022-03-03,0.6206464171304232,0.6206464171304232,0.0,0,False
2022-03-04,0.6206464171304232,0.6280327137010658,1.1900973512089852,3,True
2022-03-05,0.6280327137010658,0.6284924781314027,0.07320708305582624,3,True
2022-03-06,0.6284924781314027,0.6248847087439057,-0.5740354122015123,4,True
2022-03-07,0.6248847087439057,0.6228196815309391,-0.3304653136924185,0,True
2022-03-08,0.6228196815309391,0.6197214037012228,-0.49745984617900474,1,True
2022-03-09,0.6197214037012228,0.6298694801672994,1.6375223456005061,2,True
2022-03-10,0.6298694801672994,0.6256903422850798,-0.6634926780560213,4,True
2022-03-11,0.6256903422850798,0.6172368838292808,-1.3510610416210378,2,True
2022-03-12,0.6172368838292808,0.6150238965638936,-0.3585312743558111,0,True
2022-03-13,0.6150238965638936,0.6150238965638936,0.0,0,False
2022-03-14,0.6150238965638936,0.6119601078409418,-0.498157671607391,1,True
2022-03-15,0.6119601078409418,0.6128719995565107,0.14901162737326334,1,True
2022-03-16,0.6128719995565107,0.6176937659390579,0.7867493352667898,1,True
2022-03-17,0.6176937659390579,0.6197638855107733,0.3351368729726856,1,True
2022-03-18,0.6197638855107733,0.6183543850378969,-0.22742539632086833,0,True
2022-03-19,0.6183543850378969,0.6183543850378969,0.0,0,False
2022-03-20,0.6183543850378969,0.6146484420151919,-0.5993234805762526,4,True
2022-03-21,0.6146484420151919,0.621296942606556,1.081675334532095,4,True
2022-03-22,0.621296942606556,0.6185217749416654,-0.4466733174716464,0,True
2022-03-23,0.6185217749416654,0.6176841780888891,-0.13541913748392753,2,True
2022-03-24,0.6176841780888891,0.6123413921622666,-0.8649705004834418,0,True
2022-03-25,0.6123413921622666,0.6123413921622666,0.0,0,False
2022-03-26,0.6123413921622666,0.6137495476579989,0.22996248722628732,1,True
2022-03-27,0.6137495476579989,0.6173163949472991,0.5811568094690855,2,True
2022-03-28,0.6173163949472991,0.6290910524803945,1.9073942680723155,5,True
2022-03-29,0.6290910524803945,0.6330500293442426,0.6293169880955185,1,True
2022-03-30,0.6330500293442426,0.6419937509767741,1.4127985495547835,7,True
2022-03-31,0.6419937509767741,0.6385234563311049,-0.5405495988690445,7,True
2022-04-01,0.6385234563311049,0.6213242862300776,-2.6935846961444465,11,True
2022-04-02,0.6213242862300776,0.6214068250995317,0.013284346239683664,1,True
2022-04-03,0.6214068250995317,0.613470512431755,-1.2771524784114696,3,True
2022-04-04,0.613470512431755,0.6080191084947485,-0.8886171097935103,2,True
2022-04-05,0.6080191084947485,0.6066865282504305,-0.21916749419554904,7,True
2022-04-06,0.6066865282504305,0.575041899392462,-5.215976848740256,14,True
2022-04-07,0.575041899392462,0.5722387831008063,-0.48746296480607354,3,True
2022-04-08,0.5722387831008063,0.5687561987374695,-0.6085893627247096,0,True
2022-04-09,0.5687561987374695,0.568335033999529,-0.07405013587111764,1,True
2022-04-10,0.568335033999529,0.5659137233029738,-0.42603579784897816,0,True
2022-04-11,0.5659137233029738,0.5566387177416455,-1.638943390026748,7,True
2022-04-12,0.5566387177416455,0.5483959070196006,-1.4808187895170244,1,True
2022-04-13,0.5483959070196006,0.5441866952877188,-0.7675498080862542,1,True
2022-04-14,0.5441866952877188,0.543605134045313,-0.1068679641457182,0,True
2022-04-15,0.543605134045313,0.5481943834848046,0.8442248154170606,1,True
2022-04-16,0.5481943834848046,0.5481943834848046,0.0,0,False
2022-04-17,0.5481943834848046,0.5522360053631771,0.7372607235923034,1,True
2022-04-18,0.5522360053631771,0.5616112576574352,1.6976894304623569,6,True
2022-04-19,0.5616112576574352,0.573449315130023,2.1078739628486165,2,True
2022-04-20,0.573449315130023,0.5828503975801509,1.6393920442639986,1,True
2022-04-21,0.5828503975801509,0.5800549825757275,-0.4796110658977448,5,True
2022-04-22,0.5800549825757275,0.5735723028898407,-1.1175974486246965,2,True
2022-04-23,0.5735723028898407,0.5672428336381522,-1.1035172409474159,2,True
2022-04-24,0.5672428336381522,0.5672428336381522,0.0,0,False
2022-04-25,0.5672428336381522,0.5587820588037636,-1.4915613442171294,3,True
2022-04-26,0.5587820588037636,0.5541845964788483,-0.822764842299617,2,True
2022-04-27,0.5541845964788483,0.5504641676444418,-0.671333858437273,1,True
2022-04-28,0.5504641676444418,0.5522238241448323,0.3196677647375967,1,True
2022-04-29,0.5522238241448323,0.5431026160892305,-1.6517230254827875,3,True
2022-04-30,0.5431026160892305,0.5372342189353717,-1.0805319252770174,4,True
2022-05-01,0.5372342189353717,0.5325444028607843,-0.8729555767838404,10,True
2022-05-02,0.5325444028607843,0.5395602034195244,1.3174113784788277,1,True
2022-05-03,0.5395602034195244,0.5456466276430293,1.1280343110799285,3,True
2022-05-04,0.5456466276430293,0.5403397586996611,-0.9725834770191288,2,True
2022-05-05,0.5403397586996611,0.5426951755228894,0.4359140309972087,0,True
2022-05-06,0.5426951755228894,0.514708531795134,-5.156973009901944,13,True
2022-05-07,0.514708531795134,0.5108593957437446,-0.7478282976901229,2,True
2022-05-08,0.5108593957437446,0.5063622037164973,-0.8803189419076762,3,True
2022-05-09,0.5063622037164973,0.49650737011978835,-1.9462024464658723,5,True
2022-05-10,0.49650737011978835,0.485867237484731,-2.1429959101091134,24,True
2022-05-11,0.485867237484731,0.46626725509463635,-4.034020176285413,38,True
2022-05-12,0.46626725509463635,0.45424864682907307,-2.5776221971933078,29,True
2022-05-13,0.45424864682907307,0.4719113121894727,3.8883253662274075,10,True
2022-05-14,0.4719113121894727,0.45082626162125145,-4.468011260504722,14,True
2022-05-15,0.45082626162125145,0.46221289009262934,2.525724306838195,4,True
2022-05-16,0.46221289009262934,0.4654578047733266,0.7020389846866815,10,True
2022-05-17,0.4654578047733266,0.47698086839843296,2.4756408651731565,4,True
2022-05-18,0.47698086839843296,0.46382541959446205,-2.758066345122645,2,True
2022-05-19,0.46382541959446205,0.46583962095303333,0.4342585105258756,8,True
2022-05-20,0.46583962095303333,0.4708806169491322,1.082131224859273,1,True
2022-05-21,0.4708806169491322,0.4708806169491322,0.0,0,False
2022-05-22,0.4708806169491322,0.46967695720958935,-0.25561887582916665,1,True
2022-05-23,0.46967695720958935,0.46956634517433055,-0.023550662548144086,4,True
2022-05-24,0.46956634517433055,0.4459953308611399,-5.019740991965616,16,True
2022-05-25,0.4459953308611399,0.44561857016532963,-0.08447637671067376,1,True
2022-05-26,0.44561857016532963,0.44220042996255227,-0.7670551524612601,14,True
2022-05-27,0.44220042996255227,0.43990323881235077,-0.5194909354556798,6,True
2022-05-28,0.43990323881235077,0.44276852697188057,0.6513450929039433,1,True
2022-05-29,0.44276852697188057,0.4460827421527827,0.7485209492120504,4,True
2022-05-30,0.4460827421527827,0.44909975601774044,0.6763350338095719,0,True
2022-05-31,0.44909975601774044,0.44573900073512324,-0.7483315761330434,8,True
2022-06-01,0.44573900073512324,0.43799778909687825,-1.7367140020231542,5,True
2022-06-02,0.43799778909687825,0.43056041357927116,-1.6980395113277758,12,True
2022-06-03,0.43056041357927116,0.4331617776008603,0.604180955690703,0,True
2022-06-04,0.4331617776008603,0.4331617776008603,0.0,0,False
2022-06-05,0.4331617776008603,0.4331617776008603,0.0,0,False
2022-06-06,0.4331617776008603,0.4347661567785864,0.3703879845105895,1,True
2022-06-07,0.4347661567785864,0.43496450880002024,0.04562269126546781,5,True
2022-06-08,0.43496450880002024,0.444202601763365,2.123872816389283,6,True
2022-06-09,0.444202601763365,0.4415456067645845,-0.598149355324118,6,True
2022-06-10,0.4415456067645845,0.4403114182123371,-0.27951553210796565,7,True
2022-06-11,0.4403114182123371,0.42743011801034553,-2.925497652159381,8,True
2022-06-12,0.42743011801034553,0.4218147807232898,-1.3137439432660214,15,True
2022-06-13,0.4218147807232898,0.39055615741547506,-7.410509241571694,16,True
2022-06-14,0.39055615741547506,0.4062780630204041,4.025517280016655,13,True
2022-06-15,0.4062780630204041,0.40212633808868997,-1.0218924696176912,10,True
2022-06-16,0.40212633808868997,0.4050504600775307,0.7271650006162478,10,True
2022-06-17,0.4050504600775307,0.40716164860824805,0.5212161789208247,1,True
2022-06-18,0.40716164860824805,0.4032070481768404,-0.971260541095953,8,True
2022-06-19,0.4032070481768404,0.4009387053675263,-0.562575188000991,4,True
2022-06-20,0.4009387053675263,0.40393654511793314,0.7477052502723236,2,True
2022-06-21,0.40393654511793314,0.4070116821623666,0.7612921092682079,1,True
2022-06-22,0.4070116821623666,0.41297459008529247,1.4650458903897379,9,True
2022-06-23,0.41297459008529247,0.41131630925972196,-0.4015454861830636,1,True
2022-06-24,0.41131630925972196,0.40723041113890096,-0.9933712884312107,2,True
2022-06-25,0.40723041113890096,0.40758256047324504,0.08647422312082487,4,True
2022-06-26,0.40758256047324504,0.40980067845125195,0.5442131712974696,0,True
2022-06-27,0.40980067845125195,0.4076167889534183,-0.5329150517971781,5,True
2022-06-28,0.4076167889534183,0.40798915318818946,0.09135154509392063,3,True
2022-06-29,0.40798915318818946,0.40260123927755154,-1.3206022435975573,5,True
2022-06-30,0.40260123927755154,0.39620799097643666,-1.5879852512593495,4,True
2022-07-01,0.39620799097643666,0.40163401605356414,1.369489056431017,1,True
2022-07-02,0.40163401605356414,0.4004371704295926,-0.29799408818299566,2,True
2022-07-03,0.4004371704295926,0.3989180161944612,-0.37937393112172924,3,True
2022-07-04,0.3989180161944612,0.4001762879187223,0.3154211324583711,0,True
2022-07-05,0.4001762879187223,0.40040132493234415,0.056234469761373695,1,True
2022-07-06,0.40040132493234415,0.40357704081194073,0.7931332095699739,0,True
2022-07-07,0.40357704081194073,0.40357704081194073,0.0,0,False
2022-07-08,0.40357704081194073,0.40357704081194073,0.0,0,False
2022-07-09,0.40357704081194073,0.40357704081194073,0.0,0,False
2022-07-10,0.40357704081194073,0.40357704081194073,0.0,0,False
2022-07-11,0.40357704081194073,0.40156834817143294,-0.4977222283176874,1,True
2022-07-12,0.40156834817143294,0.40283141560203667,0.31453361211239983,2,True
2022-07-13,0.40283141560203667,0.4085469673761935,1.418844596719171,6,True
2022-07-14,0.4085469673761935,0.41386266905535385,1.3011237638843154,0,True
2022-07-15,0.41386266905535385,0.41386266905535385,0.0,0,False
2022-07-16,0.41386266905535385,0.41386266905535385,0.0,0,False
2022-07-17,0.41386266905535385,0.41386266905535385,0.0,0,False
2022-07-18,0.41386266905535385,0.414746067113519,0.21345197917501668,1,True
2022-07-19,0.414746067113519,0.4154015262702975,0.15803866721153526,4,True
2022-07-20,0.4154015262702975,0.40935271691991376,-1.4561355623060157,2,True
2022-07-21,0.40935271691991376,0.39813681319280136,-2.739911881250978,8,True
2022-07-22,0.39813681319280136,0.402404220828622,1.0718445254028985,0,True
2022-07-23,0.402404220828622,0.4041436948148286,0.4322703133244232,3,True
2022-07-24,0.4041436948148286,0.4064382323485114,0.567752896586482,3,True
2022-07-25,0.4064382323485114,0.4071949273577845,0.18617712337265502,1,True
2022-07-26,0.4071949273577845,0.40389989228212314,-0.8092033702488011,1,True
2022-07-27,0.40389989228212314,0.4016428940640678,-0.558801391429653,1,True
2022-07-28,0.4016428940640678,0.4003788538353048,-0.31471743866116064,0,True
2022-07-29,0.4003788538353048,0.4021449267942291,0.4411004582301814,4,True
2022-07-30,0.4021449267942291,0.40641904043601024,1.0628291834620551,2,True
2022-07-31,0.40641904043601024,0.4030692604859879,-0.8242182616318039,6,True
2022-08-01,0.4030692604859879,0.3985884606703639,-1.1116699423373122,2,True
2022-08-02,0.3985884606703639,0.39187045725608244,-1.6854485458467239,6,True
2022-08-03,0.39187045725608244,0.3943082996477295,0.6221041536831118,2,True
2022-08-04,0.3943082996477295,0.3943086212749581,8.156745086029815e-05,0,True
2022-08-05,0.3943086212749581,0.39915779913622695,1.2297925025300138,2,True
2022-08-06,0.39915779913622695,0.39904754616431365,-0.027621399895449983,0,True
2022-08-07,0.39904754616431365,0.39964002685044053,0.14847370741202237,2,True
2022-08-08,0.39964002685044053,0.40013035140004755,0.12269155156234834,0,True
2022-08-09,0.40013035140004755,0.3986502014210522,-0.3699169467690666,7,True
2022-08-10,0.3986502014210522,0.4082346195123597,2.4042175463958815,2,True
2022-08-11,0.4082346195123597,0.41017507672340325,0.47532892074697575,3,True
2022-08-12,0.41017507672340325,0.4135322022623766,0.8184616105373799,5,True
2022-08-13,0.4135322022623766,0.4126176466246626,-0.22115705444716305,0,True
2022-08-14,0.4126176466246626,0.4126176466246626,0.0,0,False
2022-08-15,0.4126176466246626,0.4105571915517762,-0.4993618401300859,1,True
2022-08-16,0.4105571915517762,0.4064795303627167,-0.9932017445967056,2,True
2022-08-17,0.4064795303627167,0.4044583103326231,-0.49725013908819005,1,True
2022-08-18,0.4044583103326231,0.402445435880711,-0.4976716760391686,1,True
2022-08-19,0.402445435880711,0.3905774801704018,-2.9489601948988198,12,True
2022-08-20,0.3905774801704018,0.3886136831705909,-0.5027931971280264,2,True
2022-08-21,0.3886136831705909,0.39221688369246543,0.9271934257376158,1,True
2022-08-22,0.39221688369246543,0.39037084199290845,-0.4706685959507184,0,True
2022-08-23,0.39037084199290845,0.39037084199290845,0.0,0,False
2022-08-24,0.39037084199290845,0.39037084199290845,0.0,0,False
2022-08-25,0.39037084199290845,0.3889996522485183,-0.35125311547091753,1,True
2022-08-26,0.3889996522485183,0.3917546006882077,0.7082135996176575,1,True
2022-08-27,0.3917546006882077,0.38544299727844983,-1.611111496500639,7,True
2022-08-28,0.38544299727844983,0.3855422619838491,0.025753407403983353,1,True
2022-08-29,0.3855422619838491,0.383875528511858,-0.43230888967003,1,True
2022-08-30,0.383875528511858,0.38196805105734594,-0.496899987844146,1,True
2022-08-31,0.38196805105734594,0.38112922218165857,-0.2196070779651227,2,True
2022-09-01,0.38112922218165857,0.3751753576629741,-1.5621642666503899,2,True
2022-09-02,0.3751753576629741,0.37524587142433075,0.018794880824768434,0,True
2022-09-03,0.37524587142433075,0.37524587142433075,0.0,0,False
2022-09-04,0.37524587142433075,0.37524587142433075,0.0,0,False
2022-09-05,0.37524587142433075,0.37524587142433075,0.0,0,False
2022-09-06,0.37524587142433075,0.3733786783261184,-0.49759190983901247,1,True
2022-09-07,0.3733786783261184,0.3702482559448435,-0.8384041625806748,5,True
2022-09-08,0.3702482559448435,0.3684884620708975,-0.4753010569773286,2,True
2022-09-09,0.3684884620708975,0.36808270749231287,-0.11011323836418452,0,True
2022-09-10,0.36808270749231287,0.3671936128721345,-0.24154751149154663,2,True
2022-09-11,0.3671936128721345,0.3693824350756647,0.5960948466422256,0,True
2022-09-12,0.3693824350756647,0.3693824350756647,0.0,0,False
2022-09-13,0.3693824350756647,0.3613162213934068,-2.1837025576502023,6,True
2022-09-14,0.3613162213934068,0.36843813999960756,1.9711040314589923,5,True
2022-09-15,0.36843813999960756,0.3677974459434108,-0.17389460716457084,3,True
2022-09-16,0.3677974459434108,0.36231668481130985,-1.490157474596554,3,True
2022-09-17,0.36231668481130985,0.36051325120382705,-0.49775063724211144,1,True
2022-09-18,0.36051325120382705,0.36051325120382705,0.0,0,False
2022-09-19,0.36051325120382705,0.37023252316990013,2.695954152480784,9,True
2022-09-20,0.37023252316990013,0.37083074522361736,0.1615800925848676,0,True
2022-09-21,0.37083074522361736,0.37083074522361736,0.0,0,False
2022-09-22,0.37083074522361736,0.3721318715520494,0.3508679755362287,2,True
2022-09-23,0.3721318715520494,0.36718828631948197,-1.328449834718337,3,True
2022-09-24,0.36718828631948197,0.3672358350772242,0.012949421186281285,0,True
2022-09-25,0.3672358350772242,0.3672358350772242,0.0,0,False
2022-09-26,0.3672358350772242,0.3672358350772242,0.0,0,False
2022-09-27,0.3672358350772242,0.3672358350772242,0.0,0,False
2022-09-28,0.3672358350772242,0.3672358350772242,0.0,0,False
2022-09-29,0.3672358350772242,0.3672358350772242,0.0,0,False
2022-09-30,0.3672358350772242,0.36593518871970454,-0.3541719607091598,1,True
2022-10-01,0.36593518871970454,0.36540051988084804,-0.14611025540537392,0,True
2022-10-02,0.36540051988084804,0.36540051988084804,0.0,0,False
2022-10-03,0.36540051988084804,0.36540051988084804,0.0,0,False
2022-10-04,0.36540051988084804,0.36540051988084804,0.0,0,False
2022-10-05,0.36540051988084804,0.36540051988084804,0.0,0,False
2022-10-06,0.36540051988084804,0.36540051988084804,0.0,0,False
2022-10-07,0.36540051988084804,0.36540051988084804,0.0,0,False
2022-10-08,0.36540051988084804,0.36357976821526933,-0.4982892925747384,1,True
2022-10-09,0.36357976821526933,0.36357976821526933,0.0,0,False
2022-10-10,0.36357976821526933,0.3641517181730178,0.15731072181381922,1,True
2022-10-11,0.3641517181730178,0.37405723193594126,2.720161204406879,6,True
2022-10-12,0.37405723193594126,0.37238636473334935,-0.4466875814549298,2,True
2022-10-13,0.37238636473334935,0.3732659794906572,0.23621024844389105,1,True
2022-10-14,0.3732659794906572,0.3732659794906572,0.0,0,False
2022-10-15,0.3732659794906572,0.3732659794906572,0.0,0,False
2022-10-16,0.3732659794906572,0.3732659794906572,0.0,0,False
2022-10-17,0.3732659794906572,0.3732659794906572,0.0,0,False
2022-10-18,0.3732659794906572,0.3732659794906572,0.0,0,False
2022-10-19,0.3732659794906572,0.3732659794906572,0.0,0,False
2022-10-20,0.3732659794906572,0.37612853361834536,0.7668939268438812,2,True
2022-10-21,0.37612853361834536,0.3718900313783538,-1.1268760174127923,0,True
2022-10-22,0.3718900313783538,0.3718900313783538,0.0,0,False
2022-10-23,0.3718900313783538,0.3718900313783538,0.0,0,False
2022-10-24,0.3718900313783538,0.3718900313783538,0.0,0,False
2022-10-25,0.3718900313783538,0.3700345091039996,-0.49894380537089944,1,True
2022-10-26,0.3700345091039996,0.3700345091039996,0.0,0,False
2022-10-27,0.3700345091039996,0.3700345091039996,0.0,0,False
2022-10-28,0.3700345091039996,0.36819139513859434,-0.4980924535574194,1,True
2022-10-29,0.36819139513859434,0.36819139513859434,0.0,0,False
2022-10-30,0.36819139513859434,0.36045642094697067,-2.100802542849234,6,True
2022-10-31,0.36045642094697067,0.3620305826967024,0.43671347165801233,3,True
2022-11-01,0.3620305826967024,0.36005350640442607,-0.5461075353218603,1,True
2022-11-02,0.36005350640442607,0.36417416779131695,1.1444580634808244,3,True
2022-11-03,0.36417416779131695,0.37270609848271463,2.34281600563353,7,True
2022-11-04,0.37270609848271463,0.3745448036581802,0.4933391707168111,5,True
2022-11-05,0.3745448036581802,0.3689599805584225,-1.4910961372873732,7,True
2022-11-06,0.3689599805584225,0.36652087072944906,-0.6610770700068436,2,True
2022-11-07,0.36652087072944906,0.36004562014143215,-1.7666799096951458,7,True
2022-11-08,0.36004562014143215,0.34668766870434153,-3.7100719158431605,12,True
2022-11-09,0.34668766870434153,0.3249234671791,-6.277754731392616,24,True
2022-11-10,0.3249234671791,0.32495187032125117,0.008741486848506952,17,True
2022-11-11,0.32495187032125117,0.331289078588613,1.9501990436604721,15,True
2022-11-12,0.331289078588613,0.3241591605487242,-2.1521741888577584,4,True
2022-11-13,0.3241591605487242,0.3242838156827911,0.03845491636143006,3,True
2022-11-14,0.3242838156827911,0.31531253171874324,-2.7664914282442665,11,True
2022-11-15,0.31531253171874324,0.31802307003749575,0.859635455647001,3,True
2022-11-16,0.31802307003749575,0.3222211830130266,1.3200655458850408,2,True
2022-11-17,0.3222211830130266,0.3203507961472549,-0.5804667614593417,3,True
2022-11-18,0.3203507961472549,0.3221299655245456,0.555381600011029,0,True
2022-11-19,0.3221299655245456,0.3218332128590952,-0.09212203061181867,3,True
2022-11-20,0.3218332128590952,0.31616019741047924,-1.7627190799290648,3,True
2022-11-21,0.31616019741047924,0.30420207770286567,-3.7822976470653025,8,True
2022-11-22,0.30420207770286567,0.3010732513556227,-1.0285354955067438,5,True
2022-11-23,0.3010732513556227,0.3035373630579687,0.8184425854010691,1,True
2022-11-24,0.3035373630579687,0.30051278177168017,-0.9964444758357116,2,True
2022-11-25,0.30051278177168017,0.30272740070411996,0.7369466680862802,3,True
2022-11-26,0.30272740070411996,0.3035301576331122,0.2651748494272743,0,True
2022-11-27,0.3035301576331122,0.3035301576331122,0.0,0,False
2022-11-28,0.3035301576331122,0.30247320646789616,-0.34821948944315784,6,True
2022-11-29,0.30247320646789616,0.30354568422051015,0.35456950555645683,0,True
2022-11-30,0.30354568422051015,0.30354568422051015,0.0,0,False
2022-12-01,0.30354568422051015,0.30373010394991273,0.06075518084738274,1,True
2022-12-02,0.30373010394991273,0.3032670234926811,-0.15246445815196852,2,True
2022-12-03,0.3032670234926811,0.3032102520117091,-0.01871996510472984,0,True
2022-12-04,0.3032102520117091,0.30288970708980306,-0.10571704610227162,3,True
2022-12-05,0.30288970708980306,0.30621994724479756,1.0994893775004178,2,True
2022-12-06,0.30621994724479756,0.3086081864215482,0.7799097342412686,2,True
2022-12-07,0.3086081864215482,0.30752603498152425,-0.35065545492229955,2,True
2022-12-08,0.30752603498152425,0.30433178200205124,-1.038693514084077,2,True
2022-12-09,0.30433178200205124,0.30433178200205124,0.0,0,False
2022-12-10,0.30433178200205124,0.30433178200205124,0.0,0,False
2022-12-11,0.30433178200205124,0.30433178200205124,0.0,0,False
2022-12-12,0.30433178200205124,0.3039580043669825,-0.12281912608990142,1,True
2022-12-13,0.3039580043669825,0.30445100736258013,0.16219444413854145,1,True
2022-12-14,0.30445100736258013,0.30433521980930334,-0.03803158816252372,0,True
2022-12-15,0.30433521980930334,0.30433521980930334,0.0,0,False
2022-12-16,0.30433521980930334,0.3047584712753531,0.13907409938125337,5,True
2022-12-17,0.3047584712753531,0.3009927420128739,-1.2356438351722843,8,True
2022-12-18,0.3009927420128739,0.30187488561565395,0.29307803134412946,0,True
2022-12-19,0.30187488561565395,0.30037151079637836,-0.49801255119635846,1,True
2022-12-20,0.30037151079637836,0.30037151079637836,0.0,0,False
2022-12-21,0.30037151079637836,0.30037151079637836,0.0,0,False
2022-12-22,0.30037151079637836,0.30037151079637836,0.0,0,False
2022-12-23,0.30037151079637836,0.30037151079637836,0.0,0,False
2022-12-24,0.30037151079637836,0.30037151079637836,0.0,0,False
2022-12-25,0.30037151079637836,0.30037151079637836,0.0,0,False
2022-12-26,0.30037151079637836,0.30037151079637836,0.0,0,False
2022-12-27,0.30037151079637836,0.30037151079637836,0.0,0,False
2022-12-28,0.30037151079637836,0.3030184618148414,0.8812257232535536,4,True
2022-12-29,0.3030184618148414,0.30057184216317484,-0.8074160356478677,0,True
2022-12-30,0.30057184216317484,0.3031274314694966,0.8502424205572678,1,True
2022-12-31,0.3031274314694966,0.3031274314694966,0.0,0,False
2023-01-01,0.3031274314694966,0.3031274314694966,0.0,0,False
2023-01-02,0.3031274314694966,0.3026725719478388,-0.15005554576592584,1,True
2023-01-03,0.3026725719478388,0.30448557152255745,0.5989969831263986,0,True
2023-01-04,0.30448557152255745,0.30448557152255745,0.0,0,False
2023-01-05,0.30448557152255745,0.30448557152255745,0.0,0,False
2023-01-06,0.30448557152255745,0.3039491213593816,-0.1761824576755333,1,True
2023-01-07,0.3039491213593816,0.30491321026936946,0.31718759563312826,0,True
2023-01-08,0.30491321026936946,0.30491321026936946,0.0,0,False
2023-01-09,0.30491321026936946,0.3049367743983226,0.00772814301235325,1,True
2023-01-10,0.3049367743983226,0.301999526752997,-0.963231689953159,5,True
2023-01-11,0.301999526752997,0.2982478353707397,-1.242283861367044,3,True
2023-01-12,0.2982478353707397,0.297671629603825,-0.1931969652683052,0,True
2023-01-13,0.297671629603825,0.2975991332043531,-0.024354487382072243,1,True
2023-01-14,0.2975991332043531,0.2971475651295139,-0.15173702623962892,5,True
2023-01-15,0.2971475651295139,0.2973048653543001,0.052936736909714455,1,True
2023-01-16,0.2973048653543001,0.2973588992185914,0.01817456442458898,2,True
2023-01-17,0.2973588992185914,0.29658835000520495,-0.2591310417852988,0,True
2023-01-18,0.29658835000520495,0.29658835000520495,0.0,0,False
2023-01-19,0.29658835000520495,0.2908071589782432,-1.9492306514602764,8,True
2023-01-20,0.2908071589782432,0.2918519348062421,0.3592675750039076,0,True
2023-01-21,0.2918519348062421,0.2908729368347305,-0.33544337205151376,3,True
2023-01-22,0.2908729368347305,0.29175586388716135,0.30354389859670317,2,True
2023-01-23,0.29175586388716135,0.289783988085744,-0.675865010953125,2,True
2023-01-24,0.289783988085744,0.2925039309194981,0.9386104635116244,4,True
2023-01-25,0.2925039309194981,0.29582039115017217,1.1338173200779345,11,True
2023-01-26,0.29582039115017217,0.30208115678007247,2.116407731582659,4,True
2023-01-27,0.30208115678007247,0.3008808405276742,-0.39734893271483607,3,True
2023-01-28,0.3008808405276742,0.30420472939554355,1.1047193507037534,0,True
2023-01-29,0.30420472939554355,0.30268631287366493,-0.4991429702278838,1,True
2023-01-30,0.30268631287366493,0.3029061159644247,0.07261745292443944,5,True
2023-01-31,0.3029061159644247,0.30886288957206853,1.9665412131669946,6,True
2023-02-01,0.30886288957206853,0.30572086365416695,-1.0172882609027156,2,True
2023-02-02,0.30572086365416695,0.30572086365416695,0.0,0,False
2023-02-03,0.30572086365416695,0.3067100384062412,0.3235548729815241,4,True
2023-02-04,0.3067100384062412,0.3089996555545617,0.7465087090784639,0,True
2023-02-05,0.3089996555545617,0.3102357101499678,0.4000181143204662,6,True
2023-02-06,0.3102357101499678,0.3019781486752364,-2.661705665907932,3,True
2023-02-07,0.3019781486752364,0.30376200550717924,0.5907238122256686,0,True
2023-02-08,0.30376200550717924,0.2975644058987914,-2.040281370291841,5,True
2023-02-09,0.2975644058987914,0.2922904676477902,-1.772368652450651,10,True
2023-02-10,0.2922904676477902,0.28305203518128713,-3.160702619161493,10,True
2023-02-11,0.28305203518128713,0.28914240193220214,2.1516774281500117,3,True
2023-02-12,0.28914240193220214,0.2909445609938839,0.623277336578365,2,True
2023-02-13,0.2909445609938839,0.29498912980646586,1.3901510304112463,3,True
2023-02-14,0.29498912980646586,0.29472173237868315,-0.09064653601240646,1,True
2023-02-15,0.29472173237868315,0.2953387886216786,0.20936910149627064,0,True
2023-02-16,0.2953387886216786,0.2953387886216786,0.0,0,False
2023-02-17,0.2953387886216786,0.29776387663564874,0.821120728939051,1,True
2023-02-18,0.29776387663564874,0.2981379749336266,0.1256358904930588,1,True
2023-02-19,0.2981379749336266,0.29888772388799023,0.25147717412736803,2,True
2023-02-20,0.29888772388799023,0.29735098781189584,-0.5141516205832142,6,True
2023-02-21,0.29735098781189584,0.2926725516540729,-1.5733716549085397,8,True
2023-02-22,0.2926725516540729,0.28582249768483103,-2.340518074048281,4,True
2023-02-23,0.28582249768483103,0.2882099625684937,0.8352963475587671,2,True
2023-02-24,0.2882099625684937,0.2864756832561061,-0.6017416250749474,1,True
2023-02-25,0.2864756832561061,0.2828688143119658,-1.2590489018629247,3,True
2023-02-26,0.2828688143119658,0.2815277900831672,-0.47407991300152386,2,True
2023-02-27,0.2815277900831672,0.2807253439611771,-0.28503265050779936,1,True
2023-02-28,0.2807253439611771,0.27811102788337433,-0.9312718406230935,3,True
2023-03-01,0.27811102788337433,0.2765546199381123,-0.5596354654137214,1,True
2023-03-02,0.2765546199381123,0.2751798013749713,-0.4971237014404939,1,True
2023-03-03,0.2751798013749713,0.27471025428511103,-0.17063283261129492,9,True
2023-03-04,0.27471025428511103,0.2757342713470062,0.37276259110166077,0,True
2023-03-05,0.2757342713470062,0.2811542329994622,1.9656467170289016,4,True
2023-03-06,0.2811542329994622,0.2811542329994622,0.0,0,False
2023-03-07,0.2811542329994622,0.2811542329994622,0.0,0,False
2023-03-08,0.2811542329994622,0.2811542329994622,0.0,0,False
2023-03-09,0.2811542329994622,0.2811542329994622,0.0,0,False
2023-03-10,0.2811542329994622,0.27310889994612325,-2.861537230831701,12,True
2023-03-11,0.27310889994612325,0.2738661818714906,0.2772820385995134,7,True
2023-03-12,0.2738661818714906,0.2772622847358286,1.2400592293398294,0,True
2023-03-13,0.2772622847358286,0.2772622847358286,0.0,0,False
2023-03-14,0.2772622847358286,0.27961718680480097,0.849340930453657,1,True
2023-03-15,0.27961718680480097,0.27828196626394697,-0.4775173357945639,7,True
2023-03-16,0.27828196626394697,0.2832855923960091,1.7980418204017745,6,True
2023-03-17,0.2832855923960091,0.28192304807911417,-0.4809790379279866,2,True
2023-03-18,0.28192304807911417,0.2834436502523013,0.5393678110206857,3,True
2023-03-19,0.2834436502523013,0.28692665614142976,1.2288177512631338,3,True
2023-03-20,0.28692665614142976,0.290329026115131,1.185797799150512,5,True
2023-03-21,0.290329026115131,0.2901445742733408,-0.06353200169419981,2,True
2023-03-22,0.2901445742733408,0.28992056835559515,-0.07720493078550161,0,True
2023-03-23,0.28992056835559515,0.2983746384385421,2.915995277912753,8,True
2023-03-24,0.2983746384385421,0.29759458194210564,-0.2614352548590215,1,True
2023-03-25,0.29759458194210564,0.29611290796600453,-0.497883384311526,1,True
2023-03-26,0.29611290796600453,0.29611290796600453,0.0,0,False
2023-03-27,0.29611290796600453,0.29463876429276153,-0.4978316154364504,1,True
2023-03-28,0.29463876429276153,0.30229658485890476,2.599053992275846,4,True
2023-03-29,0.30229658485890476,0.302735099087986,0.1450609272631853,1,True
2023-03-30,0.302735099087986,0.3006802883225148,-0.6787487713388662,3,True
2023-03-31,0.3006802883225148,0.3006802883225148,0.0,0,False
2023-04-01,0.3006802883225148,0.3003103027178097,-0.12304950443186025,1,True
2023-04-02,0.3003103027178097,0.29917884115455656,-0.37676415128398144,0,True
2023-04-03,0.29917884115455656,0.29917884115455656,0.0,0,False
2023-04-04,0.29917884115455656,0.29620478918699167,-0.9940716248808878,2,True
2023-04-05,0.29620478918699167,0.29477772460270146,-0.4817830893980912,2,True
2023-04-06,0.29477772460270146,0.28782809397481224,-2.3575833748143205,5,True
2023-04-07,0.28782809397481224,0.2855468782098893,-0.7925618842205773,1,True
2023-04-08,0.2855468782098893,0.2863533131220032,0.2824176951852886,1,True
2023-04-09,0.2863533131220032,0.2864462466765584,0.03245415725838807,0,True
2023-04-10,0.2864462466765584,0.2864462466765584,0.0,0,False
2023-04-11,0.2864462466765584,0.2864462466765584,0.0,0,False
2023-04-12,0.2864462466765584,0.2887255647646452,0.7957227977438031,1,True
2023-04-13,0.2887255647646452,0.2887255647646452,0.0,0,False
2023-04-14,0.2887255647646452,0.29104229075819954,0.8023972506358446,2,True
2023-04-15,0.29104229075819954,0.2899772393216541,-0.36594387495056946,1,True
2023-04-16,0.2899772393216541,0.2892751280842041,-0.24212632656702704,1,True
2023-04-17,0.2892751280842041,0.2900244974568261,0.25905074438474784,3,True
2023-04-18,0.2900244974568261,0.289573971707715,-0.15534058435122677,0,True
2023-04-19,0.289573971707715,0.2836060938892525,-2.060916519281031,10,True
2023-04-20,0.2836060938892525,0.27834464663346165,-1.8551954168676832,0,True
2023-04-21,0.27834464663346165,0.2769561198581829,-0.49885161869386296,1,True
2023-04-22,0.2769561198581829,0.276523145033168,-0.15633336617967286,1,True
2023-04-23,0.276523145033168,0.2765602588980457,0.013421612456077092,0,True
2023-04-24,0.2765602588980457,0.2765602588980457,0.0,0,False
2023-04-25,0.2765602588980457,0.2765602588980457,0.0,0,False
2023-04-26,0.2765602588980457,0.2765602588980457,0.0,0,False
2023-04-27,0.2765602588980457,0.2736687945028115,-1.0455097224580379,12,True
2023-04-28,0.2736687945028115,0.2736687945028115,0.0,0,False
2023-04-29,0.2736687945028115,0.2723057572202832,-0.49806090789583646,1,True
2023-04-30,0.2723057572202832,0.2723057572202832,0.0,0,False
2023-05-01,0.2723057572202832,0.2723057572202832,0.0,0,False
2023-05-02,0.2723057572202832,0.2723057572202832,0.0,0,False
2023-05-03,0.2723057572202832,0.2723057572202832,0.0,0,False
2023-05-04,0.2723057572202832,0.2723057572202832,0.0,0,False
2023-05-05,0.2723057572202832,0.2723057572202832,0.0,0,False
2023-05-06,0.2723057572202832,0.26959963280054683,-0.9937815664864069,2,True
2023-05-07,0.26959963280054683,0.26959963280054683,0.0,0,False
2023-05-08,0.26959963280054683,0.2732432883151572,1.3515061117705507,6,True
2023-05-09,0.2732432883151572,0.2684181580545933,-1.7658732956685297,6,True
2023-05-10,0.2684181580545933,0.2670030647751754,-0.5271972990478879,2,True
2023-05-11,0.2670030647751754,0.2714433630606684,1.6630139767241703,5,True
2023-05-12,0.2714433630606684,0.270357736634451,-0.3999458354687291,0,True
2023-05-13,0.270357736634451,0.26900786702911744,-0.49929017091850936,1,True
2023-05-14,0.26900786702911744,0.26900786702911744,0.0,0,False
2023-05-15,0.26900786702911744,0.26900786702911744,0.0,0,False
2023-05-16,0.26900786702911744,0.26900786702911744,0.0,0,False
2023-05-17,0.26900786702911744,0.26900786702911744,0.0,0,False
2023-05-18,0.26900786702911744,0.2676659298419934,-0.49884681884742044,1,True
2023-05-19,0.2676659298419934,0.2676659298419934,0.0,0,False
2023-05-20,0.2676659298419934,0.2676659298419934,0.0,0,False
2023-05-21,0.2676659298419934,0.2676659298419934,0.0,0,False
2023-05-22,0.2676659298419934,0.2663304599053611,-0.49893161128898855,1,True
2023-05-23,0.2663304599053611,0.2663304599053611,0.0,0,False
2023-05-24,0.2663304599053611,0.2650034569335397,-0.498254301176404,1,True
2023-05-25,0.2650034569335397,0.26554986079314075,0.20618744597662442,1,True
2023-05-26,0.26554986079314075,0.26670535194534895,0.4351315224782937,1,True
2023-05-27,0.26670535194534895,0.2653191873271006,-0.519736333799703,2,True
2023-05-28,0.2653191873271006,0.2653191873271006,0.0,0,False
2023-05-29,0.2653191873271006,0.26653652147940454,0.4588187400118793,1,True
2023-05-30,0.26653652147940454,0.2715815344983046,1.8928036544102245,4,True
2023-05-31,0.2715815344983046,0.27006922907575936,-0.5568513431293831,2,True
2023-06-01,0.27006922907575936,0.2727046749746764,0.9758408641873606,0,True
2023-06-02,0.2727046749746764,0.27598682538731006,1.2035548759618653,2,True
2023-06-03,0.27598682538731006,0.2701039097640345,-2.1315929175313775,3,True
2023-06-04,0.2701039097640345,0.2666697149312095,-1.2714346992700465,4,True
2023-06-05,0.2666697149312095,0.26651783797560763,-0.05695320731904374,1,True
2023-06-06,0.26651783797560763,0.2586106401698636,-2.966855001453106,12,True
2023-06-07,0.2586106401698636,0.25739985662483195,-0.4681878302595699,2,True
2023-06-08,0.25739985662483195,0.2535456584499583,-1.4973583223440778,3,True
2023-06-09,0.2535456584499583,0.2524555629022057,-0.4299405300082215,1,True
2023-06-10,0.2524555629022057,0.2599780047579154,2.979709287936605,8,True
2023-06-11,0.2599780047579154,0.2624216324238135,0.9399363104480862,1,True
2023-06-12,0.2624216324238135,0.262211694031067,-0.08000041414553127,0,True
2023-06-13,0.262211694031067,0.2612271459311494,-0.3754783338537737,2,True
2023-06-14,0.2612271459311494,0.26120673289417184,-0.007814286262164405,0,True
2023-06-15,0.26120673289417184,0.26224753897561637,0.3984606636714183,7,True
2023-06-16,0.26224753897561637,0.2645946397296966,0.8949943870773414,0,True
2023-06-17,0.2645946397296966,0.2651646867387729,0.21544163164404218,1,True
2023-06-18,0.2651646867387729,0.26564482263674977,0.18107082955953757,0,True
2023-06-19,0.26564482263674977,0.2679513527496599,0.8682759520836525,1,True
2023-06-20,0.2679513527496599,0.26661764883740147,-0.49774106328341894,1,True
2023-06-21,0.26661764883740147,0.26661764883740147,0.0,0,False
2023-06-22,0.26661764883740147,0.26588961812903245,-0.27306170898424575,6,True
2023-06-23,0.26588961812903245,0.2638731038315088,-0.75840279575905,0,True
2023-06-24,0.2638731038315088,0.26387814889252426,0.0019119269611733714,1,True
2023-06-25,0.26387814889252426,0.2605068476750688,-1.2775977213742462,7,True
2023-06-26,0.2605068476750688,0.2611979897460954,0.2653066808779858,0,True
2023-06-27,0.2611979897460954,0.2611979897460954,0.0,0,False
2023-06-28,0.2611979897460954,0.2611979897460954,0.0,0,False
2023-06-29,0.2611979897460954,0.2606715647196394,-0.20154252602315736,2,True
2023-06-30,0.2606715647196394,0.25678801031003773,-1.4898266382750935,10,True
2023-07-01,0.25678801031003773,0.2633944515311495,2.5727218389734574,1,True
2023-07-02,0.2633944515311495,0.26338643594512623,-0.003043187119800006,0,True
2023-07-03,0.26338643594512623,0.26338643594512623,0.0,0,False
2023-07-04,0.26338643594512623,0.2628935971886416,-0.18711622514506754,1,True
2023-07-05,0.2628935971886416,0.2594529218743509,-1.308771058361613,2,True
2023-07-06,0.2594529218743509,0.2596750351327995,0.08560830876138681,4,True
2023-07-07,0.2596750351327995,0.2578394941576282,-0.706860778600682,0,True
2023-07-08,0.2578394941576282,0.2578394941576282,0.0,0,False
2023-07-09,0.2578394941576282,0.2578394941576282,0.0,0,False
2023-07-10,0.2578394941576282,0.2577955411970834,-0.017046636198370102,1,True
2023-07-11,0.2577955411970834,0.256913722939779,-0.3420610974145144,0,True
2023-07-12,0.256913722939779,0.2561564046236841,-0.2947753461470026,1,True
2023-07-13,0.2561564046236841,0.2558653249856235,-0.1136335585628867,0,True
2023-07-14,0.2558653249856235,0.25458904740902755,-0.4988083385928266,1,True
2023-07-15,0.25458904740902755,0.25567939484281316,0.42827743175999355,7,True
2023-07-16,0.25567939484281316,0.25468218768224815,-0.39002249718952386,2,True
2023-07-17,0.25468218768224815,0.2529570324415006,-0.677375695743565,3,True
2023-07-18,0.2529570324415006,0.248954862965674,-1.5821538690576342,2,True
2023-07-19,0.248954862965674,0.24771493191727656,-0.4980545604238329,1,True
2023-07-20,0.24771493191727656,0.246294585383295,-0.5733794579875773,2,True
2023-07-21,0.246294585383295,0.2461329607560074,-0.06562248497508083,0,True
2023-07-22,0.2461329607560074,0.2461329607560074,0.0,0,False
2023-07-23,0.2461329607560074,0.2461329607560074,0.0,0,False
2023-07-24,0.2461329607560074,0.24038399085076217,-2.33571720243686,7,True
2023-07-25,0.24038399085076217,0.23894634638018725,-0.5980616535597227,0,True
2023-07-26,0.23894634638018725,0.23894634638018725,0.0,0,False
2023-07-27,0.23894634638018725,0.23894634638018725,0.0,0,False
2023-07-28,0.23894634638018725,0.23894634638018725,0.0,0,False
2023-07-29,0.23894634638018725,0.23894634638018725,0.0,0,False
2023-07-30,0.23894634638018725,0.23894634638018725,0.0,0,False
2023-07-31,0.23894634638018725,0.2377569810464846,-0.4977541409276198,1,True
2023-08-01,0.2377569810464846,0.2404779385532732,1.144428018396071,3,True
2023-08-02,0.2404779385532732,0.2404779385532732,0.0,0,False
2023-08-03,0.2404779385532732,0.2404779385532732,0.0,0,False
2023-08-04,0.2404779385532732,0.2404779385532732,0.0,0,False
2023-08-05,0.2404779385532732,0.2404779385532732,0.0,0,False
2023-08-06,0.2404779385532732,0.24084596217902252,0.15303841506766336,1,True
2023-08-07,0.24084596217902252,0.2379314646025011,-1.210108548282418,3,True
2023-08-08,0.2379314646025011,0.23259217416694156,-2.244045546678586,5,True
2023-08-09,0.23259217416694156,0.23138375426205307,-0.5195445243231345,0,True
2023-08-10,0.23138375426205307,0.23023125313531245,-0.49809077150479997,1,True
2023-08-11,0.23023125313531245,0.23023125313531245,0.0,0,False
2023-08-12,0.23023125313531245,0.23023125313531245,0.0,0,False
2023-08-13,0.23023125313531245,0.2341244232696331,1.69098247145123,2,True
2023-08-14,0.2341244232696331,0.23258417636058926,-0.6578753670948623,8,True
2023-08-15,0.23258417636058926,0.2326730446611384,0.038209091409280305,2,True
2023-08-16,0.2326730446611384,0.23518174686792023,1.0782092143228228,8,True
2023-08-17,0.23518174686792023,0.23187540294742193,-1.4058675745593385,6,True
2023-08-18,0.23187540294742193,0.2397362441166809,3.3901142895442993,10,True
2023-08-19,0.2397362441166809,0.24450684157596655,1.9899358467315276,3,True
2023-08-20,0.24450684157596655,0.24274367147515713,-0.7211127874561463,1,True
2023-08-21,0.24274367147515713,0.24184872232173177,-0.368680735521032,1,True
2023-08-22,0.24184872232173177,0.24163933177880972,-0.08657913960095076,4,True
2023-08-23,0.24163933177880972,0.24420601223526842,1.0621948163671346,1,True
2023-08-24,0.24420601223526842,0.24420601223526842,0.0,0,False
2023-08-25,0.24420601223526842,0.2447717671453055,0.2316711635633295,9,True
2023-08-26,0.2447717671453055,0.24484765174384077,0.031002186003847854,0,True
2023-08-27,0.24484765174384077,0.24484765174384077,0.0,0,False
2023-08-28,0.24484765174384077,0.2424144354534086,-0.9937674603380686,2,True
2023-08-29,0.2424144354534086,0.24379005409121543,0.5674656442112846,3,True
2023-08-30,0.24379005409121543,0.241453072083717,-0.9586043270756406,3,True
2023-08-31,0.241453072083717,0.2437093204580137,0.9344459173062036,3,True
2023-09-01,0.2437093204580137,0.2413099255033345,-0.9845314697730534,3,True
2023-09-02,0.2413099255033345,0.23632666075982506,-2.0650890066436833,4,True
2023-09-03,0.23632666075982506,0.2337876706851685,-1.074356175682134,3,True
2023-09-04,0.2337876706851685,0.2312513537576602,-1.084880532867727,7,True
2023-09-05,0.2312513537576602,0.23009499379393267,-0.500044624577356,2,True
2023-09-06,0.23009499379393267,0.2315093362861143,0.6146776463325843,5,True
2023-09-07,0.2315093362861143,0.2336316260965247,0.916718886787149,3,True
2023-09-08,0.2336316260965247,0.23318326104041756,-0.19191111391824167,12,True
2023-09-09,0.23318326104041756,0.2327345901697578,-0.19241126856957003,6,True
2023-09-10,0.2327345901697578,0.2250966636973866,-3.281818343719367,7,True
2023-09-11,0.2250966636973866,0.22258241635533224,-1.1169633973049153,1,True
2023-09-12,0.22258241635533224,0.2233524017904625,0.3459327325753492,2,True
2023-09-13,0.2233524017904625,0.22223919325457783,-0.49840902849526136,2,True
2023-09-14,0.22223919325457783,0.22161297355580895,-0.2817773452100103,4,True
2023-09-15,0.22161297355580895,0.22522349382011791,1.629200766714023,1,True
2023-09-16,0.22522349382011791,0.22671566614685254,0.6625296062259034,8,True
2023-09-17,0.22671566614685254,0.22807756727900136,0.6007088770242586,5,True
2023-09-18,0.22807756727900136,0.22138445560561365,-2.934576930663324,4,True
2023-09-19,0.22138445560561365,0.2233278156354435,0.8778213558461534,1,True
2023-09-20,0.2233278156354435,0.22482513809609608,0.670459457274597,3,True
2023-09-21,0.22482513809609608,0.22835180694244486,1.5686274569711944,2,True
2023-09-22,0.22835180694244486,0.22875842683053818,0.17806729604543658,1,True
2023-09-23,0.22875842683053818,0.22761752020534207,-0.4987386217869427,1,True
2023-09-24,0.22761752020534207,0.22648418423383623,-0.49791245000974094,1,True
2023-09-25,0.22648418423383623,0.22633905714170055,-0.06407824574004017,1,True
2023-09-26,0.22633905714170055,0.22665447172239647,0.13935490616558965,1,True
2023-09-27,0.22665447172239647,0.22414346513509603,-1.1078566278524105,1,True
2023-09-28,0.22414346513509603,0.22508981753185567,0.4222083370529095,2,True
2023-09-29,0.22508981753185567,0.22366443904888544,-0.6332487620274052,2,True
2023-09-30,0.22366443904888544,0.22366443904888544,0.0,0,False
2023-10-01,0.22366443904888544,0.22339852313185357,-0.11889056577910617,1,True
2023-10-02,0.22339852313185357,0.2254930380617131,0.9375688346083377,1,True
2023-10-03,0.2254930380617131,0.2271118844441664,0.7179141300186265,2,True
2023-10-04,0.2271118844441664,0.22202540855765848,-2.2396343982423295,7,True
2023-10-05,0.22202540855765848,0.21970657915917535,-1.044398212595088,2,True
2023-10-06,0.21970657915917535,0.21969918827599436,-0.003363978998394135,0,True
2023-10-07,0.21969918827599436,0.2186053858438676,-0.49786366563752127,1,True
2023-10-08,0.2186053858438676,0.21801267268991348,-0.2711338294187571,1,True
2023-10-09,0.21801267268991348,0.21350342655843446,-2.0683412922021582,5,True
2023-10-10,0.21350342655843446,0.2110580599092025,-1.1453524136122772,1,True
2023-10-11,0.2110580599092025,0.2110580599092025,0.0,0,False
2023-10-12,0.2110580599092025,0.2110580599092025,0.0,0,False
2023-10-13,0.2110580599092025,0.2110580599092025,0.0,0,False
2023-10-14,0.2110580599092025,0.2110580599092025,0.0,0,False
2023-10-15,0.2110580599092025,0.2110324006859344,-0.012157424018366392,1,True
2023-10-16,0.2110324006859344,0.2130064508552309,0.9354251588287399,2,True
2023-10-17,0.2130064508552309,0.21371633124349027,0.3332670843578578,2,True
2023-10-18,0.21371633124349027,0.2108993602920493,-1.3180887651639162,4,True
2023-10-19,0.2108993602920493,0.20665026453703977,-2.014750423673861,5,True
2023-10-20,0.20665026453703977,0.20665026453703977,0.0,0,False
2023-10-21,0.20665026453703977,0.2067506699192248,0.048587105566966216,2,True
2023-10-22,0.2067506699192248,0.2082526915421416,0.7264893620434698,1,True
2023-10-23,0.2082526915421416,0.2082526915421416,0.0,0,False
2023-10-24,0.2082526915421416,0.20518363480408444,-1.4737176817885778,8,True
2023-10-25,0.20518363480408444,0.21336207045220468,3.985910307091145,8,True
2023-10-26,0.21336207045220468,0.21587893329782193,1.1796205578071817,8,True
2023-10-27,0.21587893329782193,0.2155726856991268,-0.14186080782261357,6,True
2023-10-28,0.2155726856991268,0.21943008087128482,1.789371023350217,2,True
2023-10-29,0.21943008087128482,0.21943008087128482,0.0,0,False
2023-10-30,0.21943008087128482,0.21853326116363495,-0.4087040865540903,2,True
2023-10-31,0.21853326116363495,0.21470026805173043,-1.753963260098157,7,True
2023-11-01,0.21470026805173043,0.21575089013058002,0.48934362699373235,5,True
2023-11-02,0.21575089013058002,0.21642854035796327,0.3140891919255262,5,True
2023-11-03,0.21642854035796327,0.2129540434314592,-1.6053783483256812,2,True
2023-11-04,0.2129540434314592,0.21102557782062267,-0.9055783021359898,4,True
2023-11-05,0.21102557782062267,0.2068856793728425,-1.961799365998751,6,True
2023-11-06,0.2068856793728425,0.20445111772279304,-1.1767666362551776,5,True
2023-11-07,0.20445111772279304,0.20357390485017393,-0.4290575088997439,5,True
2023-11-08,0.20357390485017393,0.20357390485017393,0.0,0,False
2023-11-09,0.20357390485017393,0.20407066643027286,0.24402026402379207,6,True
2023-11-10,0.20407066643027286,0.20203750978375473,-0.9963002924836428,7,True
2023-11-11,0.20203750978375473,0.19969757588413706,-1.1581680560813434,7,True
2023-11-12,0.19969757588413706,0.19952150127327967,-0.08817063005288617,6,True
2023-11-13,0.19952150127327967,0.20055730231565863,0.5191425664746951,4,True
2023-11-14,0.20055730231565863,0.20151336424513594,0.4767026273481356,8,True
2023-11-15,0.20151336424513594,0.1985676705618725,-1.461785770039592,3,True
2023-11-16,0.1985676705618725,0.19657541287100574,-1.003314227955343,5,True
2023-11-17,0.19657541287100574,0.19873595170239444,1.099089046709234,5,True
2023-11-18,0.19873595170239444,0.19172278000740983,-3.528889279925951,6,True
2023-11-19,0.19172278000740983,0.18762237166507068,-2.1387173408296545,4,True
2023-11-20,0.18762237166507068,0.18829632930069942,0.3592096345695017,2,True
2023-11-21,0.18829632930069942,0.1839961553551137,-2.283726911488837,6,True
2023-11-22,0.1839961553551137,0.18240723454824911,-0.8635619607366141,6,True
2023-11-23,0.18240723454824911,0.182671573249993,0.14491678600279112,3,True
2023-11-24,0.182671573249993,0.18418954226825507,0.8309826160990408,1,True
2023-11-25,0.18418954226825507,0.18243478991707918,-0.9526883717536294,5,True
2023-11-26,0.18243478991707918,0.1818663310845183,-0.31159562976954547,1,True
2023-11-27,0.1818663310845183,0.18392323997562607,1.1310003774980482,6,True
2023-11-28,0.18392323997562607,0.18424143936794277,0.1730066262201957,5,True
2023-11-29,0.18424143936794277,0.18720480152447552,1.6084123998916011,3,True
2023-11-30,0.18720480152447552,0.18470805025314327,-1.333700445181063,3,True
2023-12-01,0.18470805025314327,0.18464969008508528,-0.031595898488456786,0,True
2023-12-02,0.18464969008508528,0.18464969008508528,0.0,0,False
2023-12-03,0.18464969008508528,0.185575260967121,0.5012577500721482,4,True
2023-12-04,0.185575260967121,0.19076520154962068,2.7966769683913872,7,True
2023-12-05,0.19076520154962068,0.1909786463940674,0.11188877358809801,6,True
2023-12-06,0.1909786463940674,0.18736204042690338,-1.8937226938458118,7,True
2023-12-07,0.18736204042690338,0.18523313778423484,-1.1362507783422182,5,True
2023-12-08,0.18523313778423484,0.18321412559381453,-1.0899843378845753,2,True
2023-12-09,0.18321412559381453,0.18321412559381453,0.0,0,False
2023-12-10,0.18321412559381453,0.18317561229974802,-0.02102091961615482,3,True
2023-12-11,0.18317561229974802,0.1838748676953978,0.3817404439765193,6,True
2023-12-12,0.1838748676953978,0.18679376368035847,1.587436076253801,1,True
2023-12-13,0.18679376368035847,0.18403656278292732,-1.4760668895505868,6,True
2023-12-14,0.18403656278292732,0.18687501228421766,1.5423291211096535,2,True
2023-12-15,0.18687501228421766,0.18448282677437944,-1.2800991853313959,4,True
2023-12-16,0.18448282677437944,0.18659963506057836,1.147428366754033,5,True
2023-12-17,0.18659963506057836,0.18589278392671138,-0.37880627882123097,5,True
2023-12-18,0.18589278392671138,0.18574896717138176,-0.07736543199349244,8,True
2023-12-19,0.18574896717138176,0.1853975209024975,-0.18920496530135944,4,True
2023-12-20,0.1853975209024975,0.18432795193594678,-0.5769057543726364,2,True
2023-12-21,0.18432795193594678,0.18076426946290422,-1.9333380725029325,3,True
2023-12-22,0.18076426946290422,0.17966009814646172,-0.6108349397385138,2,True
2023-12-23,0.17966009814646172,0.17990957426644608,0.13886005994552253,3,True
2023-12-24,0.17990957426644608,0.18628690130994213,3.544740222691667,4,True
2023-12-25,0.18628690130994213,0.18381632767682524,-1.3262197265315967,6,True
2023-12-26,0.18381632767682524,0.18008280429583493,-2.031116293191515,3,True
2023-12-27,0.18008280429583493,0.17989384520046153,-0.10492900536076544,12,True
2023-12-28,0.17989384520046153,0.17577666670341355,-2.2886711284980765,7,True
2023-12-29,0.17577666670341355,0.17620913167610364,0.24603093277435484,3,True
2023-12-30,0.17620913167610364,0.17478159746875288,-0.8101363384360516,4,True
2023-12-31,0.17478159746875288,0.17256640305431567,-1.267407122098907,3,True
