day,start_equity,end_equity,return_pct,entries,active
2024-01-02,1.0032761764537503,0.9919630700785369,-1.1276163673298312,1,True
2024-01-03,0.9919630700785369,0.9859700860306451,-0.6041539477288582,10,True
2024-01-04,0.9859700860306451,0.9973382053408577,1.1529882570757044,0,True
2024-01-05,0.9973382053408577,0.9963155647489053,-0.10253699161187901,8,True
2024-01-06,0.9963155647489053,1.0047590933358814,0.8474753266656254,7,True
2024-01-07,1.0047590933358814,1.0418253059256846,3.6890646559605056,7,True
2024-01-08,1.0418253059256846,1.0081548956340272,-3.2318671950227307,12,True
2024-01-09,1.0081548956340272,1.0139515313161236,0.574974709461773,4,True
2024-01-10,1.0139515313161236,0.9889070676275421,-2.4699862779509196,5,True
2024-01-11,0.9889070676275421,1.0289480324566942,4.049011898075849,5,True
2024-01-12,1.0289480324566942,1.021016730260606,-0.770816595776147,6,True
2024-01-13,1.021016730260606,1.015831892140843,-0.5078112792960443,7,True
2024-01-14,1.015831892140843,1.0132617797422523,-0.2530056812032333,0,True
2024-01-15,1.0132617797422523,1.0271039845950192,1.366103521272466,4,True
2024-01-16,1.0271039845950192,1.0215024026193071,-0.5453763260319433,1,True
2024-01-17,1.0215024026193071,1.029465483542087,0.7795459807398375,0,True
2024-01-18,1.029465483542087,1.028116640675204,-0.13102361258795492,1,True
2024-01-19,1.028116640675204,1.0192166379391896,-0.8656607999428356,1,True
2024-01-20,1.0192166379391896,1.0436158298228435,2.393916168106114,7,True
2024-01-21,1.0436158298228435,1.0399107294368053,-0.35502531488691424,3,True
2024-01-22,1.0399107294368053,1.0132885512208802,-2.5600445752053225,4,True
2024-01-23,1.0132885512208802,0.975761962892625,-3.70344540881673,10,True
2024-01-24,0.975761962892625,0.974922532248566,-0.08602821958446638,1,True
2024-01-25,0.974922532248566,0.9649548519780802,-1.0224074160534835,3,True
2024-01-26,0.9649548519780802,0.9604129896951897,-0.47068132499463733,0,True
2024-01-27,0.9604129896951897,0.9604129896951897,0.0,0,False
2024-01-28,0.9604129896951897,0.957535697774867,-0.2995890258872813,1,True
2024-01-29,0.957535697774867,0.9556182256652832,-0.20025071796693217,0,True
2024-01-30,0.9556182256652832,0.9556182256652832,0.0,0,False
2024-01-31,0.9556182256652832,0.9508575104305185,-0.4981817117866716,1,True
2024-02-01,0.9508575104305185,0.9508575104305185,0.0,0,False
2024-02-02,0.9508575104305185,0.949852594420881,-0.10568523660106077,3,True
2024-02-03,0.949852594420881,0.9507689809401891,0.09647670856411938,1,True
2024-02-04,0.9507689809401891,0.9518329180687135,0.1119028018217616,1,True
2024-02-05,0.9518329180687135,0.9518329180687135,0.0,0,False
2024-02-06,0.9518329180687135,0.9446169553106446,-0.7581123347478069,2,True
2024-02-07,0.9446169553106446,0.9366157585045533,-0.8470308267397253,5,True
2024-02-08,0.9366157585045533,0.9701727630436356,3.58279307542948,1,True
2024-02-09,0.9701727630436356,0.988878973753406,1.928131918596132,0,True
2024-02-10,0.988878973753406,0.9824649083104446,-0.648619862814559,2,True
2024-02-11,0.9824649083104446,0.9797327085110069,-0.27809642627707465,0,True
2024-02-12,0.9797327085110069,0.9822678640174475,0.25875991323118797,3,True
2024-02-13,0.9822678640174475,0.9841015894018044,0.18668282365026378,0,True
2024-02-14,0.9841015894018044,0.9861637006901083,0.20954252188103428,2,True
2024-02-15,0.9861637006901083,1.0037190830090934,1.7801691855723334,6,True
2024-02-16,1.0037190830090934,0.9990319276913916,-0.4669787988537566,5,True
2024-02-17,0.9990319276913916,0.9831723677730496,-1.5874927996536559,5,True
2024-02-18,0.9831723677730496,0.9760462461718443,-0.7248089790548584,4,True
2024-02-19,0.9760462461718443,0.9687972596292624,-0.7426888399000742,6,True
2024-02-20,0.9687972596292624,0.9581839336400803,-1.0955156905835706,10,True
2024-02-21,0.9581839336400803,0.9412338875247325,-1.7689762393484965,7,True
2024-02-22,0.9412338875247325,0.9637649299057627,2.393777219420201,3,True
2024-02-23,0.9637649299057627,0.9446537482450752,-1.9829712689956702,7,True
2024-02-24,0.9446537482450752,0.9474945322180146,0.30072224645452117,8,True
2024-02-25,0.9474945322180146,0.9549544994002703,0.7873361722513073,8,True
2024-02-26,0.9549544994002703,0.9683377158698773,1.4014506950867034,6,True
2024-02-27,0.9683377158698773,0.9698421378994173,0.1553612964655171,4,True
2024-02-28,0.9698421378994173,1.0150884238876268,4.665324821440375,6,True
2024-02-29,1.0150884238876268,1.0386163623445839,2.3178215713315797,12,True
2024-03-01,1.0386163623445839,1.0585459335196823,1.918857809067176,8,True
2024-03-02,1.0585459335196823,1.0658739767243117,0.6922744656213009,6,True
2024-03-03,1.0658739767243117,1.0664291756446664,0.05208860826688699,11,True
2024-03-04,1.0664291756446664,1.11156998658993,4.232893470677546,4,True
2024-03-05,1.11156998658993,1.097274573176481,-1.2860560815702082,8,True
2024-03-06,1.097274573176481,1.0716980171433381,-2.3309166783207047,16,True
2024-03-07,1.0716980171433381,1.0720265777711355,0.030657948651735545,6,True
2024-03-08,1.0720265777711355,1.0963361671697986,2.267629357586043,5,True
2024-03-09,1.0963361671697986,1.107140353760243,0.9854811794027807,6,True
2024-03-10,1.107140353760243,1.1298989869601603,2.0556231305833172,8,True
2024-03-11,1.1298989869601603,1.1582989107585664,2.5134922790587044,8,True
2024-03-12,1.1582989107585664,1.1566106619328238,-0.1457524314373182,4,True
2024-03-13,1.1566106619328238,1.1360823272689893,-1.7748699142656532,6,True
2024-03-14,1.1360823272689893,1.1677780899470898,2.7899177654046703,6,True
2024-03-15,1.1677780899470898,1.1417106742041783,-2.2322233964924387,16,True
2024-03-16,1.1417106742041783,1.159098276305908,1.5229429394491234,2,True
2024-03-17,1.159098276305908,1.1272301434010727,-2.7493900695288898,9,True
2024-03-18,1.1272301434010727,1.1370616032563725,0.8721785797562553,4,True
2024-03-19,1.1370616032563725,1.0997443695757947,-3.2819007847689985,15,True
2024-03-20,1.0997443695757947,1.092447376780684,-0.6635171769895476,5,True
2024-03-21,1.092447376780684,1.1307039971952093,3.5019188317576555,5,True
2024-03-22,1.1307039971952093,1.1226179787216017,-0.7151313247026225,7,True
2024-03-23,1.1226179787216017,1.148545688965882,2.309575540007458,5,True
2024-03-24,1.148545688965882,1.1434799785640961,-0.4410543220398133,7,True
2024-03-25,1.1434799785640961,1.1725905413576974,2.54578683836304,4,True
2024-03-26,1.1725905413576974,1.2153666389969318,3.647999547199632,7,True
2024-03-27,1.2153666389969318,1.2162168891296803,0.06995832413585479,6,True
2024-03-28,1.2162168891296803,1.1940004492043363,-1.8266840498524894,7,True
2024-03-29,1.1940004492043363,1.1764049808125856,-1.473656764825848,8,True
2024-03-30,1.1764049808125856,1.164674057352072,-0.9971841034208007,2,True
2024-03-31,1.164674057352072,1.158866016346791,-0.4986838136058269,1,True
2024-04-01,1.158866016346791,1.1494001127906923,-0.8168246736528717,6,True
2024-04-02,1.1494001127906923,1.1180919147756547,-2.7238728852238103,8,True
2024-04-03,1.1180919147756547,1.1283113050778553,0.914002701133132,4,True
2024-04-04,1.1283113050778553,1.1231444573524365,-0.45792749768311936,3,True
2024-04-05,1.1231444573524365,1.0892690557814901,-3.016121510388803,5,True
2024-04-06,1.0892690557814901,1.0727488283352278,-1.516634238214909,3,True
2024-04-07,1.0727488283352278,1.098817918339702,2.430120575841621,4,True
2024-04-08,1.098817918339702,1.0782516844869554,-1.8716689552916943,1,True
2024-04-09,1.0782516844869554,1.0666282726589056,-1.077986892603866,3,True
2024-04-10,1.0666282726589056,1.054955071765372,-1.0944019760918744,6,True
2024-04-11,1.054955071765372,1.0769658780465583,2.08642120127005,1,True
2024-04-12,1.0769658780465583,1.0746059981268197,-0.21912299803026336,8,True
2024-04-13,1.0746059981268197,1.0305182226580283,-4.102692107213457,10,True
2024-04-14,1.0305182226580283,0.9915069697449792,-3.7855956406502855,15,True
2024-04-15,0.9915069697449792,0.9998345804835619,0.8398943217438504,1,True
2024-04-16,0.9998345804835619,0.9885114991166052,-1.1324954735492776,1,True
2024-04-17,0.9885114991166052,0.9811961676581606,-0.7400350390442623,1,True
2024-04-18,0.9811961676581606,1.0130794656530586,3.2494315658605277,1,True
2024-04-19,1.0130794656530586,1.060641742817253,4.694821953925832,10,True
2024-04-20,1.060641742817253,1.0663810855405205,0.5411198231763725,0,True
2024-04-21,1.0663810855405205,1.0663810855405205,0.0,0,False
2024-04-22,1.0663810855405205,1.0663810855405205,0.0,0,False
2024-04-23,1.0663810855405205,1.0732999621474624,0.6488183915448031,4,True
2024-04-24,1.0732999621474624,1.0602486138827085,-1.2160019309644499,5,True
2024-04-25,1.0602486138827085,1.0482933210304866,-1.127593348926037,3,True
2024-04-26,1.0482933210304866,1.0433104682616612,-0.4753300120167836,1,True
2024-04-27,1.0433104682616612,1.0423912151794323,-0.08810925512522383,6,True
2024-04-28,1.0423912151794323,1.0526240611351985,0.9816703946420535,3,True
2024-04-29,1.0526240611351985,1.0580809667957871,0.518409740197634,3,True
2024-04-30,1.0580809667957871,1.0468731718459459,-1.0592568339814368,2,True
2024-05-01,1.0468731718459459,1.0322869074914467,-1.3933172371567548,6,True
2024-05-02,1.0322869074914467,1.0392678593646005,0.6762608168806583,4,True
2024-05-03,1.0392678593646005,1.0490726233867054,0.9434299284593939,3,True
2024-05-04,1.0490726233867054,1.0502530966797028,0.11252541212891654,0,True
2024-05-05,1.0502530966797028,1.0450243832857333,-0.49785269955401334,1,True
2024-05-06,1.0450243832857333,1.0398132858860043,-0.49865797229959874,1,True
2024-05-07,1.0398132858860043,1.0429704622807254,0.3036291647332545,4,True
2024-05-08,1.0429704622807254,1.0385857881336007,-0.42040252391583044,3,True
2024-05-09,1.0385857881336007,1.027656425939727,-1.052331191004885,8,True
2024-05-10,1.027656425939727,1.0130907505246987,-1.4173682027734946,4,True
2024-05-11,1.0130907505246987,0.995429383038736,-1.743315441071347,4,True
2024-05-12,0.995429383038736,0.9893781105756041,-0.6079057506479524,0,True
2024-05-13,0.9893781105756041,0.9884895573892669,-0.0898092626913094,4,True
2024-05-14,0.9884895573892669,0.9671639199878312,-2.1573963267512486,3,True
2024-05-15,0.9671639199878312,0.9506166951219986,-1.7109017948106264,3,True
2024-05-16,0.9506166951219986,0.9280759036188424,-2.3711756398580253,4,True
2024-05-17,0.9280759036188424,0.9266222968704935,-0.15662584737744512,1,True
2024-05-18,0.9266222968704935,0.9391345303923532,1.3503056816264403,2,True
2024-05-19,0.9391345303923532,0.9374586523195159,-0.1784492017493089,0,True
2024-05-20,0.9374586523195159,0.9483087652997279,1.15739643059094,2,True
2024-05-21,0.9483087652997279,0.9403548094006567,-0.838751700935414,2,True
2024-05-22,0.9403548094006567,0.9458851148035399,0.588108376497587,1,True
2024-05-23,0.9458851148035399,0.9342654502442073,-1.228443536903101,5,True
2024-05-24,0.9342654502442073,0.9514868203609766,1.8433058947291636,5,True
2024-05-25,0.9514868203609766,0.9403898995802809,-1.166271622815107,3,True
2024-05-26,0.9403898995802809,0.9500785871678237,1.030284097252343,3,True
2024-05-27,0.9500785871678237,0.9663150884374447,1.708964025599391,4,True
2024-05-28,0.9663150884374447,0.9740828529585098,0.803854210082311,2,True
2024-05-29,0.9740828529585098,0.9637993359545272,-1.0557127633187724,4,True
2024-05-30,0.9637993359545272,0.9340564796141453,-3.086000916458942,6,True
2024-05-31,0.9340564796141453,0.9215511028511513,-1.3388244753850365,3,True
2024-06-01,0.9215511028511513,0.9092207068738063,-1.338004581536112,3,True
2024-06-02,0.9092207068738063,0.9042535011445745,-0.5463146287451703,3,True
2024-06-03,0.9042535011445745,0.88857688382275,-1.7336529305091442,12,True
2024-06-04,0.88857688382275,0.8791349514001756,-1.0625903728166186,5,True
2024-06-05,0.8791349514001756,0.88222587145666,0.35158652850300065,0,True
2024-06-06,0.88222587145666,0.8751736098164093,-0.7993714385870931,3,True
2024-06-07,0.8751736098164093,0.8740513887390012,-0.12822839546584586,0,True
2024-06-08,0.8740513887390012,0.9044512491319406,3.4780403972353824,7,True
2024-06-09,0.9044512491319406,0.9056777665101671,0.13560900926430364,3,True
2024-06-10,0.9056777665101671,0.8970621441039878,-0.9512900420839188,0,True
2024-06-11,0.8970621441039878,0.8799435536192772,-1.9082948263087318,4,True
2024-06-12,0.8799435536192772,0.8721396556610205,-0.8868634727942193,4,True
2024-06-13,0.8721396556610205,0.8753095216820959,0.3634585356255604,3,True
2024-06-14,0.8753095216820959,0.8513626325200303,-2.735819566551323,6,True
2024-06-15,0.8513626325200303,0.8603436476721706,1.0548989125299668,5,True
2024-06-16,0.8603436476721706,0.8617256165278999,0.1606298668524353,0,True
2024-06-17,0.8617256165278999,0.844582561918715,-1.9893866771952817,4,True
2024-06-18,0.844582561918715,0.8511028879239352,0.7720175977121047,6,True
2024-06-19,0.8511028879239352,0.8670407655252486,1.8726146776672392,2,True
2024-06-20,0.8670407655252486,0.8721495981426486,0.5892263455807845,1,True
2024-06-21,0.8721495981426486,0.8677043851123531,-0.5096846962679424,1,True
2024-06-22,0.8677043851123531,0.8595552696633422,-0.9391580345598727,3,True
2024-06-23,0.8595552696633422,0.8618383828478798,0.26561563463298743,2,True
2024-06-24,0.8618383828478798,0.862631535741216,0.09203035152776096,2,True
2024-06-25,0.862631535741216,0.8669648563344056,0.5023373727539582,1,True
2024-06-26,0.8669648563344056,0.8665139885270415,-0.05200531533311459,0,True
2024-06-27,0.8665139885270415,0.8622084770416163,-0.49687732020853304,1,True
2024-06-28,0.8622084770416163,0.8593898361454252,-0.32690943910251846,2,True
2024-06-29,0.8593898361454252,0.8345263132311147,-2.8931599919577278,7,True
2024-06-30,0.8345263132311147,0.8455179173567413,1.3171069565283577,0,True
2024-07-01,0.8455179173567413,0.8371267386331783,-0.99243062167097,2,True
2024-07-02,0.8371267386331783,0.8371267386331783,0.0,0,False
2024-07-03,0.8371267386331783,0.8329653067785834,-0.4971089397275197,1,True
2024-07-04,0.8329653067785834,0.8148140576811576,-2.1791122571027777,5,True
2024-07-05,0.8148140576811576,0.7665040982282079,-5.928955078466958,19,True
2024-07-06,0.7665040982282079,0.7773684547297871,1.4173905301605672,1,True
2024-07-07,0.7773684547297871,0.7757826204864731,-0.20400033390411965,2,True
2024-07-08,0.7757826204864731,0.7746200920146137,-0.14985234795932278,2,True
2024-07-09,0.7746200920146137,0.7921586883086215,2.2641545803948615,2,True
2024-07-10,0.7921586883086215,0.7935418745105854,0.17460973696030724,1,True
2024-07-11,0.7935418745105854,0.7834219210175951,-1.2752891583990844,3,True
2024-07-12,0.7834219210175951,0.7834781344491091,0.00717537127898904,0,True
2024-07-13,0.7834781344491091,0.7784900423639386,-0.6366600248107424,2,True
2024-07-14,0.7784900423639386,0.7818578558271201,0.4326084188507995,2,True
2024-07-15,0.7818578558271201,0.7818578558271201,0.0,0,False
2024-07-16,0.7818578558271201,0.7740838182500065,-0.9943031868483998,2,True
2024-07-17,0.7740838182500065,0.7799591674168144,0.7590068450326726,1,True
2024-07-18,0.7799591674168144,0.7814182532455137,0.18707207885404475,0,True
2024-07-19,0.7814182532455137,0.7798451172240894,-0.20131805404985936,2,True
2024-07-20,0.7798451172240894,0.7773315325133988,-0.32231845210981547,2,True
2024-07-21,0.7773315325133988,0.7818756265155462,0.5845760543708556,1,True
2024-07-22,0.7818756265155462,0.7802508492203457,-0.20780508307202128,1,True
2024-07-23,0.7802508492203457,0.7761639262523058,-0.5237960294594668,3,True
2024-07-24,0.7761639262523058,0.770451852168213,-0.7359365581022903,1,True
2024-07-25,0.770451852168213,0.7644466876110342,-0.7794341126287185,3,True
2024-07-26,0.7644466876110342,0.7538276872347652,-1.3891093451466552,1,True
2024-07-27,0.7538276872347652,0.7579835123458987,0.5512964277523569,1,True
2024-07-28,0.7579835123458987,0.7463526516047331,-1.5344477223744657,2,True
2024-07-29,0.7463526516047331,0.7463526516047331,0.0,0,False
2024-07-30,0.7463526516047331,0.7422469628692207,-0.5501003750284506,2,True
2024-07-31,0.7422469628692207,0.7358186877554039,-0.8660561019970592,7,True
2024-08-01,0.7358186877554039,0.7263855955656383,-1.2819859493567676,1,True
2024-08-02,0.7263855955656383,0.7119868345082114,-1.9822476031087222,4,True
2024-08-03,0.7119868345082114,0.7120336762330676,0.006579015592111936,9,True
2024-08-04,0.7120336762330676,0.678281808268264,-4.740206691257065,6,True
2024-08-05,0.678281808268264,0.6593029093992551,-2.798084606966589,20,True
2024-08-06,0.6593029093992551,0.6736956127147815,2.1830183228890743,0,True
2024-08-07,0.6736956127147815,0.6732325728364896,-0.06873131864789661,1,True
2024-08-08,0.6732325728364896,0.6703395049543581,-0.4297278531759541,0,True
2024-08-09,0.6703395049543581,0.6703395049543581,0.0,0,False
2024-08-10,0.6703395049543581,0.6703395049543581,0.0,0,False
2024-08-11,0.6703395049543581,0.6669912565129552,-0.4994854721609876,1,True
2024-08-12,0.6669912565129552,0.6748068419719532,1.1717673031964582,3,True
2024-08-13,0.6748068419719532,0.6682706263544936,-0.9686054157896695,0,True
2024-08-14,0.6682706263544936,0.6682706263544936,0.0,0,False
2024-08-15,0.6682706263544936,0.6682706263544936,0.0,0,False
2024-08-16,0.6682706263544936,0.6682706263544936,0.0,0,False
2024-08-17,0.6682706263544936,0.6950693896486833,4.010166276554816,1,True
2024-08-18,0.6950693896486833,0.7145644406543428,2.80476327917607,4,True
2024-08-19,0.7145644406543428,0.6990703140517511,-2.1683316046910095,6,True
2024-08-20,0.6990703140517511,0.6966768786078851,-0.34237406391839365,3,True
2024-08-21,0.6966768786078851,0.6957473926599171,-0.13341707992738927,1,True
2024-08-22,0.6957473926599171,0.6986805836522205,0.42158849939624155,2,True
2024-08-23,0.6986805836522205,0.6991730048439905,0.0704787285193964,0,True
2024-08-24,0.6991730048439905,0.6979054642098961,-0.18129141504501511,3,True
2024-08-25,0.6979054642098961,0.6964998616536927,-0.20140300202330375,2,True
2024-08-26,0.6964998616536927,0.6899268651002376,-0.943718285578532,2,True
2024-08-27,0.6899268651002376,0.6896881843731474,-0.03459507654561822,1,True
2024-08-28,0.6896881843731474,0.6857043119902294,-0.5776338457267993,4,True
2024-08-29,0.6857043119902294,0.6832004682000372,-0.3651491971699672,3,True
2024-08-30,0.6832004682000372,0.6859387052169525,0.4007955416262421,0,True
2024-08-31,0.6859387052169525,0.6859387052169525,0.0,0,False
2024-09-01,0.6859387052169525,0.6825400905588841,-0.49546914793116015,1,True
2024-09-02,0.6825400905588841,0.6838641848591615,0.19399509546658145,1,True
2024-09-03,0.6838641848591615,0.6828972329050924,-0.1413953202225593,1,True
2024-09-04,0.6828972329050924,0.6824912557641424,-0.05944922916483186,0,True
2024-09-05,0.6824912557641424,0.6775578873285845,-0.7228471271817694,2,True
2024-09-06,0.6775578873285845,0.6753664493029415,-0.32343185233709715,1,True
2024-09-07,0.6753664493029415,0.6723303772666865,-0.44954439762125986,0,True
2024-09-08,0.6723303772666865,0.6723303772666865,0.0,0,False
2024-09-09,0.6723303772666865,0.6723303772666865,0.0,0,False
2024-09-10,0.6723303772666865,0.6723303772666865,0.0,0,False
2024-09-11,0.6723303772666865,0.6656506881505637,-0.9935129129935549,2,True
2024-09-12,0.6656506881505637,0.6656506881505637,0.0,0,False
2024-09-13,0.6656506881505637,0.6623365583599811,-0.4978782189485331,1,True
2024-09-14,0.6623365583599811,0.6623365583599811,0.0,0,False
2024-09-15,0.6623365583599811,0.6662668094528507,0.5933918403358662,3,True
2024-09-16,0.6662668094528507,0.6577530524852094,-1.277829969443156,1,True
2024-09-17,0.6577530524852094,0.6544764270737479,-0.49815434517276325,1,True
2024-09-18,0.6544764270737479,0.6446841872383337,-1.4961944281471906,3,True
2024-09-19,0.6446841872383337,0.6464409320700357,0.2724969630832019,2,True
2024-09-20,0.6464409320700357,0.6551843725329975,1.35255056250283,3,True
2024-09-21,0.6551843725329975,0.6434171473976061,-1.7960173698738147,7,True
2024-09-22,0.6434171473976061,0.6441541628772375,0.11454706835407613,3,True
2024-09-23,0.6441541628772375,0.6495909733190527,0.8440231787885555,0,True
2024-09-24,0.6495909733190527,0.6495909733190527,0.0,0,False
2024-09-25,0.6495909733190527,0.6495909733190527,0.0,0,False
2024-09-26,0.6495909733190527,0.6495909733190527,0.0,0,False
2024-09-27,0.6495909733190527,0.6463514903674145,-0.49869580777673894,1,True
2024-09-28,0.6463514903674145,0.6463514903674145,0.0,0,False
2024-09-29,0.6463514903674145,0.6463514903674145,0.0,0,False
2024-09-30,0.6463514903674145,0.6415198410831937,-0.7475265944655307,2,True
2024-10-01,0.6415198410831937,0.6440285585651248,0.3910584398598038,0,True
2024-10-02,0.6440285585651248,0.6231395026267165,-3.2434983915850646,13,True
2024-10-03,0.6231395026267165,0.6253902240186198,0.3611906134045162,3,True
2024-10-04,0.6253902240186198,0.6293323639695739,0.6303488285478442,2,True
2024-10-05,0.6293323639695739,0.6269347623998136,-0.3809754125208564,0,True
2024-10-06,0.6269347623998136,0.6269347623998136,0.0,0,False
2024-10-07,0.6269347623998136,0.6269347623998136,0.0,0,False
2024-10-08,0.6269347623998136,0.6206879328610535,-0.9964082251314621,2,True
2024-10-09,0.6206879328610535,0.6206879328610535,0.0,0,False
2024-10-10,0.6206879328610535,0.6206879328610535,0.0,0,False
2024-10-11,0.6206879328610535,0.6192340277355702,-0.23424092019664888,1,True
2024-10-12,0.6192340277355702,0.62014080651044,0.14643555332152225,1,True
2024-10-13,0.62014080651044,0.6190860471305536,-0.1700838533464033,0,True
2024-10-14,0.6190860471305536,0.6190860471305536,0.0,0,False
2024-10-15,0.6190860471305536,0.6130257562640136,-0.9789092961518531,3,True
2024-10-16,0.6130257562640136,0.604301831384175,-1.4230927152237616,5,True
2024-10-17,0.604301831384175,0.6011460915557594,-0.5222125210488482,2,True
2024-10-18,0.6011460915557594,0.6194845375225589,3.05058058671559,3,True
2024-10-19,0.6194845375225589,0.6279723848051448,1.3701467540304435,2,True
2024-10-20,0.6279723848051448,0.6319892667074724,0.6396590040458339,3,True
2024-10-21,0.6319892667074724,0.6241477154318391,-1.2407728562363163,4,True
2024-10-22,0.6241477154318391,0.6189897185886777,-0.8264064284193795,2,True
2024-10-23,0.6189897185886777,0.609713630210516,-1.4985852106415454,4,True
2024-10-24,0.609713630210516,0.600815939126427,-1.4593229744621294,3,True
2024-10-25,0.600815939126427,0.5944766864416585,-1.055107275280609,3,True
2024-10-26,0.5944766864416585,0.5831410756991735,-1.9068217477688276,9,True
2024-10-27,0.5831410756991735,0.5917449967956528,1.4754441858110257,0,True
2024-10-28,0.5917449967956528,0.5887956082601924,-0.49842221758217287,1,True
2024-10-29,0.5887956082601924,0.6039186879604089,2.568476987269497,2,True
2024-10-30,0.6039186879604089,0.6067683684918569,0.4718649361674876,0,True
2024-10-31,0.6067683684918569,0.60440922302533,-0.3888049524385484,1,True
2024-11-01,0.60440922302533,0.602045852535303,-0.39102157941887095,3,True
2024-11-02,0.602045852535303,0.5948858866642246,-1.189272518185569,1,True
2024-11-03,0.5948858866642246,0.5868893330218266,-1.3442163987513744,3,True
2024-11-04,0.5868893330218266,0.5950488487144946,1.390298857649297,4,True
2024-11-05,0.5950488487144946,0.5874653135253775,-1.2744390994958055,1,True
2024-11-06,0.5874653135253775,0.5920180347903561,0.7749770344154916,3,True
2024-11-07,0.5920180347903561,0.5889631131426781,-0.5160183420357733,4,True
2024-11-08,0.5889631131426781,0.5831420220293813,-0.9883625957890274,2,True
2024-11-09,0.5831420220293813,0.5842876945977903,0.19646544497375906,2,True
2024-11-10,0.5842876945977903,0.5921022529450739,1.3374504408590893,7,True
2024-11-11,0.5921022529450739,0.5798254688879411,-2.0734229596440445,7,True
2024-11-12,0.5798254688879411,0.5687572895241371,-1.9088811992049703,9,True
2024-11-13,0.5687572895241371,0.5818132328038731,2.2955210456572006,6,True
2024-11-14,0.5818132328038731,0.575598217596401,-1.0682148251459966,6,True
2024-11-15,0.575598217596401,0.58184037937572,1.0844650988297344,8,True
2024-11-16,0.58184037937572,0.5940689754365233,2.101709763410353,7,True
2024-11-17,0.5940689754365233,0.5836479554127073,-1.7541767799199692,8,True
2024-11-18,0.5836479554127073,0.5918151108813731,1.3993290635089473,5,True
2024-11-19,0.5918151108813731,0.5870811659298747,-0.7999026831958078,7,True
2024-11-20,0.5870811659298747,0.5807018192180102,-1.0866209107151747,3,True
2024-11-21,0.5807018192180102,0.5922398839346983,1.9869172671484803,6,True
2024-11-22,0.5922398839346983,0.5882955059638607,-0.6660101890862302,4,True
2024-11-23,0.5882955059638607,0.617120435702569,4.899736517871522,0,True
2024-11-24,0.617120435702569,0.6098771814364803,-1.1737181021792886,12,True
2024-11-25,0.6098771814364803,0.6262910864570675,2.6913459824692287,1,True
2024-11-26,0.6262910864570675,0.603729619216734,-3.602393156824879,12,True
2024-11-27,0.603729619216734,0.6102651854496262,1.0825319853233761,3,True
2024-11-28,0.6102651854496262,0.6060347575505667,-0.6932114103711529,3,True
2024-11-29,0.6060347575505667,0.6129226425956348,1.1365495063199171,5,True
2024-11-30,0.6129226425956348,0.6311096391559621,2.9672580675610405,3,True
2024-12-01,0.6311096391559621,0.6259681339358869,-0.8146770229894407,4,True
2024-12-02,0.6259681339358869,0.6257197183617036,-0.039685019207180705,9,True
2024-12-03,0.6257197183617036,0.6348227716653269,1.4548132392978363,8,True
2024-12-04,0.6348227716653269,0.6423425793085088,1.1845522843257905,6,True
2024-12-05,0.6423425793085088,0.6410716774526128,-0.19785421313095464,9,True
2024-12-06,0.6410716774526128,0.6309230154799176,-1.583077576133507,6,True
2024-12-07,0.6309230154799176,0.629745775847716,-0.18659005985162125,4,True
2024-12-08,0.629745775847716,0.6272797131466085,-0.3915965450959735,0,True
2024-12-09,0.6272797131466085,0.6263586189859648,-0.1468394627371583,2,True
2024-12-10,0.6263586189859648,0.5863989496953537,-6.379679001672123,21,True
2024-12-11,0.5863989496953537,0.6133609232287103,4.597889124351928,5,True
2024-12-12,0.6133609232287103,0.6069413356997776,-1.0466247988444088,2,True
2024-12-13,0.6069413356997776,0.6066169652098969,-0.05344346657599752,1,True
2024-12-14,0.6066169652098969,0.6085641611773032,0.32099266573140106,0,True
2024-12-15,0.6085641611773032,0.5983549668117695,-1.6775871825549848,4,True
2024-12-16,0.5983549668117695,0.5965217451787163,-0.30637693923077913,0,True
2024-12-17,0.5965217451787163,0.5965217451787163,0.0,0,False
2024-12-18,0.5965217451787163,0.5876523433557983,-1.486853060194937,4,True
2024-12-19,0.5876523433557983,0.5788584159162594,-1.4964506717221604,11,True
2024-12-20,0.5788584159162594,0.5361883729750994,-7.371412726826954,21,True
2024-12-21,0.5361883729750994,0.559185744033459,4.28904695018959,3,True
2024-12-22,0.559185744033459,0.5682734938925506,1.6251755263896328,2,True
2024-12-23,0.5682734938925506,0.581794335585393,2.3792842422101224,3,True
2024-12-24,0.581794335585393,0.5800079283488737,-0.30705132849424555,0,True
2024-12-25,0.5800079283488737,0.5878107955282219,1.3453035377569478,4,True
2024-12-26,0.5878107955282219,0.5816557802422068,-1.0471082417743083,3,True
2024-12-27,0.5816557802422068,0.5789524794679732,-0.4647595478390776,0,True
2024-12-28,0.5789524794679732,0.5697979565071065,-1.581221824851542,4,True
2024-12-29,0.5697979565071065,0.5991926922635975,5.158799785222534,5,True
2024-12-30,0.5991926922635975,0.5939266572231706,-0.8788550174958165,4,True
2024-12-31,0.5939266572231706,0.5891316317210987,-0.8073430353320754,3,True
