day,start_equity,end_equity,return_pct,entries,active
2024-01-02,1.0,1.0,0.0,0,False
2024-01-03,1.0,1.0101188661844145,1.0118866184414488,4,True
2024-01-04,1.0101188661844145,1.0120595486172979,0.19212416457619064,1,True
2024-01-05,1.0120595486172979,1.0120595486172979,0.0,0,False
2024-01-06,1.0120595486172979,1.0120595486172979,0.0,0,False
2024-01-07,1.0120595486172979,1.0120595486172979,0.0,0,False
2024-01-08,1.0120595486172979,1.0091602977803087,-0.2864703802212265,1,True
2024-01-09,1.0091602977803087,1.0091902037021978,0.002963446139814252,0,True
2024-01-10,1.0091902037021978,1.0082775905138457,-0.09043024644950215,1,True
2024-01-11,1.0082775905138457,1.0082775905138457,0.0,0,False
2024-01-12,1.0082775905138457,1.0082775905138457,0.0,0,False
2024-01-13,1.0082775905138457,1.0082775905138457,0.0,0,False
2024-01-14,1.0082775905138457,1.0082775905138457,0.0,0,False
2024-01-15,1.0082775905138457,1.0082775905138457,0.0,0,False
2024-01-16,1.0082775905138457,1.0082775905138457,0.0,0,False
2024-01-17,1.0082775905138457,1.0082775905138457,0.0,0,False
2024-01-18,1.0082775905138457,1.0082775905138457,0.0,0,False
2024-01-19,1.0082775905138457,1.0082775905138457,0.0,0,False
2024-01-20,1.0082775905138457,1.0082775905138457,0.0,0,False
2024-01-21,1.0082775905138457,1.0082775905138457,0.0,0,False
2024-01-22,1.0082775905138457,1.0082775905138457,0.0,0,False
2024-01-23,1.0082775905138457,0.9982409229106435,-0.9954270230370987,2,True
2024-01-24,0.9982409229106435,0.9982409229106435,0.0,0,False
2024-01-25,0.9982409229106435,0.9982409229106435,0.0,0,False
2024-01-26,0.9982409229106435,0.9982409229106435,0.0,0,False
2024-01-27,0.9982409229106435,0.9982409229106435,0.0,0,False
2024-01-28,0.9982409229106435,0.9950590910304824,-0.31874388307819856,2,True
2024-01-29,0.9950590910304824,0.9949829296073611,-0.007653959830911106,0,True
2024-01-30,0.9949829296073611,0.9949829296073611,0.0,0,False
2024-01-31,0.9949829296073611,0.9949829296073611,0.0,0,False
2024-02-01,0.9949829296073611,0.9949829296073611,0.0,0,False
2024-02-02,0.9949829296073611,0.9949829296073611,0.0,0,False
2024-02-03,0.9949829296073611,0.9949829296073611,0.0,0,False
2024-02-04,0.9949829296073611,0.9949829296073611,0.0,0,False
2024-02-05,0.9949829296073611,0.9949829296073611,0.0,0,False
2024-02-06,0.9949829296073611,0.9883077387511285,-0.6708849627065194,2,True
2024-02-07,0.9883077387511285,0.9850736421657599,-0.327235784822999,0,True
2024-02-08,0.9850736421657599,0.9850736421657599,0.0,0,False
2024-02-09,0.9850736421657599,0.9850736421657599,0.0,0,False
2024-02-10,0.9850736421657599,0.9850736421657599,0.0,0,False
2024-02-11,0.9850736421657599,0.9850736421657599,0.0,0,False
2024-02-12,0.9850736421657599,0.9850736421657599,0.0,0,False
2024-02-13,0.9850736421657599,0.9850736421657599,0.0,0,False
2024-02-14,0.9850736421657599,0.9850736421657599,0.0,0,False
2024-02-15,0.9850736421657599,0.9943969336904488,0.9464562978449997,1,True
2024-02-16,0.9943969336904488,0.9943969336904488,0.0,0,False
2024-02-17,0.9943969336904488,0.9943969336904488,0.0,0,False
2024-02-18,0.9943969336904488,0.9943969336904488,0.0,0,False
2024-02-19,0.9943969336904488,0.9943969336904488,0.0,0,False
2024-02-20,0.9943969336904488,0.9943969336904488,0.0,0,False
2024-02-21,0.9943969336904488,1.0121062030686683,1.7809054692572435,5,True
2024-02-22,1.0121062030686683,1.0251931309071936,1.2930389912487739,1,True
2024-02-23,1.0251931309071936,1.0251931309071936,0.0,0,False
2024-02-24,1.0251931309071936,1.0251931309071936,0.0,0,False
2024-02-25,1.0251931309071936,1.0251931309071936,0.0,0,False
2024-02-26,1.0251931309071936,1.0240335327718149,-0.11311021313150649,1,True
2024-02-27,1.0240335327718149,1.0229580156986922,-0.10502752485179734,1,True
2024-02-28,1.0229580156986922,1.0229580156986922,0.0,0,False
2024-02-29,1.0229580156986922,1.030995648384126,0.7857245910472876,2,True
2024-03-01,1.030995648384126,1.030995648384126,0.0,0,False
2024-03-02,1.030995648384126,1.030995648384126,0.0,0,False
2024-03-03,1.030995648384126,1.047330676774358,1.5843935341369964,4,True
2024-03-04,1.047330676774358,1.0502924856577252,0.28279596397282614,0,True
2024-03-05,1.0502924856577252,1.0500198653911639,-0.025956604496746305,1,True
2024-03-06,1.0500198653911639,1.057508617829779,0.7132010246134968,1,True
2024-03-07,1.057508617829779,1.0553678881634057,-0.20243141571427703,2,True
2024-03-08,1.0553678881634057,1.0563255166610654,0.09073883224988144,0,True
2024-03-09,1.0563255166610654,1.0563255166610654,0.0,0,False
2024-03-10,1.0563255166610654,1.0563255166610654,0.0,0,False
2024-03-11,1.0563255166610654,1.0563255166610654,0.0,0,False
2024-03-12,1.0563255166610654,1.0663632570968289,0.9502506829042412,1,True
2024-03-13,1.0663632570968289,1.0663632570968289,0.0,0,False
2024-03-14,1.0663632570968289,1.0663632570968289,0.0,0,False
2024-03-15,1.0663632570968289,1.0663632570968289,0.0,0,False
2024-03-16,1.0663632570968289,1.0663632570968289,0.0,0,False
2024-03-17,1.0663632570968289,1.063630950895376,-0.25622658913544427,1,True
2024-03-18,1.063630950895376,1.0629985039235463,-0.059461129003191004,1,True
2024-03-19,1.0629985039235463,1.0538324199460103,-0.8622856893686914,1,True
2024-03-20,1.0538324199460103,1.0538324199460103,0.0,0,False
2024-03-21,1.0538324199460103,1.043334307638404,-0.9961842233079166,2,True
2024-03-22,1.043334307638404,1.043334307638404,0.0,0,False
2024-03-23,1.043334307638404,1.0447842807434715,0.13897492821350887,1,True
2024-03-24,1.0447842807434715,1.0447842807434715,0.0,0,False
2024-03-25,1.0447842807434715,1.0447842807434715,0.0,0,False
2024-03-26,1.0447842807434715,1.0485774962970424,0.36306208118594974,1,True
2024-03-27,1.0485774962970424,1.0471389131477455,-0.13719378437713203,2,True
2024-03-28,1.0471389131477455,1.0471389131477455,0.0,0,False
2024-03-29,1.0471389131477455,1.0419102145041348,-0.49933190123677695,1,True
2024-03-30,1.0419102145041348,1.0419102145041348,0.0,0,False
2024-03-31,1.0419102145041348,1.0419102145041348,0.0,0,False
2024-04-01,1.0419102145041348,1.0419102145041348,0.0,0,False
2024-04-02,1.0419102145041348,1.0419102145041348,0.0,0,False
2024-04-03,1.0419102145041348,1.0419102145041348,0.0,0,False
2024-04-04,1.0419102145041348,1.0419102145041348,0.0,0,False
2024-04-05,1.0419102145041348,1.0411720816247358,-0.07084419263038155,2,True
2024-04-06,1.0411720816247358,1.0393172861375073,-0.17814495028853905,0,True
2024-04-07,1.0393172861375073,1.0424732413661566,0.30365657059145956,1,True
2024-04-08,1.0424732413661566,1.041767721695948,-0.0676774848708872,0,True
2024-04-09,1.041767721695948,1.039401733625643,-0.22711282189213922,1,True
2024-04-10,1.039401733625643,1.0313859453413086,-0.7711925067099612,1,True
2024-04-11,1.0313859453413086,1.0313859453413086,0.0,0,False
2024-04-12,1.0313859453413086,1.041009069837032,0.9330284690411306,1,True
2024-04-13,1.041009069837032,1.037344291276056,-0.3520409828465465,8,True
2024-04-14,1.037344291276056,1.0242629963726806,-1.2610369588368586,5,True
2024-04-15,1.0242629963726806,1.0262519295318815,0.1941818816304508,1,True
2024-04-16,1.0262519295318815,1.0191438716555152,-0.6926230949556911,0,True
2024-04-17,1.0191438716555152,1.016406591034886,-0.2685862807753181,1,True
2024-04-18,1.016406591034886,1.0166312337733474,0.022101660933993017,0,True
2024-04-19,1.0166312337733474,1.0166312337733474,0.0,0,False
2024-04-20,1.0166312337733474,1.0166312337733474,0.0,0,False
2024-04-21,1.0166312337733474,1.0166312337733474,0.0,0,False
2024-04-22,1.0166312337733474,1.0166312337733474,0.0,0,False
2024-04-23,1.0166312337733474,1.0166312337733474,0.0,0,False
2024-04-24,1.0166312337733474,1.0166312337733474,0.0,0,False
2024-04-25,1.0166312337733474,1.0240841894310624,0.7331031558072798,1,True
2024-04-26,1.0240841894310624,1.0261760034628566,0.20426192039508795,0,True
2024-04-27,1.0261760034628566,1.0210491913037627,-0.49960359059200155,1,True
2024-04-28,1.0210491913037627,1.0210491913037627,0.0,0,False
2024-04-29,1.0210491913037627,1.030554506858746,0.9309361033669861,1,True
2024-04-30,1.030554506858746,1.030554506858746,0.0,0,False
2024-05-01,1.030554506858746,1.030554506858746,0.0,0,False
2024-05-02,1.030554506858746,1.030554506858746,0.0,0,False
2024-05-03,1.030554506858746,1.030554506858746,0.0,0,False
2024-05-04,1.030554506858746,1.030554506858746,0.0,0,False
2024-05-05,1.030554506858746,1.030554506858746,0.0,0,False
2024-05-06,1.030554506858746,1.030554506858746,0.0,0,False
2024-05-07,1.030554506858746,1.027740393541511,-0.2730678773908646,1,True
2024-05-08,1.027740393541511,1.02774763234818,0.0007043419441687959,0,True
2024-05-09,1.02774763234818,1.0249663467526469,-0.27061950891372755,1,True
2024-05-10,1.0249663467526469,1.0249663467526469,0.0,0,False
2024-05-11,1.0249663467526469,1.0253300698636074,0.035486346660351664,1,True
2024-05-12,1.0253300698636074,1.0198473733060427,-0.5347250333050391,0,True
2024-05-13,1.0198473733060427,1.0294415526552763,0.9407465862398601,1,True
2024-05-14,1.0294415526552763,1.0294415526552763,0.0,0,False
2024-05-15,1.0294415526552763,1.0294415526552763,0.0,0,False
2024-05-16,1.0294415526552763,1.0294415526552763,0.0,0,False
2024-05-17,1.0294415526552763,1.0294415526552763,0.0,0,False
2024-05-18,1.0294415526552763,1.0294415526552763,0.0,0,False
2024-05-19,1.0294415526552763,1.0294415526552763,0.0,0,False
2024-05-20,1.0294415526552763,1.0294415526552763,0.0,0,False
2024-05-21,1.0294415526552763,1.0294415526552763,0.0,0,False
2024-05-22,1.0294415526552763,1.0294415526552763,0.0,0,False
2024-05-23,1.0294415526552763,1.0390839235496039,0.9366603542917629,1,True
2024-05-24,1.0390839235496039,1.0422223631974081,0.30203909199970624,1,True
2024-05-25,1.0422223631974081,1.0422223631974081,0.0,0,False
2024-05-26,1.0422223631974081,1.0422223631974081,0.0,0,False
2024-05-27,1.0422223631974081,1.0422223631974081,0.0,0,False
2024-05-28,1.0422223631974081,1.0422223631974081,0.0,0,False
2024-05-29,1.0422223631974081,1.0422223631974081,0.0,0,False
2024-05-30,1.0422223631974081,1.0422223631974081,0.0,0,False
2024-05-31,1.0422223631974081,1.0422223631974081,0.0,0,False
2024-06-01,1.0422223631974081,1.0422223631974081,0.0,0,False
2024-06-02,1.0422223631974081,1.0422223631974081,0.0,0,False
2024-06-03,1.0422223631974081,1.0333318660976025,-0.8530326553856216,3,True
2024-06-04,1.0333318660976025,1.034539415135783,0.11685975026984874,1,True
2024-06-05,1.034539415135783,1.034539415135783,0.0,0,False
2024-06-06,1.034539415135783,1.0293734109177388,-0.49935305919360795,1,True
2024-06-07,1.0293734109177388,1.0293734109177388,0.0,0,False
2024-06-08,1.0293734109177388,1.0566226748250584,2.647169979164854,5,True
2024-06-09,1.0566226748250584,1.0566226748250584,0.0,0,False
2024-06-10,1.0566226748250584,1.0566226748250584,0.0,0,False
2024-06-11,1.0566226748250584,1.0566226748250584,0.0,0,False
2024-06-12,1.0566226748250584,1.0566226748250584,0.0,0,False
2024-06-13,1.0566226748250584,1.0490188858025775,-0.7196314449469776,2,True
2024-06-14,1.0490188858025775,1.0437821171747188,-0.49920632495116246,1,True
2024-06-15,1.0437821171747188,1.0530992239645414,0.8926294708939686,1,True
2024-06-16,1.0530992239645414,1.0530992239645414,0.0,0,False
2024-06-17,1.0530992239645414,1.0530992239645414,0.0,0,False
2024-06-18,1.0530992239645414,1.061348638620752,0.7833463807099372,4,True
2024-06-19,1.061348638620752,1.061348638620752,0.0,0,False
2024-06-20,1.061348638620752,1.061348638620752,0.0,0,False
2024-06-21,1.061348638620752,1.061348638620752,0.0,0,False
2024-06-22,1.061348638620752,1.061348638620752,0.0,0,False
2024-06-23,1.061348638620752,1.0706103332159904,0.8726345197252128,1,True
2024-06-24,1.0706103332159904,1.0710615995231465,0.04215037844819136,1,True
2024-06-25,1.0710615995231465,1.0807412090438067,0.9037397592229768,0,True
2024-06-26,1.0807412090438067,1.0807412090438067,0.0,0,False
2024-06-27,1.0807412090438067,1.0811794076026147,0.04054611364321392,1,True
2024-06-28,1.0811794076026147,1.0753385337668175,-0.5402316946406249,0,True
2024-06-29,1.0753385337668175,1.0646311608365338,-0.9957211235402164,2,True
2024-06-30,1.0646311608365338,1.0646311608365338,0.0,0,False
2024-07-01,1.0646311608365338,1.0646311608365338,0.0,0,False
2024-07-02,1.0646311608365338,1.0646311608365338,0.0,0,False
2024-07-03,1.0646311608365338,1.0646311608365338,0.0,0,False
2024-07-04,1.0646311608365338,1.0646311608365338,0.0,0,False
2024-07-05,1.0646311608365338,1.083469626873183,1.769482871593464,5,True
2024-07-06,1.083469626873183,1.083469626873183,0.0,0,False
2024-07-07,1.083469626873183,1.0808988418739756,-0.23727337946948257,1,True
2024-07-08,1.0808988418739756,1.078052278738817,-0.2633514834952999,0,True
2024-07-09,1.078052278738817,1.078052278738817,0.0,0,False
2024-07-10,1.078052278738817,1.078052278738817,0.0,0,False
2024-07-11,1.078052278738817,1.078052278738817,0.0,0,False
2024-07-12,1.078052278738817,1.078052278738817,0.0,0,False
2024-07-13,1.078052278738817,1.078052278738817,0.0,0,False
2024-07-14,1.078052278738817,1.078052278738817,0.0,0,False
2024-07-15,1.078052278738817,1.078052278738817,0.0,0,False
2024-07-16,1.078052278738817,1.0726649881686499,-0.49972442676615714,1,True
2024-07-17,1.0726649881686499,1.067309435466696,-0.4992754271860078,1,True
2024-07-18,1.067309435466696,1.067309435466696,0.0,0,False
2024-07-19,1.067309435466696,1.067309435466696,0.0,0,False
2024-07-20,1.067309435466696,1.0688408707201356,0.14348559120249682,1,True
2024-07-21,1.0688408707201356,1.0688408707201356,0.0,0,False
2024-07-22,1.0688408707201356,1.0688408707201356,0.0,0,False
2024-07-23,1.0688408707201356,1.0634982678887162,-0.49985016271129057,1,True
2024-07-24,1.0634982678887162,1.0634982678887162,0.0,0,False
2024-07-25,1.0634982678887162,1.0634982678887162,0.0,0,False
2024-07-26,1.0634982678887162,1.0634982678887162,0.0,0,False
2024-07-27,1.0634982678887162,1.0634982678887162,0.0,0,False
2024-07-28,1.0634982678887162,1.0634982678887162,0.0,0,False
2024-07-29,1.0634982678887162,1.0634982678887162,0.0,0,False
2024-07-30,1.0634982678887162,1.0634982678887162,0.0,0,False
2024-07-31,1.0634982678887162,1.0581887942769144,-0.4992460986647629,1,True
2024-08-01,1.0581887942769144,1.0581887942769144,0.0,0,False
2024-08-02,1.0581887942769144,1.0581887942769144,0.0,0,False
2024-08-03,1.0581887942769144,1.052906922420248,-0.49914267522322975,1,True
2024-08-04,1.052906922420248,1.052906922420248,0.0,0,False
2024-08-05,1.052906922420248,1.0318820991157769,-1.9968358889827398,4,True
2024-08-06,1.0318820991157769,1.0318820991157769,0.0,0,False
2024-08-07,1.0318820991157769,1.0318820991157769,0.0,0,False
2024-08-08,1.0318820991157769,1.0318820991157769,0.0,0,False
2024-08-09,1.0318820991157769,1.0318820991157769,0.0,0,False
2024-08-10,1.0318820991157769,1.0318820991157769,0.0,0,False
2024-08-11,1.0318820991157769,1.0318820991157769,0.0,0,False
2024-08-12,1.0318820991157769,1.0318820991157769,0.0,0,False
2024-08-13,1.0318820991157769,1.0318820991157769,0.0,0,False
2024-08-14,1.0318820991157769,1.0318820991157769,0.0,0,False
2024-08-15,1.0318820991157769,1.0318820991157769,0.0,0,False
2024-08-16,1.0318820991157769,1.0318820991157769,0.0,0,False
2024-08-17,1.0318820991157769,1.0318820991157769,0.0,0,False
2024-08-18,1.0318820991157769,1.0318820991157769,0.0,0,False
2024-08-19,1.0318820991157769,1.0318820991157769,0.0,0,False
2024-08-20,1.0318820991157769,1.0318820991157769,0.0,0,False
2024-08-21,1.0318820991157769,1.0318820991157769,0.0,0,False
2024-08-22,1.0318820991157769,1.0318820991157769,0.0,0,False
2024-08-23,1.0318820991157769,1.0318820991157769,0.0,0,False
2024-08-24,1.0318820991157769,1.0318820991157769,0.0,0,False
2024-08-25,1.0318820991157769,1.0318820991157769,0.0,0,False
2024-08-26,1.0318820991157769,1.0318820991157769,0.0,0,False
2024-08-27,1.0318820991157769,1.0318820991157769,0.0,0,False
2024-08-28,1.0318820991157769,1.0318820991157769,0.0,0,False
2024-08-29,1.0318820991157769,1.0267329631928677,-0.4990042881179435,1,True
2024-08-30,1.0267329631928677,1.0267329631928677,0.0,0,False
2024-08-31,1.0267329631928677,1.0267329631928677,0.0,0,False
2024-09-01,1.0267329631928677,1.0216172966245403,-0.49824703712824103,1,True
2024-09-02,1.0216172966245403,1.0216172966245403,0.0,0,False
2024-09-03,1.0216172966245403,1.0216172966245403,0.0,0,False
2024-09-04,1.0216172966245403,1.0216172966245403,0.0,0,False
2024-09-05,1.0216172966245403,1.0216172966245403,0.0,0,False
2024-09-06,1.0216172966245403,1.0216172966245403,0.0,0,False
2024-09-07,1.0216172966245403,1.0216172966245403,0.0,0,False
2024-09-08,1.0216172966245403,1.0216172966245403,0.0,0,False
2024-09-09,1.0216172966245403,1.0216172966245403,0.0,0,False
2024-09-10,1.0216172966245403,1.0216172966245403,0.0,0,False
2024-09-11,1.0216172966245403,1.0216172966245403,0.0,0,False
2024-09-12,1.0216172966245403,1.0216172966245403,0.0,0,False
2024-09-13,1.0216172966245403,1.0216172966245403,0.0,0,False
2024-09-14,1.0216172966245403,1.0216172966245403,0.0,0,False
2024-09-15,1.0216172966245403,1.0216172966245403,0.0,0,False
2024-09-16,1.0216172966245403,1.0216172966245403,0.0,0,False
2024-09-17,1.0216172966245403,1.0216172966245403,0.0,0,False
2024-09-18,1.0216172966245403,1.0216172966245403,0.0,0,False
2024-09-19,1.0216172966245403,1.021120210212114,-0.04865681249414111,1,True
2024-09-20,1.021120210212114,1.0239114398230362,0.2733497567678489,1,True
2024-09-21,1.0239114398230362,1.0149684560050118,-0.8734138002765124,1,True
2024-09-22,1.0149684560050118,1.024590233414566,0.9479878268755515,1,True
2024-09-23,1.024590233414566,1.024590233414566,0.0,0,False
2024-09-24,1.024590233414566,1.024590233414566,0.0,0,False
2024-09-25,1.024590233414566,1.024590233414566,0.0,0,False
2024-09-26,1.024590233414566,1.024590233414566,0.0,0,False
2024-09-27,1.024590233414566,1.024590233414566,0.0,0,False
2024-09-28,1.024590233414566,1.024590233414566,0.0,0,False
2024-09-29,1.024590233414566,1.024590233414566,0.0,0,False
2024-09-30,1.024590233414566,1.024590233414566,0.0,0,False
2024-10-01,1.024590233414566,1.024590233414566,0.0,0,False
2024-10-02,1.024590233414566,1.024590233414566,0.0,0,False
2024-10-03,1.024590233414566,1.0342435292643717,0.9421616110505848,1,True
2024-10-04,1.0342435292643717,1.0342435292643717,0.0,0,False
2024-10-05,1.0342435292643717,1.0342435292643717,0.0,0,False
2024-10-06,1.0342435292643717,1.0342435292643717,0.0,0,False
2024-10-07,1.0342435292643717,1.0342435292643717,0.0,0,False
2024-10-08,1.0342435292643717,1.0342435292643717,0.0,0,False
2024-10-09,1.0342435292643717,1.0342435292643717,0.0,0,False
2024-10-10,1.0342435292643717,1.0342435292643717,0.0,0,False
2024-10-11,1.0342435292643717,1.0332285956902993,-0.09813293923087718,1,True
2024-10-12,1.0332285956902993,1.0339705563873975,0.07180992668931463,0,True
2024-10-13,1.0339705563873975,1.0339705563873975,0.0,0,False
2024-10-14,1.0339705563873975,1.0339705563873975,0.0,0,False
2024-10-15,1.0339705563873975,1.0339705563873975,0.0,0,False
2024-10-16,1.0339705563873975,1.0339705563873975,0.0,0,False
2024-10-17,1.0339705563873975,1.0339705563873975,0.0,0,False
2024-10-18,1.0339705563873975,1.0345242401191777,0.053549274528141844,1,True
2024-10-19,1.0345242401191777,1.030530363466427,-0.38605926259307477,1,True
2024-10-20,1.030530363466427,1.030530363466427,0.0,0,False
2024-10-21,1.030530363466427,1.0403244354599186,0.9503914043393236,1,True
2024-10-22,1.0403244354599186,1.0403244354599186,0.0,0,False
2024-10-23,1.0403244354599186,1.0351297781270097,-0.4993305122754754,1,True
2024-10-24,1.0351297781270097,1.0299614444433534,-0.4992933053291182,1,True
2024-10-25,1.0299614444433534,1.0329176280309476,0.28701885915660696,1,True
2024-10-26,1.0329176280309476,1.0433999983177658,1.0148311929578213,2,True
2024-10-27,1.0433999983177658,1.0433999983177658,0.0,0,False
2024-10-28,1.0433999983177658,1.0433999983177658,0.0,0,False
2024-10-29,1.0433999983177658,1.0433999983177658,0.0,0,False
2024-10-30,1.0433999983177658,1.0433999983177658,0.0,0,False
2024-10-31,1.0433999983177658,1.0433999983177658,0.0,0,False
2024-11-01,1.0433999983177658,1.0433999983177658,0.0,0,False
2024-11-02,1.0433999983177658,1.0433999983177658,0.0,0,False
2024-11-03,1.0433999983177658,1.0433999983177658,0.0,0,False
2024-11-04,1.0433999983177658,1.0433999983177658,0.0,0,False
2024-11-05,1.0433999983177658,1.0433999983177658,0.0,0,False
2024-11-06,1.0433999983177658,1.0433999983177658,0.0,0,False
2024-11-07,1.0433999983177658,1.0433999983177658,0.0,0,False
2024-11-08,1.0433999983177658,1.0433999983177658,0.0,0,False
2024-11-09,1.0433999983177658,1.0417601246722092,-0.15716634542844998,1,True
2024-11-10,1.0417601246722092,1.044476054178524,0.26070584216011383,0,True
2024-11-11,1.044476054178524,1.0434875274374784,-0.09464331298845163,1,True
2024-11-12,1.0434875274374784,1.0447819385562567,0.12404663062499655,0,True
2024-11-13,1.0447819385562567,1.0447819385562567,0.0,0,False
2024-11-14,1.0447819385562567,1.0447819385562567,0.0,0,False
2024-11-15,1.0447819385562567,1.0447819385562567,0.0,0,False
2024-11-16,1.0447819385562567,1.0447819385562567,0.0,0,False
2024-11-17,1.0447819385562567,1.0447819385562567,0.0,0,False
2024-11-18,1.0447819385562567,1.0447819385562567,0.0,0,False
2024-11-19,1.0447819385562567,1.0447819385562567,0.0,0,False
2024-11-20,1.0447819385562567,1.0447819385562567,0.0,0,False
2024-11-21,1.0447819385562567,1.0447819385562567,0.0,0,False
2024-11-22,1.0447819385562567,1.0447819385562567,0.0,0,False
2024-11-23,1.0447819385562567,1.0486080189340279,0.36620851074993244,1,True
2024-11-24,1.0486080189340279,1.0618384253759294,1.2617113547682912,4,True
2024-11-25,1.0618384253759294,1.0619378332554117,0.00936186496047764,1,True
2024-11-26,1.0619378332554117,1.0619378332554117,0.0,0,False
2024-11-27,1.0619378332554117,1.0619378332554117,0.0,0,False
2024-11-28,1.0619378332554117,1.0619378332554117,0.0,0,False
2024-11-29,1.0619378332554117,1.0619378332554117,0.0,0,False
2024-11-30,1.0619378332554117,1.0619378332554117,0.0,0,False
2024-12-01,1.0619378332554117,1.0619378332554117,0.0,0,False
2024-12-02,1.0619378332554117,1.0619378332554117,0.0,0,False
2024-12-03,1.0619378332554117,1.0619378332554117,0.0,0,False
2024-12-04,1.0619378332554117,1.0619378332554117,0.0,0,False
2024-12-05,1.0619378332554117,1.0663523090448888,0.4157000203999006,1,True
2024-12-06,1.0663523090448888,1.0663523090448888,0.0,0,False
2024-12-07,1.0663523090448888,1.0663523090448888,0.0,0,False
2024-12-08,1.0663523090448888,1.0663523090448888,0.0,0,False
2024-12-09,1.0663523090448888,1.0610214559895212,-0.49991480396777144,1,True
2024-12-10,1.0610214559895212,1.0610214559895212,0.0,0,False
2024-12-11,1.0610214559895212,1.0610214559895212,0.0,0,False
2024-12-12,1.0610214559895212,1.0610214559895212,0.0,0,False
2024-12-13,1.0610214559895212,1.0610214559895212,0.0,0,False
2024-12-14,1.0610214559895212,1.0610214559895212,0.0,0,False
2024-12-15,1.0610214559895212,1.0544369802747853,-0.6205789409409412,2,True
2024-12-16,1.0544369802747853,1.0504521611078592,-0.3779096561927875,0,True
2024-12-17,1.0504521611078592,1.0504521611078592,0.0,0,False
2024-12-18,1.0504521611078592,1.0504521611078592,0.0,0,False
2024-12-19,1.0504521611078592,1.0504521611078592,0.0,0,False
2024-12-20,1.0504521611078592,1.0455357124340954,-0.4680316587267197,2,True
2024-12-21,1.0455357124340954,1.0455357124340954,0.0,0,False
2024-12-22,1.0455357124340954,1.0455357124340954,0.0,0,False
2024-12-23,1.0455357124340954,1.0455357124340954,0.0,0,False
2024-12-24,1.0455357124340954,1.0455357124340954,0.0,0,False
2024-12-25,1.0455357124340954,1.052927009952308,0.7069387903551494,1,True
2024-12-26,1.052927009952308,1.0553906530582902,0.23398042624946935,0,True
2024-12-27,1.0553906530582902,1.0553906530582902,0.0,0,False
2024-12-28,1.0553906530582902,1.0553906530582902,0.0,0,False
2024-12-29,1.0553906530582902,1.0553906530582902,0.0,0,False
2024-12-30,1.0553906530582902,1.0553906530582902,0.0,0,False
2024-12-31,1.0553906530582902,1.0553906530582902,0.0,0,False
