day,start_equity,end_equity,return_pct,entries,active
2021-09-02,1.0,1.0,0.0,0,False
2021-09-03,1.0,1.0,0.0,0,False
2021-09-04,1.0,1.0,0.0,0,False
2021-09-05,1.0,1.0,0.0,0,False
2021-09-06,1.0,1.0,0.0,0,False
2021-09-07,1.0,1.0,0.0,0,False
2021-09-08,1.0,1.0,0.0,0,False
2021-09-09,1.0,1.0,0.0,0,False
2021-09-10,1.0,1.0,0.0,0,False
2021-09-11,1.0,1.0,0.0,0,False
2021-09-12,1.0,1.0,0.0,0,False
2021-09-13,1.0,1.0,0.0,0,False
2021-09-14,1.0,1.0,0.0,0,False
2021-09-15,1.0,1.0,0.0,0,False
2021-09-16,1.0,1.0,0.0,0,False
2021-09-17,1.0,1.0,0.0,0,False
2021-09-18,1.0,1.0,0.0,0,False
2021-09-19,1.0,1.0,0.0,0,False
2021-09-20,1.0,1.0,0.0,0,False
2021-09-21,1.0,1.0,0.0,0,False
2021-09-22,1.0,1.0,0.0,0,False
2021-09-23,1.0,1.0,0.0,0,False
2021-09-24,1.0,1.0,0.0,0,False
2021-09-25,1.0,1.0,0.0,0,False
2021-09-26,1.0,1.0,0.0,0,False
2021-09-27,1.0,1.0,0.0,0,False
2021-09-28,1.0,1.0,0.0,0,False
2021-09-29,1.0,1.0,0.0,0,False
2021-09-30,1.0,1.0,0.0,0,False
2021-10-01,1.0,1.0,0.0,0,False
2021-10-02,1.0,1.0,0.0,0,False
2021-10-03,1.0,1.0,0.0,0,False
2021-10-04,1.0,1.0,0.0,0,False
2021-10-05,1.0,0.9995269898820623,-0.04730101179376556,1,True
2021-10-06,0.9995269898820623,1.0056427254528877,0.6118629744602533,3,True
2021-10-07,1.0056427254528877,0.9936929741494578,-1.1882700486943176,2,True
2021-10-08,0.9936929741494578,0.993244264698245,-0.04515574356322993,1,True
2021-10-09,0.993244264698245,0.9945403214368996,0.13048721092272508,2,True
2021-10-10,0.9945403214368996,1.0003332277438293,0.5824707336712143,1,True
2021-10-11,1.0003332277438293,0.9969946011947755,-0.3337514396661412,0,True
2021-10-12,0.9969946011947755,0.9969946011947755,0.0,0,False
2021-10-13,0.9969946011947755,1.0149805069481226,1.8040123519017293,4,True
2021-10-14,1.0149805069481226,1.034911212371487,1.963654009798943,0,True
2021-10-15,1.034911212371487,1.0348760254624887,-0.00339999302140237,4,True
2021-10-16,1.0348760254624887,1.0535612583731233,1.8055527861208454,2,True
2021-10-17,1.0535612583731233,1.0533045920039843,-0.024361788847038213,0,True
2021-10-18,1.0533045920039843,1.0520329783371416,-0.12072611061377803,1,True
2021-10-19,1.0520329783371416,1.054848088236347,0.2675876096255969,0,True
2021-10-20,1.054848088236347,1.054848088236347,0.0,0,False
2021-10-21,1.054848088236347,1.054848088236347,0.0,0,False
2021-10-22,1.054848088236347,1.054848088236347,0.0,0,False
2021-10-23,1.054848088236347,1.054848088236347,0.0,0,False
2021-10-24,1.054848088236347,1.054848088236347,0.0,0,False
2021-10-25,1.054848088236347,1.0682998854797854,1.275235495371585,2,True
2021-10-26,1.0682998854797854,1.0735025544193035,0.4870045396645928,0,True
2021-10-27,1.0735025544193035,1.0769894788417582,0.3248175244763063,7,True
2021-10-28,1.0769894788417582,1.0772932866222749,0.028208983140975974,1,True
2021-10-29,1.0772932866222749,1.0714741068783742,-0.5401667137596267,0,True
2021-10-30,1.0714741068783742,1.0731735552456125,0.15860844012269837,1,True
2021-10-31,1.0731735552456125,1.065789503600855,-0.688057547510823,1,True
2021-11-01,1.065789503600855,1.0774864017806745,1.0974867119915022,2,True
2021-11-02,1.0774864017806745,1.0810061699866629,0.3266647449259308,1,True
2021-11-03,1.0810061699866629,1.0793168020563102,-0.15627736244775425,1,True
2021-11-04,1.0793168020563102,1.1059693621989743,2.469391757071304,1,True
2021-11-05,1.1059693621989743,1.08319433789162,-2.0592816660012447,3,True
2021-11-06,1.08319433789162,1.0723568925259128,-1.0005079408743622,2,True
2021-11-07,1.0723568925259128,1.072895186318796,0.05019726143740133,0,True
2021-11-08,1.072895186318796,1.072895186318796,0.0,0,False
2021-11-09,1.072895186318796,1.072895186318796,0.0,0,False
2021-11-10,1.072895186318796,1.072895186318796,0.0,0,False
2021-11-11,1.072895186318796,1.0509368600400804,-2.0466422590688316,8,True
2021-11-12,1.0509368600400804,1.045691129737232,-0.49914799854372527,1,True
2021-11-13,1.045691129737232,1.044259431616201,-0.13691405428586378,1,True
2021-11-14,1.044259431616201,1.0447079324543784,0.04294917762754924,0,True
2021-11-15,1.0447079324543784,1.0447079324543784,0.0,0,False
2021-11-16,1.0447079324543784,1.0629456251805234,1.7457216662745578,7,True
2021-11-17,1.0629456251805234,1.038782085060584,-2.2732621074418202,0,True
2021-11-18,1.038782085060584,1.0296475786330943,-0.8793477052462806,4,True
2021-11-19,1.0296475786330943,1.052837698066189,2.252238524552319,4,True
2021-11-20,1.052837698066189,1.0533140511139016,0.04524468002879978,0,True
2021-11-21,1.0533140511139016,1.049291473666283,-0.3818972549891053,1,True
2021-11-22,1.049291473666283,1.034010636220507,-1.4563005446316946,4,True
2021-11-23,1.034010636220507,1.0309942830888337,-0.2917139365895327,0,True
2021-11-24,1.0309942830888337,1.0262681303826913,-0.4584072660405947,2,True
2021-11-25,1.0262681303826913,1.025141935302809,-0.10973692415667813,4,True
2021-11-26,1.025141935302809,1.0031297841638422,-2.14722960606083,4,True
2021-11-27,1.0031297841638422,1.0031297841638422,0.0,0,False
2021-11-28,1.0031297841638422,0.9830426387266927,-2.0024473158169798,5,True
2021-11-29,0.9830426387266927,0.9836684907389839,0.0636647880402963,1,True
2021-11-30,0.9836684907389839,0.9785873099274431,-0.5165541907033666,3,True
2021-12-01,0.9785873099274431,0.9756180204742739,-0.3034261146702799,1,True
2021-12-02,0.9756180204742739,0.9728750208647252,-0.2811550783179739,5,True
2021-12-03,0.9728750208647252,0.9638702947095551,-0.9255789245330215,2,True
2021-12-04,0.9638702947095551,0.942529547899287,-2.214068316805917,10,True
2021-12-05,0.942529547899287,0.9388513283611816,-0.3902497854102793,3,True
2021-12-06,0.9388513283611816,0.9388513283611816,0.0,0,False
2021-12-07,0.9388513283611816,0.9388513283611816,0.0,0,False
2021-12-08,0.9388513283611816,0.9388513283611816,0.0,0,False
2021-12-09,0.9388513283611816,0.9388513283611816,0.0,0,False
2021-12-10,0.9388513283611816,0.9388513283611816,0.0,0,False
2021-12-11,0.9388513283611816,0.9388513283611816,0.0,0,False
2021-12-12,0.9388513283611816,0.9388513283611816,0.0,0,False
2021-12-13,0.9388513283611816,0.9388513283611816,0.0,0,False
2021-12-14,0.9388513283611816,0.9388513283611816,0.0,0,False
2021-12-15,0.9388513283611816,0.9388513283611816,0.0,0,False
2021-12-16,0.9388513283611816,0.9388513283611816,0.0,0,False
2021-12-17,0.9388513283611816,0.9388513283611816,0.0,0,False
2021-12-18,0.9388513283611816,0.9388513283611816,0.0,0,False
2021-12-19,0.9388513283611816,0.9388513283611816,0.0,0,False
2021-12-20,0.9388513283611816,0.9388513283611816,0.0,0,False
2021-12-21,0.9388513283611816,0.9388513283611816,0.0,0,False
2021-12-22,0.9388513283611816,0.9388513283611816,0.0,0,False
2021-12-23,0.9388513283611816,0.9388513283611816,0.0,0,False
2021-12-24,0.9388513283611816,0.9388513283611816,0.0,0,False
2021-12-25,0.9388513283611816,0.9388513283611816,0.0,0,False
2021-12-26,0.9388513283611816,0.9388513283611816,0.0,0,False
2021-12-27,0.9388513283611816,0.9388513283611816,0.0,0,False
2021-12-28,0.9388513283611816,0.9388513283611816,0.0,0,False
2021-12-29,0.9388513283611816,0.9388513283611816,0.0,0,False
2021-12-30,0.9388513283611816,0.9388513283611816,0.0,0,False
2021-12-31,0.9388513283611816,0.9388513283611816,0.0,0,False
2022-01-01,0.9388513283611816,0.9388513283611816,0.0,0,False
2022-01-02,0.9388513283611816,0.9388513283611816,0.0,0,False
2022-01-03,0.9388513283611816,0.9388513283611816,0.0,0,False
2022-01-04,0.9388513283611816,0.9388513283611816,0.0,0,False
2022-01-05,0.9388513283611816,0.9388513283611816,0.0,0,False
2022-01-06,0.9388513283611816,0.9388513283611816,0.0,0,False
2022-01-07,0.9388513283611816,0.9388513283611816,0.0,0,False
2022-01-08,0.9388513283611816,0.9388513283611816,0.0,0,False
2022-01-09,0.9388513283611816,0.9388513283611816,0.0,0,False
2022-01-10,0.9388513283611816,0.9388513283611816,0.0,0,False
2022-01-11,0.9388513283611816,0.9388513283611816,0.0,0,False
2022-01-12,0.9388513283611816,0.9388513283611816,0.0,0,False
2022-01-13,0.9388513283611816,0.9388513283611816,0.0,0,False
2022-01-14,0.9388513283611816,0.9388513283611816,0.0,0,False
2022-01-15,0.9388513283611816,0.9388513283611816,0.0,0,False
2022-01-16,0.9388513283611816,0.9388513283611816,0.0,0,False
2022-01-17,0.9388513283611816,0.9388513283611816,0.0,0,False
2022-01-18,0.9388513283611816,0.9388513283611816,0.0,0,False
2022-01-19,0.9388513283611816,0.9388513283611816,0.0,0,False
2022-01-20,0.9388513283611816,0.9388513283611816,0.0,0,False
2022-01-21,0.9388513283611816,0.9388513283611816,0.0,0,False
2022-01-22,0.9388513283611816,0.9388513283611816,0.0,0,False
2022-01-23,0.9388513283611816,0.9388513283611816,0.0,0,False
2022-01-24,0.9388513283611816,0.9388513283611816,0.0,0,False
2022-01-25,0.9388513283611816,0.9388513283611816,0.0,0,False
2022-01-26,0.9388513283611816,0.9388513283611816,0.0,0,False
2022-01-27,0.9388513283611816,0.9388513283611816,0.0,0,False
2022-01-28,0.9388513283611816,0.9388513283611816,0.0,0,False
2022-01-29,0.9388513283611816,0.9388513283611816,0.0,0,False
2022-01-30,0.9388513283611816,0.9388513283611816,0.0,0,False
2022-01-31,0.9388513283611816,0.9388513283611816,0.0,0,False
2022-02-01,0.9388513283611816,0.9388513283611816,0.0,0,False
2022-02-02,0.9388513283611816,0.9388513283611816,0.0,0,False
2022-02-03,0.9388513283611816,0.9388513283611816,0.0,0,False
2022-02-04,0.9388513283611816,0.9388513283611816,0.0,0,False
2022-02-05,0.9388513283611816,0.9388513283611816,0.0,0,False
2022-02-06,0.9388513283611816,0.9388513283611816,0.0,0,False
2022-02-07,0.9388513283611816,0.9388513283611816,0.0,0,False
2022-02-08,0.9388513283611816,0.9388513283611816,0.0,0,False
2022-02-09,0.9388513283611816,0.9388513283611816,0.0,0,False
2022-02-10,0.9388513283611816,0.9388513283611816,0.0,0,False
2022-02-11,0.9388513283611816,0.9388513283611816,0.0,0,False
2022-02-12,0.9388513283611816,0.9388513283611816,0.0,0,False
2022-02-13,0.9388513283611816,0.9388513283611816,0.0,0,False
2022-02-14,0.9388513283611816,0.9388513283611816,0.0,0,False
2022-02-15,0.9388513283611816,0.9388513283611816,0.0,0,False
2022-02-16,0.9388513283611816,0.9388513283611816,0.0,0,False
2022-02-17,0.9388513283611816,0.9388513283611816,0.0,0,False
2022-02-18,0.9388513283611816,0.9388513283611816,0.0,0,False
2022-02-19,0.9388513283611816,0.9388513283611816,0.0,0,False
2022-02-20,0.9388513283611816,0.9388513283611816,0.0,0,False
2022-02-21,0.9388513283611816,0.9388513283611816,0.0,0,False
2022-02-22,0.9388513283611816,0.9388513283611816,0.0,0,False
2022-02-23,0.9388513283611816,0.9388513283611816,0.0,0,False
2022-02-24,0.9388513283611816,0.9388513283611816,0.0,0,False
2022-02-25,0.9388513283611816,0.9388513283611816,0.0,0,False
2022-02-26,0.9388513283611816,0.9388513283611816,0.0,0,False
2022-02-27,0.9388513283611816,0.9388513283611816,0.0,0,False
2022-02-28,0.9388513283611816,0.9388513283611816,0.0,0,False
2022-03-01,0.9388513283611816,0.9388513283611816,0.0,0,False
2022-03-02,0.9388513283611816,0.9388513283611816,0.0,0,False
2022-03-03,0.9388513283611816,0.9388513283611816,0.0,0,False
2022-03-04,0.9388513283611816,0.9388513283611816,0.0,0,False
2022-03-05,0.9388513283611816,0.9388513283611816,0.0,0,False
2022-03-06,0.9388513283611816,0.9388513283611816,0.0,0,False
2022-03-07,0.9388513283611816,0.9388513283611816,0.0,0,False
2022-03-08,0.9388513283611816,0.9388513283611816,0.0,0,False
2022-03-09,0.9388513283611816,0.9388513283611816,0.0,0,False
2022-03-10,0.9388513283611816,0.9388513283611816,0.0,0,False
2022-03-11,0.9388513283611816,0.9388513283611816,0.0,0,False
2022-03-12,0.9388513283611816,0.9388513283611816,0.0,0,False
2022-03-13,0.9388513283611816,0.9388513283611816,0.0,0,False
2022-03-14,0.9388513283611816,0.9388513283611816,0.0,0,False
2022-03-15,0.9388513283611816,0.9388513283611816,0.0,0,False
2022-03-16,0.9388513283611816,0.9388513283611816,0.0,0,False
2022-03-17,0.9388513283611816,0.9388513283611816,0.0,0,False
2022-03-18,0.9388513283611816,0.9388513283611816,0.0,0,False
2022-03-19,0.9388513283611816,0.9388513283611816,0.0,0,False
2022-03-20,0.9388513283611816,0.9388513283611816,0.0,0,False
2022-03-21,0.9388513283611816,0.9388513283611816,0.0,0,False
2022-03-22,0.9388513283611816,0.9388513283611816,0.0,0,False
2022-03-23,0.9388513283611816,0.9388513283611816,0.0,0,False
2022-03-24,0.9388513283611816,0.9388513283611816,0.0,0,False
2022-03-25,0.9388513283611816,0.9388513283611816,0.0,0,False
2022-03-26,0.9388513283611816,0.9388513283611816,0.0,0,False
2022-03-27,0.9388513283611816,0.9388513283611816,0.0,0,False
2022-03-28,0.9388513283611816,0.9388513283611816,0.0,0,False
2022-03-29,0.9388513283611816,0.9388513283611816,0.0,0,False
2022-03-30,0.9388513283611816,0.9388513283611816,0.0,0,False
2022-03-31,0.9388513283611816,0.9388513283611816,0.0,0,False
2022-04-01,0.9388513283611816,0.9388513283611816,0.0,0,False
2022-04-02,0.9388513283611816,0.9388513283611816,0.0,0,False
2022-04-03,0.9388513283611816,0.9388513283611816,0.0,0,False
2022-04-04,0.9388513283611816,0.9388513283611816,0.0,0,False
2022-04-05,0.9388513283611816,0.9388513283611816,0.0,0,False
2022-04-06,0.9388513283611816,0.9388513283611816,0.0,0,False
2022-04-07,0.9388513283611816,0.9388513283611816,0.0,0,False
2022-04-08,0.9388513283611816,0.9388513283611816,0.0,0,False
2022-04-09,0.9388513283611816,0.9388513283611816,0.0,0,False
2022-04-10,0.9388513283611816,0.9388513283611816,0.0,0,False
2022-04-11,0.9388513283611816,0.9388513283611816,0.0,0,False
2022-04-12,0.9388513283611816,0.9388513283611816,0.0,0,False
2022-04-13,0.9388513283611816,0.9388513283611816,0.0,0,False
2022-04-14,0.9388513283611816,0.9388513283611816,0.0,0,False
2022-04-15,0.9388513283611816,0.9388513283611816,0.0,0,False
2022-04-16,0.9388513283611816,0.9388513283611816,0.0,0,False
2022-04-17,0.9388513283611816,0.9388513283611816,0.0,0,False
2022-04-18,0.9388513283611816,0.9388513283611816,0.0,0,False
2022-04-19,0.9388513283611816,0.9388513283611816,0.0,0,False
2022-04-20,0.9388513283611816,0.9388513283611816,0.0,0,False
2022-04-21,0.9388513283611816,0.9388513283611816,0.0,0,False
2022-04-22,0.9388513283611816,0.9388513283611816,0.0,0,False
2022-04-23,0.9388513283611816,0.9388513283611816,0.0,0,False
2022-04-24,0.9388513283611816,0.9388513283611816,0.0,0,False
2022-04-25,0.9388513283611816,0.9388513283611816,0.0,0,False
2022-04-26,0.9388513283611816,0.9388513283611816,0.0,0,False
2022-04-27,0.9388513283611816,0.9388513283611816,0.0,0,False
2022-04-28,0.9388513283611816,0.9388513283611816,0.0,0,False
2022-04-29,0.9388513283611816,0.9388513283611816,0.0,0,False
2022-04-30,0.9388513283611816,0.9388513283611816,0.0,0,False
2022-05-01,0.9388513283611816,0.9388513283611816,0.0,0,False
2022-05-02,0.9388513283611816,0.9388513283611816,0.0,0,False
2022-05-03,0.9388513283611816,0.9388513283611816,0.0,0,False
2022-05-04,0.9388513283611816,0.9388513283611816,0.0,0,False
2022-05-05,0.9388513283611816,0.9388513283611816,0.0,0,False
2022-05-06,0.9388513283611816,0.9388513283611816,0.0,0,False
2022-05-07,0.9388513283611816,0.9388513283611816,0.0,0,False
2022-05-08,0.9388513283611816,0.9388513283611816,0.0,0,False
2022-05-09,0.9388513283611816,0.9388513283611816,0.0,0,False
2022-05-10,0.9388513283611816,0.9388513283611816,0.0,0,False
2022-05-11,0.9388513283611816,0.9388513283611816,0.0,0,False
2022-05-12,0.9388513283611816,0.9388513283611816,0.0,0,False
2022-05-13,0.9388513283611816,0.9388513283611816,0.0,0,False
2022-05-14,0.9388513283611816,0.9388513283611816,0.0,0,False
2022-05-15,0.9388513283611816,0.9388513283611816,0.0,0,False
2022-05-16,0.9388513283611816,0.9388513283611816,0.0,0,False
2022-05-17,0.9388513283611816,0.9388513283611816,0.0,0,False
2022-05-18,0.9388513283611816,0.9388513283611816,0.0,0,False
2022-05-19,0.9388513283611816,0.9388513283611816,0.0,0,False
2022-05-20,0.9388513283611816,0.9388513283611816,0.0,0,False
2022-05-21,0.9388513283611816,0.9388513283611816,0.0,0,False
2022-05-22,0.9388513283611816,0.9388513283611816,0.0,0,False
2022-05-23,0.9388513283611816,0.9388513283611816,0.0,0,False
2022-05-24,0.9388513283611816,0.9388513283611816,0.0,0,False
2022-05-25,0.9388513283611816,0.9388513283611816,0.0,0,False
2022-05-26,0.9388513283611816,0.9388513283611816,0.0,0,False
2022-05-27,0.9388513283611816,0.9388513283611816,0.0,0,False
2022-05-28,0.9388513283611816,0.9388513283611816,0.0,0,False
2022-05-29,0.9388513283611816,0.9388513283611816,0.0,0,False
2022-05-30,0.9388513283611816,0.9388513283611816,0.0,0,False
2022-05-31,0.9388513283611816,0.9388513283611816,0.0,0,False
2022-06-01,0.9388513283611816,0.9388513283611816,0.0,0,False
2022-06-02,0.9388513283611816,0.9388513283611816,0.0,0,False
2022-06-03,0.9388513283611816,0.9388513283611816,0.0,0,False
2022-06-04,0.9388513283611816,0.9388513283611816,0.0,0,False
2022-06-05,0.9388513283611816,0.9388513283611816,0.0,0,False
2022-06-06,0.9388513283611816,0.9388513283611816,0.0,0,False
2022-06-07,0.9388513283611816,0.9388513283611816,0.0,0,False
2022-06-08,0.9388513283611816,0.9388513283611816,0.0,0,False
2022-06-09,0.9388513283611816,0.9388513283611816,0.0,0,False
2022-06-10,0.9388513283611816,0.9388513283611816,0.0,0,False
2022-06-11,0.9388513283611816,0.9388513283611816,0.0,0,False
2022-06-12,0.9388513283611816,0.9388513283611816,0.0,0,False
2022-06-13,0.9388513283611816,0.9388513283611816,0.0,0,False
2022-06-14,0.9388513283611816,0.9388513283611816,0.0,0,False
2022-06-15,0.9388513283611816,0.9388513283611816,0.0,0,False
2022-06-16,0.9388513283611816,0.9388513283611816,0.0,0,False
2022-06-17,0.9388513283611816,0.9388513283611816,0.0,0,False
2022-06-18,0.9388513283611816,0.9388513283611816,0.0,0,False
2022-06-19,0.9388513283611816,0.9388513283611816,0.0,0,False
2022-06-20,0.9388513283611816,0.9388513283611816,0.0,0,False
2022-06-21,0.9388513283611816,0.9388513283611816,0.0,0,False
2022-06-22,0.9388513283611816,0.9388513283611816,0.0,0,False
2022-06-23,0.9388513283611816,0.9388513283611816,0.0,0,False
2022-06-24,0.9388513283611816,0.9388513283611816,0.0,0,False
2022-06-25,0.9388513283611816,0.9388513283611816,0.0,0,False
2022-06-26,0.9388513283611816,0.9388513283611816,0.0,0,False
2022-06-27,0.9388513283611816,0.9388513283611816,0.0,0,False
2022-06-28,0.9388513283611816,0.9388513283611816,0.0,0,False
2022-06-29,0.9388513283611816,0.9388513283611816,0.0,0,False
2022-06-30,0.9388513283611816,0.9388513283611816,0.0,0,False
2022-07-01,0.9388513283611816,0.9388513283611816,0.0,0,False
2022-07-02,0.9388513283611816,0.9388513283611816,0.0,0,False
2022-07-03,0.9388513283611816,0.9388513283611816,0.0,0,False
2022-07-04,0.9388513283611816,0.9388513283611816,0.0,0,False
2022-07-05,0.9388513283611816,0.9388513283611816,0.0,0,False
2022-07-06,0.9388513283611816,0.9388513283611816,0.0,0,False
2022-07-07,0.9388513283611816,0.9388513283611816,0.0,0,False
2022-07-08,0.9388513283611816,0.9388513283611816,0.0,0,False
2022-07-09,0.9388513283611816,0.9388513283611816,0.0,0,False
2022-07-10,0.9388513283611816,0.9388513283611816,0.0,0,False
2022-07-11,0.9388513283611816,0.9388513283611816,0.0,0,False
2022-07-12,0.9388513283611816,0.9388513283611816,0.0,0,False
2022-07-13,0.9388513283611816,0.9388513283611816,0.0,0,False
2022-07-14,0.9388513283611816,0.9388513283611816,0.0,0,False
2022-07-15,0.9388513283611816,0.9388513283611816,0.0,0,False
2022-07-16,0.9388513283611816,0.9388513283611816,0.0,0,False
2022-07-17,0.9388513283611816,0.9388513283611816,0.0,0,False
2022-07-18,0.9388513283611816,0.9388513283611816,0.0,0,False
2022-07-19,0.9388513283611816,0.9388513283611816,0.0,0,False
2022-07-20,0.9388513283611816,0.9388513283611816,0.0,0,False
2022-07-21,0.9388513283611816,0.9388513283611816,0.0,0,False
2022-07-22,0.9388513283611816,0.9388513283611816,0.0,0,False
2022-07-23,0.9388513283611816,0.9388513283611816,0.0,0,False
2022-07-24,0.9388513283611816,0.9388513283611816,0.0,0,False
2022-07-25,0.9388513283611816,0.9388513283611816,0.0,0,False
2022-07-26,0.9388513283611816,0.9388513283611816,0.0,0,False
2022-07-27,0.9388513283611816,0.9388513283611816,0.0,0,False
2022-07-28,0.9388513283611816,0.9388513283611816,0.0,0,False
2022-07-29,0.9388513283611816,0.9388513283611816,0.0,0,False
2022-07-30,0.9388513283611816,0.9388513283611816,0.0,0,False
2022-07-31,0.9388513283611816,0.9388513283611816,0.0,0,False
2022-08-01,0.9388513283611816,0.9388513283611816,0.0,0,False
2022-08-02,0.9388513283611816,0.9388513283611816,0.0,0,False
2022-08-03,0.9388513283611816,0.9388513283611816,0.0,0,False
2022-08-04,0.9388513283611816,0.9388513283611816,0.0,0,False
2022-08-05,0.9388513283611816,0.9388513283611816,0.0,0,False
2022-08-06,0.9388513283611816,0.9388513283611816,0.0,0,False
2022-08-07,0.9388513283611816,0.9388513283611816,0.0,0,False
2022-08-08,0.9388513283611816,0.9388513283611816,0.0,0,False
2022-08-09,0.9388513283611816,0.9388513283611816,0.0,0,False
2022-08-10,0.9388513283611816,0.9388513283611816,0.0,0,False
2022-08-11,0.9388513283611816,0.9388513283611816,0.0,0,False
2022-08-12,0.9388513283611816,0.9388513283611816,0.0,0,False
2022-08-13,0.9388513283611816,0.9388513283611816,0.0,0,False
2022-08-14,0.9388513283611816,0.9388513283611816,0.0,0,False
2022-08-15,0.9388513283611816,0.9388513283611816,0.0,0,False
2022-08-16,0.9388513283611816,0.9388513283611816,0.0,0,False
2022-08-17,0.9388513283611816,0.9388513283611816,0.0,0,False
2022-08-18,0.9388513283611816,0.9388513283611816,0.0,0,False
2022-08-19,0.9388513283611816,0.9388513283611816,0.0,0,False
2022-08-20,0.9388513283611816,0.9388513283611816,0.0,0,False
2022-08-21,0.9388513283611816,0.9388513283611816,0.0,0,False
2022-08-22,0.9388513283611816,0.9388513283611816,0.0,0,False
2022-08-23,0.9388513283611816,0.9388513283611816,0.0,0,False
2022-08-24,0.9388513283611816,0.9388513283611816,0.0,0,False
2022-08-25,0.9388513283611816,0.9388513283611816,0.0,0,False
2022-08-26,0.9388513283611816,0.9388513283611816,0.0,0,False
2022-08-27,0.9388513283611816,0.9388513283611816,0.0,0,False
2022-08-28,0.9388513283611816,0.9388513283611816,0.0,0,False
2022-08-29,0.9388513283611816,0.9388513283611816,0.0,0,False
2022-08-30,0.9388513283611816,0.9388513283611816,0.0,0,False
2022-08-31,0.9388513283611816,0.9388513283611816,0.0,0,False
2022-09-01,0.9388513283611816,0.9388513283611816,0.0,0,False
2022-09-02,0.9388513283611816,0.9388513283611816,0.0,0,False
2022-09-03,0.9388513283611816,0.9388513283611816,0.0,0,False
2022-09-04,0.9388513283611816,0.9388513283611816,0.0,0,False
2022-09-05,0.9388513283611816,0.9388513283611816,0.0,0,False
2022-09-06,0.9388513283611816,0.9388513283611816,0.0,0,False
2022-09-07,0.9388513283611816,0.9388513283611816,0.0,0,False
2022-09-08,0.9388513283611816,0.9388513283611816,0.0,0,False
2022-09-09,0.9388513283611816,0.9388513283611816,0.0,0,False
2022-09-10,0.9388513283611816,0.9388513283611816,0.0,0,False
2022-09-11,0.9388513283611816,0.9388513283611816,0.0,0,False
2022-09-12,0.9388513283611816,0.9388513283611816,0.0,0,False
2022-09-13,0.9388513283611816,0.9388513283611816,0.0,0,False
2022-09-14,0.9388513283611816,0.9388513283611816,0.0,0,False
2022-09-15,0.9388513283611816,0.9388513283611816,0.0,0,False
2022-09-16,0.9388513283611816,0.9388513283611816,0.0,0,False
2022-09-17,0.9388513283611816,0.9388513283611816,0.0,0,False
2022-09-18,0.9388513283611816,0.9388513283611816,0.0,0,False
2022-09-19,0.9388513283611816,0.9388513283611816,0.0,0,False
2022-09-20,0.9388513283611816,0.9388513283611816,0.0,0,False
2022-09-21,0.9388513283611816,0.9388513283611816,0.0,0,False
2022-09-22,0.9388513283611816,0.9388513283611816,0.0,0,False
2022-09-23,0.9388513283611816,0.9388513283611816,0.0,0,False
2022-09-24,0.9388513283611816,0.9388513283611816,0.0,0,False
2022-09-25,0.9388513283611816,0.9388513283611816,0.0,0,False
2022-09-26,0.9388513283611816,0.9388513283611816,0.0,0,False
2022-09-27,0.9388513283611816,0.9388513283611816,0.0,0,False
2022-09-28,0.9388513283611816,0.9388513283611816,0.0,0,False
2022-09-29,0.9388513283611816,0.9388513283611816,0.0,0,False
2022-09-30,0.9388513283611816,0.9388513283611816,0.0,0,False
2022-10-01,0.9388513283611816,0.9388513283611816,0.0,0,False
2022-10-02,0.9388513283611816,0.9388513283611816,0.0,0,False
2022-10-03,0.9388513283611816,0.9388513283611816,0.0,0,False
2022-10-04,0.9388513283611816,0.9388513283611816,0.0,0,False
2022-10-05,0.9388513283611816,0.9388513283611816,0.0,0,False
2022-10-06,0.9388513283611816,0.9388513283611816,0.0,0,False
2022-10-07,0.9388513283611816,0.9388513283611816,0.0,0,False
2022-10-08,0.9388513283611816,0.9388513283611816,0.0,0,False
2022-10-09,0.9388513283611816,0.9388513283611816,0.0,0,False
2022-10-10,0.9388513283611816,0.9388513283611816,0.0,0,False
2022-10-11,0.9388513283611816,0.9388513283611816,0.0,0,False
2022-10-12,0.9388513283611816,0.9388513283611816,0.0,0,False
2022-10-13,0.9388513283611816,0.9388513283611816,0.0,0,False
2022-10-14,0.9388513283611816,0.9388513283611816,0.0,0,False
2022-10-15,0.9388513283611816,0.9388513283611816,0.0,0,False
2022-10-16,0.9388513283611816,0.9388513283611816,0.0,0,False
2022-10-17,0.9388513283611816,0.9388513283611816,0.0,0,False
2022-10-18,0.9388513283611816,0.9388513283611816,0.0,0,False
2022-10-19,0.9388513283611816,0.9388513283611816,0.0,0,False
2022-10-20,0.9388513283611816,0.9388513283611816,0.0,0,False
2022-10-21,0.9388513283611816,0.9388513283611816,0.0,0,False
2022-10-22,0.9388513283611816,0.9388513283611816,0.0,0,False
2022-10-23,0.9388513283611816,0.9388513283611816,0.0,0,False
2022-10-24,0.9388513283611816,0.9388513283611816,0.0,0,False
2022-10-25,0.9388513283611816,0.9388513283611816,0.0,0,False
2022-10-26,0.9388513283611816,0.9388513283611816,0.0,0,False
2022-10-27,0.9388513283611816,0.9388513283611816,0.0,0,False
2022-10-28,0.9388513283611816,0.9388513283611816,0.0,0,False
2022-10-29,0.9388513283611816,0.9388513283611816,0.0,0,False
2022-10-30,0.9388513283611816,0.9388513283611816,0.0,0,False
2022-10-31,0.9388513283611816,0.9388513283611816,0.0,0,False
2022-11-01,0.9388513283611816,0.9388513283611816,0.0,0,False
2022-11-02,0.9388513283611816,0.9388513283611816,0.0,0,False
2022-11-03,0.9388513283611816,0.9388513283611816,0.0,0,False
2022-11-04,0.9388513283611816,0.9388513283611816,0.0,0,False
2022-11-05,0.9388513283611816,0.9388513283611816,0.0,0,False
2022-11-06,0.9388513283611816,0.9388513283611816,0.0,0,False
2022-11-07,0.9388513283611816,0.9388513283611816,0.0,0,False
2022-11-08,0.9388513283611816,0.9388513283611816,0.0,0,False
2022-11-09,0.9388513283611816,0.9388513283611816,0.0,0,False
2022-11-10,0.9388513283611816,0.9388513283611816,0.0,0,False
2022-11-11,0.9388513283611816,0.9388513283611816,0.0,0,False
2022-11-12,0.9388513283611816,0.9388513283611816,0.0,0,False
2022-11-13,0.9388513283611816,0.9388513283611816,0.0,0,False
2022-11-14,0.9388513283611816,0.9388513283611816,0.0,0,False
2022-11-15,0.9388513283611816,0.9388513283611816,0.0,0,False
2022-11-16,0.9388513283611816,0.9388513283611816,0.0,0,False
2022-11-17,0.9388513283611816,0.9388513283611816,0.0,0,False
2022-11-18,0.9388513283611816,0.9388513283611816,0.0,0,False
2022-11-19,0.9388513283611816,0.9388513283611816,0.0,0,False
2022-11-20,0.9388513283611816,0.9388513283611816,0.0,0,False
2022-11-21,0.9388513283611816,0.9388513283611816,0.0,0,False
2022-11-22,0.9388513283611816,0.9388513283611816,0.0,0,False
2022-11-23,0.9388513283611816,0.9388513283611816,0.0,0,False
2022-11-24,0.9388513283611816,0.9388513283611816,0.0,0,False
2022-11-25,0.9388513283611816,0.9388513283611816,0.0,0,False
2022-11-26,0.9388513283611816,0.9388513283611816,0.0,0,False
2022-11-27,0.9388513283611816,0.9388513283611816,0.0,0,False
2022-11-28,0.9388513283611816,0.9388513283611816,0.0,0,False
2022-11-29,0.9388513283611816,0.9388513283611816,0.0,0,False
2022-11-30,0.9388513283611816,0.9388513283611816,0.0,0,False
2022-12-01,0.9388513283611816,0.9388513283611816,0.0,0,False
2022-12-02,0.9388513283611816,0.9388513283611816,0.0,0,False
2022-12-03,0.9388513283611816,0.9388513283611816,0.0,0,False
2022-12-04,0.9388513283611816,0.9388513283611816,0.0,0,False
2022-12-05,0.9388513283611816,0.9388513283611816,0.0,0,False
2022-12-06,0.9388513283611816,0.9388513283611816,0.0,0,False
2022-12-07,0.9388513283611816,0.9388513283611816,0.0,0,False
2022-12-08,0.9388513283611816,0.9388513283611816,0.0,0,False
2022-12-09,0.9388513283611816,0.9388513283611816,0.0,0,False
2022-12-10,0.9388513283611816,0.9388513283611816,0.0,0,False
2022-12-11,0.9388513283611816,0.9388513283611816,0.0,0,False
2022-12-12,0.9388513283611816,0.9388513283611816,0.0,0,False
2022-12-13,0.9388513283611816,0.9388513283611816,0.0,0,False
2022-12-14,0.9388513283611816,0.9388513283611816,0.0,0,False
2022-12-15,0.9388513283611816,0.9388513283611816,0.0,0,False
2022-12-16,0.9388513283611816,0.9388513283611816,0.0,0,False
2022-12-17,0.9388513283611816,0.9388513283611816,0.0,0,False
2022-12-18,0.9388513283611816,0.9388513283611816,0.0,0,False
2022-12-19,0.9388513283611816,0.9388513283611816,0.0,0,False
2022-12-20,0.9388513283611816,0.9388513283611816,0.0,0,False
2022-12-21,0.9388513283611816,0.9388513283611816,0.0,0,False
2022-12-22,0.9388513283611816,0.9388513283611816,0.0,0,False
2022-12-23,0.9388513283611816,0.9388513283611816,0.0,0,False
2022-12-24,0.9388513283611816,0.9388513283611816,0.0,0,False
2022-12-25,0.9388513283611816,0.9388513283611816,0.0,0,False
2022-12-26,0.9388513283611816,0.9388513283611816,0.0,0,False
2022-12-27,0.9388513283611816,0.9388513283611816,0.0,0,False
2022-12-28,0.9388513283611816,0.9388513283611816,0.0,0,False
2022-12-29,0.9388513283611816,0.9388513283611816,0.0,0,False
2022-12-30,0.9388513283611816,0.9388513283611816,0.0,0,False
2022-12-31,0.9388513283611816,0.9388513283611816,0.0,0,False
2023-01-01,0.9388513283611816,0.9388513283611816,0.0,0,False
2023-01-02,0.9388513283611816,0.9388513283611816,0.0,0,False
2023-01-03,0.9388513283611816,0.9388513283611816,0.0,0,False
2023-01-04,0.9388513283611816,0.9388513283611816,0.0,0,False
2023-01-05,0.9388513283611816,0.9388513283611816,0.0,0,False
2023-01-06,0.9388513283611816,0.9388513283611816,0.0,0,False
2023-01-07,0.9388513283611816,0.9388513283611816,0.0,0,False
2023-01-08,0.9388513283611816,0.9388513283611816,0.0,0,False
2023-01-09,0.9388513283611816,0.9388513283611816,0.0,0,False
2023-01-10,0.9388513283611816,0.9388513283611816,0.0,0,False
2023-01-11,0.9388513283611816,0.9388513283611816,0.0,0,False
2023-01-12,0.9388513283611816,0.9388513283611816,0.0,0,False
2023-01-13,0.9388513283611816,0.9388513283611816,0.0,0,False
2023-01-14,0.9388513283611816,0.9388513283611816,0.0,0,False
2023-01-15,0.9388513283611816,0.9388513283611816,0.0,0,False
2023-01-16,0.9388513283611816,0.9388513283611816,0.0,0,False
2023-01-17,0.9388513283611816,0.9388513283611816,0.0,0,False
2023-01-18,0.9388513283611816,0.9388513283611816,0.0,0,False
2023-01-19,0.9388513283611816,0.9388513283611816,0.0,0,False
2023-01-20,0.9388513283611816,0.9388513283611816,0.0,0,False
2023-01-21,0.9388513283611816,0.9388513283611816,0.0,0,False
2023-01-22,0.9388513283611816,0.9388513283611816,0.0,0,False
2023-01-23,0.9388513283611816,0.9388513283611816,0.0,0,False
2023-01-24,0.9388513283611816,0.9388513283611816,0.0,0,False
2023-01-25,0.9388513283611816,0.9388513283611816,0.0,0,False
2023-01-26,0.9388513283611816,0.9388513283611816,0.0,0,False
2023-01-27,0.9388513283611816,0.9388513283611816,0.0,0,False
2023-01-28,0.9388513283611816,0.9388513283611816,0.0,0,False
2023-01-29,0.9388513283611816,0.9388513283611816,0.0,0,False
2023-01-30,0.9388513283611816,0.9388513283611816,0.0,0,False
2023-01-31,0.9388513283611816,0.9388513283611816,0.0,0,False
2023-02-01,0.9388513283611816,0.9388513283611816,0.0,0,False
2023-02-02,0.9388513283611816,0.9388513283611816,0.0,0,False
2023-02-03,0.9388513283611816,0.9388513283611816,0.0,0,False
2023-02-04,0.9388513283611816,0.9388513283611816,0.0,0,False
2023-02-05,0.9388513283611816,0.9388513283611816,0.0,0,False
2023-02-06,0.9388513283611816,0.9388513283611816,0.0,0,False
2023-02-07,0.9388513283611816,0.9388513283611816,0.0,0,False
2023-02-08,0.9388513283611816,0.9388513283611816,0.0,0,False
2023-02-09,0.9388513283611816,0.9388513283611816,0.0,0,False
2023-02-10,0.9388513283611816,0.9388513283611816,0.0,0,False
2023-02-11,0.9388513283611816,0.9388513283611816,0.0,0,False
2023-02-12,0.9388513283611816,0.9388513283611816,0.0,0,False
2023-02-13,0.9388513283611816,0.9388513283611816,0.0,0,False
2023-02-14,0.9388513283611816,0.9388513283611816,0.0,0,False
2023-02-15,0.9388513283611816,0.9388513283611816,0.0,0,False
2023-02-16,0.9388513283611816,0.9388513283611816,0.0,0,False
2023-02-17,0.9388513283611816,0.9388513283611816,0.0,0,False
2023-02-18,0.9388513283611816,0.9388513283611816,0.0,0,False
2023-02-19,0.9388513283611816,0.9388513283611816,0.0,0,False
2023-02-20,0.9388513283611816,0.9388513283611816,0.0,0,False
2023-02-21,0.9388513283611816,0.9388513283611816,0.0,0,False
2023-02-22,0.9388513283611816,0.9388513283611816,0.0,0,False
2023-02-23,0.9388513283611816,0.9388513283611816,0.0,0,False
2023-02-24,0.9388513283611816,0.9388513283611816,0.0,0,False
2023-02-25,0.9388513283611816,0.9388513283611816,0.0,0,False
2023-02-26,0.9388513283611816,0.9388513283611816,0.0,0,False
2023-02-27,0.9388513283611816,0.9388513283611816,0.0,0,False
2023-02-28,0.9388513283611816,0.9388513283611816,0.0,0,False
2023-03-01,0.9388513283611816,0.9388513283611816,0.0,0,False
2023-03-02,0.9388513283611816,0.9388513283611816,0.0,0,False
2023-03-03,0.9388513283611816,0.9388513283611816,0.0,0,False
2023-03-04,0.9388513283611816,0.9388513283611816,0.0,0,False
2023-03-05,0.9388513283611816,0.9388513283611816,0.0,0,False
2023-03-06,0.9388513283611816,0.9388513283611816,0.0,0,False
2023-03-07,0.9388513283611816,0.9388513283611816,0.0,0,False
2023-03-08,0.9388513283611816,0.9388513283611816,0.0,0,False
2023-03-09,0.9388513283611816,0.9388513283611816,0.0,0,False
2023-03-10,0.9388513283611816,0.9388513283611816,0.0,0,False
2023-03-11,0.9388513283611816,0.9388513283611816,0.0,0,False
2023-03-12,0.9388513283611816,0.9388513283611816,0.0,0,False
2023-03-13,0.9388513283611816,0.9388513283611816,0.0,0,False
2023-03-14,0.9388513283611816,0.9388513283611816,0.0,0,False
2023-03-15,0.9388513283611816,0.9388513283611816,0.0,0,False
2023-03-16,0.9388513283611816,0.9388513283611816,0.0,0,False
2023-03-17,0.9388513283611816,0.9388513283611816,0.0,0,False
2023-03-18,0.9388513283611816,0.9388513283611816,0.0,0,False
2023-03-19,0.9388513283611816,0.9388513283611816,0.0,0,False
2023-03-20,0.9388513283611816,0.9388513283611816,0.0,0,False
2023-03-21,0.9388513283611816,0.9388513283611816,0.0,0,False
2023-03-22,0.9388513283611816,0.9388513283611816,0.0,0,False
2023-03-23,0.9388513283611816,0.9388513283611816,0.0,0,False
2023-03-24,0.9388513283611816,0.9388513283611816,0.0,0,False
2023-03-25,0.9388513283611816,0.9388513283611816,0.0,0,False
2023-03-26,0.9388513283611816,0.9388513283611816,0.0,0,False
2023-03-27,0.9388513283611816,0.9388513283611816,0.0,0,False
2023-03-28,0.9388513283611816,0.9388513283611816,0.0,0,False
2023-03-29,0.9388513283611816,0.9388513283611816,0.0,0,False
2023-03-30,0.9388513283611816,0.9388513283611816,0.0,0,False
2023-03-31,0.9388513283611816,0.9388513283611816,0.0,0,False
2023-04-01,0.9388513283611816,0.9388513283611816,0.0,0,False
2023-04-02,0.9388513283611816,0.9388513283611816,0.0,0,False
2023-04-03,0.9388513283611816,0.9388513283611816,0.0,0,False
2023-04-04,0.9388513283611816,0.9388513283611816,0.0,0,False
2023-04-05,0.9388513283611816,0.9388513283611816,0.0,0,False
2023-04-06,0.9388513283611816,0.9388513283611816,0.0,0,False
2023-04-07,0.9388513283611816,0.9388513283611816,0.0,0,False
2023-04-08,0.9388513283611816,0.9388513283611816,0.0,0,False
2023-04-09,0.9388513283611816,0.9388513283611816,0.0,0,False
2023-04-10,0.9388513283611816,0.9388513283611816,0.0,0,False
2023-04-11,0.9388513283611816,0.9388513283611816,0.0,0,False
2023-04-12,0.9388513283611816,0.9388513283611816,0.0,0,False
2023-04-13,0.9388513283611816,0.9388513283611816,0.0,0,False
2023-04-14,0.9388513283611816,0.9388513283611816,0.0,0,False
2023-04-15,0.9388513283611816,0.9388513283611816,0.0,0,False
2023-04-16,0.9388513283611816,0.9388513283611816,0.0,0,False
2023-04-17,0.9388513283611816,0.9388513283611816,0.0,0,False
2023-04-18,0.9388513283611816,0.9388513283611816,0.0,0,False
2023-04-19,0.9388513283611816,0.9388513283611816,0.0,0,False
2023-04-20,0.9388513283611816,0.9388513283611816,0.0,0,False
2023-04-21,0.9388513283611816,0.9388513283611816,0.0,0,False
2023-04-22,0.9388513283611816,0.9388513283611816,0.0,0,False
2023-04-23,0.9388513283611816,0.9388513283611816,0.0,0,False
2023-04-24,0.9388513283611816,0.9388513283611816,0.0,0,False
2023-04-25,0.9388513283611816,0.9388513283611816,0.0,0,False
2023-04-26,0.9388513283611816,0.9388513283611816,0.0,0,False
2023-04-27,0.9388513283611816,0.9388513283611816,0.0,0,False
2023-04-28,0.9388513283611816,0.9388513283611816,0.0,0,False
2023-04-29,0.9388513283611816,0.9388513283611816,0.0,0,False
2023-04-30,0.9388513283611816,0.9388513283611816,0.0,0,False
2023-05-01,0.9388513283611816,0.9388513283611816,0.0,0,False
2023-05-02,0.9388513283611816,0.9388513283611816,0.0,0,False
2023-05-03,0.9388513283611816,0.9388513283611816,0.0,0,False
2023-05-04,0.9388513283611816,0.9388513283611816,0.0,0,False
2023-05-05,0.9388513283611816,0.9388513283611816,0.0,0,False
2023-05-06,0.9388513283611816,0.9388513283611816,0.0,0,False
2023-05-07,0.9388513283611816,0.9388513283611816,0.0,0,False
2023-05-08,0.9388513283611816,0.9388513283611816,0.0,0,False
2023-05-09,0.9388513283611816,0.9388513283611816,0.0,0,False
2023-05-10,0.9388513283611816,0.9388513283611816,0.0,0,False
2023-05-11,0.9388513283611816,0.9388513283611816,0.0,0,False
2023-05-12,0.9388513283611816,0.9388513283611816,0.0,0,False
2023-05-13,0.9388513283611816,0.9388513283611816,0.0,0,False
2023-05-14,0.9388513283611816,0.9388513283611816,0.0,0,False
2023-05-15,0.9388513283611816,0.9388513283611816,0.0,0,False
2023-05-16,0.9388513283611816,0.9388513283611816,0.0,0,False
2023-05-17,0.9388513283611816,0.9388513283611816,0.0,0,False
2023-05-18,0.9388513283611816,0.9388513283611816,0.0,0,False
2023-05-19,0.9388513283611816,0.9388513283611816,0.0,0,False
2023-05-20,0.9388513283611816,0.9388513283611816,0.0,0,False
2023-05-21,0.9388513283611816,0.9388513283611816,0.0,0,False
2023-05-22,0.9388513283611816,0.9388513283611816,0.0,0,False
2023-05-23,0.9388513283611816,0.9388513283611816,0.0,0,False
2023-05-24,0.9388513283611816,0.9388513283611816,0.0,0,False
2023-05-25,0.9388513283611816,0.9388513283611816,0.0,0,False
2023-05-26,0.9388513283611816,0.9388513283611816,0.0,0,False
2023-05-27,0.9388513283611816,0.9388513283611816,0.0,0,False
2023-05-28,0.9388513283611816,0.9388513283611816,0.0,0,False
2023-05-29,0.9388513283611816,0.9388513283611816,0.0,0,False
2023-05-30,0.9388513283611816,0.9388513283611816,0.0,0,False
2023-05-31,0.9388513283611816,0.9388513283611816,0.0,0,False
2023-06-01,0.9388513283611816,0.9388513283611816,0.0,0,False
2023-06-02,0.9388513283611816,0.9388513283611816,0.0,0,False
2023-06-03,0.9388513283611816,0.9388513283611816,0.0,0,False
2023-06-04,0.9388513283611816,0.9388513283611816,0.0,0,False
2023-06-05,0.9388513283611816,0.9388513283611816,0.0,0,False
2023-06-06,0.9388513283611816,0.9388513283611816,0.0,0,False
2023-06-07,0.9388513283611816,0.9388513283611816,0.0,0,False
2023-06-08,0.9388513283611816,0.9388513283611816,0.0,0,False
2023-06-09,0.9388513283611816,0.9388513283611816,0.0,0,False
2023-06-10,0.9388513283611816,0.9388513283611816,0.0,0,False
2023-06-11,0.9388513283611816,0.9388513283611816,0.0,0,False
2023-06-12,0.9388513283611816,0.9388513283611816,0.0,0,False
2023-06-13,0.9388513283611816,0.9388513283611816,0.0,0,False
2023-06-14,0.9388513283611816,0.9388513283611816,0.0,0,False
2023-06-15,0.9388513283611816,0.9388513283611816,0.0,0,False
2023-06-16,0.9388513283611816,0.9388513283611816,0.0,0,False
2023-06-17,0.9388513283611816,0.9388513283611816,0.0,0,False
2023-06-18,0.9388513283611816,0.9388513283611816,0.0,0,False
2023-06-19,0.9388513283611816,0.9388513283611816,0.0,0,False
2023-06-20,0.9388513283611816,0.9388513283611816,0.0,0,False
2023-06-21,0.9388513283611816,0.9388513283611816,0.0,0,False
2023-06-22,0.9388513283611816,0.9388513283611816,0.0,0,False
2023-06-23,0.9388513283611816,0.9388513283611816,0.0,0,False
2023-06-24,0.9388513283611816,0.9388513283611816,0.0,0,False
2023-06-25,0.9388513283611816,0.9388513283611816,0.0,0,False
2023-06-26,0.9388513283611816,0.9388513283611816,0.0,0,False
2023-06-27,0.9388513283611816,0.9388513283611816,0.0,0,False
2023-06-28,0.9388513283611816,0.9388513283611816,0.0,0,False
2023-06-29,0.9388513283611816,0.9388513283611816,0.0,0,False
2023-06-30,0.9388513283611816,0.9388513283611816,0.0,0,False
2023-07-01,0.9388513283611816,0.9388513283611816,0.0,0,False
2023-07-02,0.9388513283611816,0.9388513283611816,0.0,0,False
2023-07-03,0.9388513283611816,0.9388513283611816,0.0,0,False
2023-07-04,0.9388513283611816,0.9388513283611816,0.0,0,False
2023-07-05,0.9388513283611816,0.9388513283611816,0.0,0,False
2023-07-06,0.9388513283611816,0.9388513283611816,0.0,0,False
2023-07-07,0.9388513283611816,0.9388513283611816,0.0,0,False
2023-07-08,0.9388513283611816,0.9388513283611816,0.0,0,False
2023-07-09,0.9388513283611816,0.9388513283611816,0.0,0,False
2023-07-10,0.9388513283611816,0.9388513283611816,0.0,0,False
2023-07-11,0.9388513283611816,0.9388513283611816,0.0,0,False
2023-07-12,0.9388513283611816,0.9388513283611816,0.0,0,False
2023-07-13,0.9388513283611816,0.9388513283611816,0.0,0,False
2023-07-14,0.9388513283611816,0.9388513283611816,0.0,0,False
2023-07-15,0.9388513283611816,0.9388513283611816,0.0,0,False
2023-07-16,0.9388513283611816,0.9388513283611816,0.0,0,False
2023-07-17,0.9388513283611816,0.9388513283611816,0.0,0,False
2023-07-18,0.9388513283611816,0.9388513283611816,0.0,0,False
2023-07-19,0.9388513283611816,0.9388513283611816,0.0,0,False
2023-07-20,0.9388513283611816,0.9388513283611816,0.0,0,False
2023-07-21,0.9388513283611816,0.9388513283611816,0.0,0,False
2023-07-22,0.9388513283611816,0.9388513283611816,0.0,0,False
2023-07-23,0.9388513283611816,0.9388513283611816,0.0,0,False
2023-07-24,0.9388513283611816,0.9388513283611816,0.0,0,False
2023-07-25,0.9388513283611816,0.9388513283611816,0.0,0,False
2023-07-26,0.9388513283611816,0.9388513283611816,0.0,0,False
2023-07-27,0.9388513283611816,0.9388513283611816,0.0,0,False
2023-07-28,0.9388513283611816,0.9388513283611816,0.0,0,False
2023-07-29,0.9388513283611816,0.9388513283611816,0.0,0,False
2023-07-30,0.9388513283611816,0.9388513283611816,0.0,0,False
2023-07-31,0.9388513283611816,0.9388513283611816,0.0,0,False
2023-08-01,0.9388513283611816,0.9388513283611816,0.0,0,False
2023-08-02,0.9388513283611816,0.9388513283611816,0.0,0,False
2023-08-03,0.9388513283611816,0.9388513283611816,0.0,0,False
2023-08-04,0.9388513283611816,0.9388513283611816,0.0,0,False
2023-08-05,0.9388513283611816,0.9388513283611816,0.0,0,False
2023-08-06,0.9388513283611816,0.9388513283611816,0.0,0,False
2023-08-07,0.9388513283611816,0.9388513283611816,0.0,0,False
2023-08-08,0.9388513283611816,0.9388513283611816,0.0,0,False
2023-08-09,0.9388513283611816,0.9388513283611816,0.0,0,False
2023-08-10,0.9388513283611816,0.9388513283611816,0.0,0,False
2023-08-11,0.9388513283611816,0.9388513283611816,0.0,0,False
2023-08-12,0.9388513283611816,0.9388513283611816,0.0,0,False
2023-08-13,0.9388513283611816,0.9388513283611816,0.0,0,False
2023-08-14,0.9388513283611816,0.9388513283611816,0.0,0,False
2023-08-15,0.9388513283611816,0.9388513283611816,0.0,0,False
2023-08-16,0.9388513283611816,0.9388513283611816,0.0,0,False
2023-08-17,0.9388513283611816,0.9388513283611816,0.0,0,False
2023-08-18,0.9388513283611816,0.9388513283611816,0.0,0,False
2023-08-19,0.9388513283611816,0.9388513283611816,0.0,0,False
2023-08-20,0.9388513283611816,0.9388513283611816,0.0,0,False
2023-08-21,0.9388513283611816,0.9388513283611816,0.0,0,False
2023-08-22,0.9388513283611816,0.9388513283611816,0.0,0,False
2023-08-23,0.9388513283611816,0.9388513283611816,0.0,0,False
2023-08-24,0.9388513283611816,0.9388513283611816,0.0,0,False
2023-08-25,0.9388513283611816,0.9388513283611816,0.0,0,False
2023-08-26,0.9388513283611816,0.9388513283611816,0.0,0,False
2023-08-27,0.9388513283611816,0.9388513283611816,0.0,0,False
2023-08-28,0.9388513283611816,0.9388513283611816,0.0,0,False
2023-08-29,0.9388513283611816,0.9388513283611816,0.0,0,False
2023-08-30,0.9388513283611816,0.9388513283611816,0.0,0,False
2023-08-31,0.9388513283611816,0.9388513283611816,0.0,0,False
2023-09-01,0.9388513283611816,0.9388513283611816,0.0,0,False
2023-09-02,0.9388513283611816,0.9388513283611816,0.0,0,False
2023-09-03,0.9388513283611816,0.9388513283611816,0.0,0,False
2023-09-04,0.9388513283611816,0.9388513283611816,0.0,0,False
2023-09-05,0.9388513283611816,0.9388513283611816,0.0,0,False
2023-09-06,0.9388513283611816,0.9388513283611816,0.0,0,False
2023-09-07,0.9388513283611816,0.9388513283611816,0.0,0,False
2023-09-08,0.9388513283611816,0.9388513283611816,0.0,0,False
2023-09-09,0.9388513283611816,0.9388513283611816,0.0,0,False
2023-09-10,0.9388513283611816,0.9388513283611816,0.0,0,False
2023-09-11,0.9388513283611816,0.9388513283611816,0.0,0,False
2023-09-12,0.9388513283611816,0.9388513283611816,0.0,0,False
2023-09-13,0.9388513283611816,0.9388513283611816,0.0,0,False
2023-09-14,0.9388513283611816,0.9388513283611816,0.0,0,False
2023-09-15,0.9388513283611816,0.9388513283611816,0.0,0,False
2023-09-16,0.9388513283611816,0.9388513283611816,0.0,0,False
2023-09-17,0.9388513283611816,0.9388513283611816,0.0,0,False
2023-09-18,0.9388513283611816,0.9388513283611816,0.0,0,False
2023-09-19,0.9388513283611816,0.9388513283611816,0.0,0,False
2023-09-20,0.9388513283611816,0.9388513283611816,0.0,0,False
2023-09-21,0.9388513283611816,0.9388513283611816,0.0,0,False
2023-09-22,0.9388513283611816,0.9388513283611816,0.0,0,False
2023-09-23,0.9388513283611816,0.9388513283611816,0.0,0,False
2023-09-24,0.9388513283611816,0.9388513283611816,0.0,0,False
2023-09-25,0.9388513283611816,0.9388513283611816,0.0,0,False
2023-09-26,0.9388513283611816,0.9388513283611816,0.0,0,False
2023-09-27,0.9388513283611816,0.9388513283611816,0.0,0,False
2023-09-28,0.9388513283611816,0.9388513283611816,0.0,0,False
2023-09-29,0.9388513283611816,0.9388513283611816,0.0,0,False
2023-09-30,0.9388513283611816,0.9388513283611816,0.0,0,False
2023-10-01,0.9388513283611816,0.9388513283611816,0.0,0,False
2023-10-02,0.9388513283611816,0.9388513283611816,0.0,0,False
2023-10-03,0.9388513283611816,0.9388513283611816,0.0,0,False
2023-10-04,0.9388513283611816,0.9388513283611816,0.0,0,False
2023-10-05,0.9388513283611816,0.9388513283611816,0.0,0,False
2023-10-06,0.9388513283611816,0.9388513283611816,0.0,0,False
2023-10-07,0.9388513283611816,0.9388513283611816,0.0,0,False
2023-10-08,0.9388513283611816,0.9388513283611816,0.0,0,False
2023-10-09,0.9388513283611816,0.9388513283611816,0.0,0,False
2023-10-10,0.9388513283611816,0.9388513283611816,0.0,0,False
2023-10-11,0.9388513283611816,0.9388513283611816,0.0,0,False
2023-10-12,0.9388513283611816,0.9388513283611816,0.0,0,False
2023-10-13,0.9388513283611816,0.9388513283611816,0.0,0,False
2023-10-14,0.9388513283611816,0.9388513283611816,0.0,0,False
2023-10-15,0.9388513283611816,0.9388513283611816,0.0,0,False
2023-10-16,0.9388513283611816,0.9388513283611816,0.0,0,False
2023-10-17,0.9388513283611816,0.9388513283611816,0.0,0,False
2023-10-18,0.9388513283611816,0.9388513283611816,0.0,0,False
2023-10-19,0.9388513283611816,0.9388513283611816,0.0,0,False
2023-10-20,0.9388513283611816,0.9388513283611816,0.0,0,False
2023-10-21,0.9388513283611816,0.9388513283611816,0.0,0,False
2023-10-22,0.9388513283611816,0.9388513283611816,0.0,0,False
2023-10-23,0.9388513283611816,0.9388513283611816,0.0,0,False
2023-10-24,0.9388513283611816,0.9388513283611816,0.0,0,False
2023-10-25,0.9388513283611816,0.9388513283611816,0.0,0,False
2023-10-26,0.9388513283611816,0.9388513283611816,0.0,0,False
2023-10-27,0.9388513283611816,0.9388513283611816,0.0,0,False
2023-10-28,0.9388513283611816,0.9388513283611816,0.0,0,False
2023-10-29,0.9388513283611816,0.9388513283611816,0.0,0,False
2023-10-30,0.9388513283611816,0.9388513283611816,0.0,0,False
2023-10-31,0.9388513283611816,0.9388513283611816,0.0,0,False
2023-11-01,0.9388513283611816,0.9388513283611816,0.0,0,False
2023-11-02,0.9388513283611816,0.9388513283611816,0.0,0,False
2023-11-03,0.9388513283611816,0.9388513283611816,0.0,0,False
2023-11-04,0.9388513283611816,0.9388513283611816,0.0,0,False
2023-11-05,0.9388513283611816,0.9388513283611816,0.0,0,False
2023-11-06,0.9388513283611816,0.9388513283611816,0.0,0,False
2023-11-07,0.9388513283611816,0.9388513283611816,0.0,0,False
2023-11-08,0.9388513283611816,0.9388513283611816,0.0,0,False
2023-11-09,0.9388513283611816,0.9388513283611816,0.0,0,False
2023-11-10,0.9388513283611816,0.9388513283611816,0.0,0,False
2023-11-11,0.9388513283611816,0.9388513283611816,0.0,0,False
2023-11-12,0.9388513283611816,0.9388513283611816,0.0,0,False
2023-11-13,0.9388513283611816,0.9388513283611816,0.0,0,False
2023-11-14,0.9388513283611816,0.9388513283611816,0.0,0,False
2023-11-15,0.9388513283611816,0.9388513283611816,0.0,0,False
2023-11-16,0.9388513283611816,0.9388513283611816,0.0,0,False
2023-11-17,0.9388513283611816,0.9388513283611816,0.0,0,False
2023-11-18,0.9388513283611816,0.9388513283611816,0.0,0,False
2023-11-19,0.9388513283611816,0.9388513283611816,0.0,0,False
2023-11-20,0.9388513283611816,0.9388513283611816,0.0,0,False
2023-11-21,0.9388513283611816,0.9388513283611816,0.0,0,False
2023-11-22,0.9388513283611816,0.9388513283611816,0.0,0,False
2023-11-23,0.9388513283611816,0.9388513283611816,0.0,0,False
2023-11-24,0.9388513283611816,0.9388513283611816,0.0,0,False
2023-11-25,0.9388513283611816,0.9388513283611816,0.0,0,False
2023-11-26,0.9388513283611816,0.9388513283611816,0.0,0,False
2023-11-27,0.9388513283611816,0.9388513283611816,0.0,0,False
2023-11-28,0.9388513283611816,0.9388513283611816,0.0,0,False
2023-11-29,0.9388513283611816,0.9388513283611816,0.0,0,False
2023-11-30,0.9388513283611816,0.9388513283611816,0.0,0,False
2023-12-01,0.9388513283611816,0.9388513283611816,0.0,0,False
2023-12-02,0.9388513283611816,0.9388513283611816,0.0,0,False
2023-12-03,0.9388513283611816,0.9388513283611816,0.0,0,False
2023-12-04,0.9388513283611816,0.9388513283611816,0.0,0,False
2023-12-05,0.9388513283611816,0.9388513283611816,0.0,0,False
2023-12-06,0.9388513283611816,0.9388513283611816,0.0,0,False
2023-12-07,0.9388513283611816,0.9388513283611816,0.0,0,False
2023-12-08,0.9388513283611816,0.9388513283611816,0.0,0,False
2023-12-09,0.9388513283611816,0.9388513283611816,0.0,0,False
2023-12-10,0.9388513283611816,0.9388513283611816,0.0,0,False
2023-12-11,0.9388513283611816,0.9388513283611816,0.0,0,False
2023-12-12,0.9388513283611816,0.9388513283611816,0.0,0,False
2023-12-13,0.9388513283611816,0.9388513283611816,0.0,0,False
2023-12-14,0.9388513283611816,0.9388513283611816,0.0,0,False
2023-12-15,0.9388513283611816,0.9388513283611816,0.0,0,False
2023-12-16,0.9388513283611816,0.9388513283611816,0.0,0,False
2023-12-17,0.9388513283611816,0.9388513283611816,0.0,0,False
2023-12-18,0.9388513283611816,0.9388513283611816,0.0,0,False
2023-12-19,0.9388513283611816,0.9388513283611816,0.0,0,False
2023-12-20,0.9388513283611816,0.9388513283611816,0.0,0,False
2023-12-21,0.9388513283611816,0.9388513283611816,0.0,0,False
2023-12-22,0.9388513283611816,0.9388513283611816,0.0,0,False
2023-12-23,0.9388513283611816,0.9388513283611816,0.0,0,False
2023-12-24,0.9388513283611816,0.9388513283611816,0.0,0,False
2023-12-25,0.9388513283611816,0.9388513283611816,0.0,0,False
2023-12-26,0.9388513283611816,0.9388513283611816,0.0,0,False
2023-12-27,0.9388513283611816,0.9388513283611816,0.0,0,False
2023-12-28,0.9388513283611816,0.9388513283611816,0.0,0,False
2023-12-29,0.9388513283611816,0.9388513283611816,0.0,0,False
2023-12-30,0.9388513283611816,0.9388513283611816,0.0,0,False
2023-12-31,0.9388513283611816,0.9388513283611816,0.0,0,False
