day,start_equity,end_equity,return_pct,entries,active
2024-01-02,1.0032761764537503,0.9919630700785369,-1.1276163673298312,1,True
2024-01-03,0.9919630700785369,0.9689198543946778,-2.322991286564202,4,True
2024-01-04,0.9689198543946778,0.9824060079654795,1.3918750358590914,10,True
2024-01-05,0.9824060079654795,0.973268005993071,-0.9301655220261718,7,True
2024-01-06,0.973268005993071,0.9670016817244467,-0.6438436514956125,7,True
2024-01-07,0.9670016817244467,0.9708433973797835,0.3972811762318784,8,True
2024-01-08,0.9708433973797835,0.9481975014150279,-2.3326002963891868,3,True
2024-01-09,0.9481975014150279,0.9387932890837778,-0.9917988939240896,5,True
2024-01-10,0.9387932890837778,0.923021502102818,-1.6800063618213956,7,True
2024-01-11,0.923021502102818,0.9419544478262681,2.0511922723704057,6,True
2024-01-12,0.9419544478262681,0.9227067558703753,-2.043378212217206,1,True
2024-01-13,0.9227067558703753,0.9313532421601535,0.9370784634195051,8,True
2024-01-14,0.9313532421601535,0.930632555675373,-0.07738057400314968,1,True
2024-01-15,0.930632555675373,0.9407178239671496,1.083700353084871,5,True
2024-01-16,0.9407178239671496,0.93829023327769,-0.2580572651661006,1,True
2024-01-17,0.93829023327769,0.9456046370788806,0.7795459807398375,0,True
2024-01-18,0.9456046370788806,0.9443656717225809,-0.13102361258793271,1,True
2024-01-19,0.9443656717225809,0.9361906682943616,-0.8656607999428467,1,True
2024-01-20,0.9361906682943616,0.9712153697941416,3.7411931870236614,11,True
2024-01-21,0.9712153697941416,0.9678943551003414,-0.3419442069274581,3,True
2024-01-22,0.9678943551003414,0.9485098595092436,-2.0027491108870255,3,True
2024-01-23,0.9485098595092436,0.9279834560483358,-2.164068539206132,11,True
2024-01-24,0.9279834560483358,0.9233552109138908,-0.4987422032450395,1,True
2024-01-25,0.9233552109138908,0.9139147587609912,-1.0224074160534613,3,True
2024-01-26,0.9139147587609912,0.9096131326651334,-0.4706813249946262,0,True
2024-01-27,0.9096131326651334,0.9096131326651334,0.0,0,False
2024-01-28,0.9096131326651334,0.9068880315416392,-0.2995890258872813,1,True
2024-01-29,0.9068880315416392,0.905071981747321,-0.20025071796693217,0,True
2024-01-30,0.905071981747321,0.905071981747321,0.0,0,False
2024-01-31,0.905071981747321,0.9005630786557507,-0.4981817117866605,1,True
2024-02-01,0.9005630786557507,0.9005630786557507,0.0,0,False
2024-02-02,0.9005630786557507,0.9000889960252774,-0.05264291216345862,3,True
2024-02-03,0.9000889960252774,0.9005310688219729,0.0491143429869334,1,True
2024-02-04,0.9005310688219729,0.8986076243489912,-0.2135900181098438,1,True
2024-02-05,0.8986076243489912,0.8986076243489912,0.0,0,False
2024-02-06,0.8986076243489912,0.8951984661897628,-0.3793822873134678,2,True
2024-02-07,0.8951984661897628,0.8914119546074958,-0.42298012399234475,5,True
2024-02-08,0.8914119546074958,0.902516779948066,1.2457568336583291,1,True
2024-02-09,0.902516779948066,0.902516779948066,0.0,0,False
2024-02-10,0.902516779948066,0.8995881376126164,-0.3244972725734985,2,True
2024-02-11,0.8995881376126164,0.8983382157891258,-0.13894378674308427,0,True
2024-02-12,0.8983382157891258,0.9013803952426072,0.3386452229252157,3,True
2024-02-13,0.9013803952426072,0.9014281498994478,0.0052979471367065045,0,True
2024-02-14,0.9014281498994478,0.9023725912825987,0.10477167628459849,2,True
2024-02-15,0.9023725912825987,0.9097973422421003,0.8228032446052413,7,True
2024-02-16,0.9097973422421003,0.912743917570236,0.32387161308629064,7,True
2024-02-17,0.912743917570236,0.9065089708965496,-0.6830992300977612,6,True
2024-02-18,0.9065089708965496,0.9059709060794157,-0.05935570793103029,4,True
2024-02-19,0.9059709060794157,0.9012857334903156,-0.5171438241184934,6,True
2024-02-20,0.9012857334903156,0.8916054286735895,-1.0740550368236956,12,True
2024-02-21,0.8916054286735895,0.8852089733553345,-0.7174087452305855,9,True
2024-02-22,0.8852089733553345,0.9020587881023988,1.9034844035974885,5,True
2024-02-23,0.9020587881023988,0.8945724490066433,-0.8299169848457466,7,True
2024-02-24,0.8945724490066433,0.8995195361238411,0.5530113433172668,9,True
2024-02-25,0.8995195361238411,0.8973019411687423,-0.2465310497484774,7,True
2024-02-26,0.8973019411687423,0.9015606708439097,0.4746150074767863,7,True
2024-02-27,0.9015606708439097,0.8940560258549043,-0.8324059857203636,7,True
2024-02-28,0.8940560258549043,0.8919063968232607,-0.24043560688359333,7,True
2024-02-29,0.8919063968232607,0.8869153511644662,-0.5595929882968975,16,True
2024-03-01,0.8869153511644662,0.895692001310632,0.9895702148623897,9,True
2024-03-02,0.895692001310632,0.8934293679799296,-0.25261287667988075,9,True
2024-03-03,0.8934293679799296,0.9056072761224958,1.3630521425662234,12,True
2024-03-04,0.9056072761224958,0.9099640891097147,0.48109297507781257,4,True
2024-03-05,0.9099640891097147,0.92246250756961,1.373506780044842,16,True
2024-03-06,0.92246250756961,0.8989726200910806,-2.5464327585971724,9,True
2024-03-07,0.8989726200910806,0.8973582371709249,-0.17958087755688412,7,True
2024-03-08,0.8973582371709249,0.9018328138278048,0.49863883469625225,6,True
2024-03-09,0.9018328138278048,0.9058169700990821,0.4417843540607924,7,True
2024-03-10,0.9058169700990821,0.8969360065290211,-0.980436872262358,9,True
2024-03-11,0.8969360065290211,0.9000421322037271,0.34630404533833037,10,True
2024-03-12,0.9000421322037271,0.9080882889341388,0.8939755643117442,8,True
2024-03-13,0.9080882889341388,0.9120271485388386,0.43375293489611444,9,True
2024-03-14,0.9120271485388386,0.9142336805197305,0.24193709413442566,6,True
2024-03-15,0.9142336805197305,0.8954672629547417,-2.0526937439364956,11,True
2024-03-16,0.8954672629547417,0.8932260236225043,-0.25028713219978904,4,True
2024-03-17,0.8932260236225043,0.8807589433193027,-1.395736350430199,9,True
2024-03-18,0.8807589433193027,0.8953159968878465,1.652785211999408,5,True
2024-03-19,0.8953159968878465,0.8761883572314444,-2.1364121408408265,9,True
2024-03-20,0.8761883572314444,0.8640319243636289,-1.3874223239198402,7,True
2024-03-21,0.8640319243636289,0.8716756972317555,0.884663245950823,5,True
2024-03-22,0.8716756972317555,0.8718984610580878,0.025555814741617944,10,True
2024-03-23,0.8718984610580878,0.8799976411861334,0.9289132266866229,6,True
2024-03-24,0.8799976411861334,0.8767585241897289,-0.3680824634982649,6,True
2024-03-25,0.8767585241897289,0.8915521425126504,1.6873081828994163,4,True
2024-03-26,0.8915521425126504,0.9022998600801913,1.2055063360905338,9,True
2024-03-27,0.9022998600801913,0.8986909268587638,-0.39997049551872,10,True
2024-03-28,0.8986909268587638,0.8920855585835572,-0.7349988831304555,5,True
2024-03-29,0.8920855585835572,0.880947270991027,-1.2485671901488304,7,True
2024-03-30,0.880947270991027,0.877266871281961,-0.41777752542734303,3,True
2024-03-31,0.877266871281961,0.8756765497780069,-0.18128138152876394,1,True
2024-04-01,0.8756765497780069,0.8721099165190203,-0.40730030510590653,6,True
2024-04-02,0.8721099165190203,0.8601640884636766,-1.369761750104248,9,True
2024-04-03,0.8601640884636766,0.8533365472651203,-0.7937486916886893,5,True
2024-04-04,0.8533365472651203,0.852304331023101,-0.12096238527782299,0,True
2024-04-05,0.852304331023101,0.852304331023101,0.0,0,False
2024-04-06,0.852304331023101,0.852304331023101,0.0,0,False
2024-04-07,0.852304331023101,0.852304331023101,0.0,0,False
2024-04-08,0.852304331023101,0.852304331023101,0.0,0,False
2024-04-09,0.852304331023101,0.852304331023101,0.0,0,False
2024-04-10,0.852304331023101,0.852304331023101,0.0,0,False
2024-04-11,0.852304331023101,0.852304331023101,0.0,0,False
2024-04-12,0.852304331023101,0.852304331023101,0.0,0,False
2024-04-13,0.852304331023101,0.852304331023101,0.0,0,False
2024-04-14,0.852304331023101,0.852304331023101,0.0,0,False
2024-04-15,0.852304331023101,0.852304331023101,0.0,0,False
2024-04-16,0.852304331023101,0.852304331023101,0.0,0,False
2024-04-17,0.852304331023101,0.852304331023101,0.0,0,False
2024-04-18,0.852304331023101,0.852304331023101,0.0,0,False
2024-04-19,0.852304331023101,0.852304331023101,0.0,0,False
2024-04-20,0.852304331023101,0.852304331023101,0.0,0,False
2024-04-21,0.852304331023101,0.852304331023101,0.0,0,False
2024-04-22,0.852304331023101,0.852304331023101,0.0,0,False
2024-04-23,0.852304331023101,0.852304331023101,0.0,0,False
2024-04-24,0.852304331023101,0.852304331023101,0.0,0,False
2024-04-25,0.852304331023101,0.852304331023101,0.0,0,False
2024-04-26,0.852304331023101,0.852304331023101,0.0,0,False
2024-04-27,0.852304331023101,0.852304331023101,0.0,0,False
2024-04-28,0.852304331023101,0.852304331023101,0.0,0,False
2024-04-29,0.852304331023101,0.852304331023101,0.0,0,False
2024-04-30,0.852304331023101,0.852304331023101,0.0,0,False
2024-05-01,0.852304331023101,0.852304331023101,0.0,0,False
2024-05-02,0.852304331023101,0.852304331023101,0.0,0,False
2024-05-03,0.852304331023101,0.852304331023101,0.0,0,False
2024-05-04,0.852304331023101,0.852304331023101,0.0,0,False
2024-05-05,0.852304331023101,0.852304331023101,0.0,0,False
2024-05-06,0.852304331023101,0.852304331023101,0.0,0,False
2024-05-07,0.852304331023101,0.852304331023101,0.0,0,False
2024-05-08,0.852304331023101,0.852304331023101,0.0,0,False
2024-05-09,0.852304331023101,0.852304331023101,0.0,0,False
2024-05-10,0.852304331023101,0.852304331023101,0.0,0,False
2024-05-11,0.852304331023101,0.852304331023101,0.0,0,False
2024-05-12,0.852304331023101,0.852304331023101,0.0,0,False
2024-05-13,0.852304331023101,0.852304331023101,0.0,0,False
2024-05-14,0.852304331023101,0.852304331023101,0.0,0,False
2024-05-15,0.852304331023101,0.852304331023101,0.0,0,False
2024-05-16,0.852304331023101,0.852304331023101,0.0,0,False
2024-05-17,0.852304331023101,0.852304331023101,0.0,0,False
2024-05-18,0.852304331023101,0.852304331023101,0.0,0,False
2024-05-19,0.852304331023101,0.852304331023101,0.0,0,False
2024-05-20,0.852304331023101,0.852304331023101,0.0,0,False
2024-05-21,0.852304331023101,0.852304331023101,0.0,0,False
2024-05-22,0.852304331023101,0.852304331023101,0.0,0,False
2024-05-23,0.852304331023101,0.852304331023101,0.0,0,False
2024-05-24,0.852304331023101,0.852304331023101,0.0,0,False
2024-05-25,0.852304331023101,0.852304331023101,0.0,0,False
2024-05-26,0.852304331023101,0.852304331023101,0.0,0,False
2024-05-27,0.852304331023101,0.852304331023101,0.0,0,False
2024-05-28,0.852304331023101,0.852304331023101,0.0,0,False
2024-05-29,0.852304331023101,0.852304331023101,0.0,0,False
2024-05-30,0.852304331023101,0.852304331023101,0.0,0,False
2024-05-31,0.852304331023101,0.852304331023101,0.0,0,False
2024-06-01,0.852304331023101,0.852304331023101,0.0,0,False
2024-06-02,0.852304331023101,0.852304331023101,0.0,0,False
2024-06-03,0.852304331023101,0.852304331023101,0.0,0,False
2024-06-04,0.852304331023101,0.852304331023101,0.0,0,False
2024-06-05,0.852304331023101,0.852304331023101,0.0,0,False
2024-06-06,0.852304331023101,0.852304331023101,0.0,0,False
2024-06-07,0.852304331023101,0.852304331023101,0.0,0,False
2024-06-08,0.852304331023101,0.852304331023101,0.0,0,False
2024-06-09,0.852304331023101,0.852304331023101,0.0,0,False
2024-06-10,0.852304331023101,0.852304331023101,0.0,0,False
2024-06-11,0.852304331023101,0.852304331023101,0.0,0,False
2024-06-12,0.852304331023101,0.852304331023101,0.0,0,False
2024-06-13,0.852304331023101,0.852304331023101,0.0,0,False
2024-06-14,0.852304331023101,0.852304331023101,0.0,0,False
2024-06-15,0.852304331023101,0.852304331023101,0.0,0,False
2024-06-16,0.852304331023101,0.852304331023101,0.0,0,False
2024-06-17,0.852304331023101,0.852304331023101,0.0,0,False
2024-06-18,0.852304331023101,0.852304331023101,0.0,0,False
2024-06-19,0.852304331023101,0.852304331023101,0.0,0,False
2024-06-20,0.852304331023101,0.852304331023101,0.0,0,False
2024-06-21,0.852304331023101,0.852304331023101,0.0,0,False
2024-06-22,0.852304331023101,0.852304331023101,0.0,0,False
2024-06-23,0.852304331023101,0.852304331023101,0.0,0,False
2024-06-24,0.852304331023101,0.852304331023101,0.0,0,False
2024-06-25,0.852304331023101,0.852304331023101,0.0,0,False
2024-06-26,0.852304331023101,0.852304331023101,0.0,0,False
2024-06-27,0.852304331023101,0.852304331023101,0.0,0,False
2024-06-28,0.852304331023101,0.852304331023101,0.0,0,False
2024-06-29,0.852304331023101,0.852304331023101,0.0,0,False
2024-06-30,0.852304331023101,0.852304331023101,0.0,0,False
2024-07-01,0.852304331023101,0.852304331023101,0.0,0,False
2024-07-02,0.852304331023101,0.852304331023101,0.0,0,False
2024-07-03,0.852304331023101,0.852304331023101,0.0,0,False
2024-07-04,0.852304331023101,0.852304331023101,0.0,0,False
2024-07-05,0.852304331023101,0.852304331023101,0.0,0,False
2024-07-06,0.852304331023101,0.852304331023101,0.0,0,False
2024-07-07,0.852304331023101,0.852304331023101,0.0,0,False
2024-07-08,0.852304331023101,0.852304331023101,0.0,0,False
2024-07-09,0.852304331023101,0.852304331023101,0.0,0,False
2024-07-10,0.852304331023101,0.852304331023101,0.0,0,False
2024-07-11,0.852304331023101,0.852304331023101,0.0,0,False
2024-07-12,0.852304331023101,0.852304331023101,0.0,0,False
2024-07-13,0.852304331023101,0.852304331023101,0.0,0,False
2024-07-14,0.852304331023101,0.852304331023101,0.0,0,False
2024-07-15,0.852304331023101,0.852304331023101,0.0,0,False
2024-07-16,0.852304331023101,0.852304331023101,0.0,0,False
2024-07-17,0.852304331023101,0.852304331023101,0.0,0,False
2024-07-18,0.852304331023101,0.852304331023101,0.0,0,False
2024-07-19,0.852304331023101,0.852304331023101,0.0,0,False
2024-07-20,0.852304331023101,0.852304331023101,0.0,0,False
2024-07-21,0.852304331023101,0.852304331023101,0.0,0,False
2024-07-22,0.852304331023101,0.852304331023101,0.0,0,False
2024-07-23,0.852304331023101,0.852304331023101,0.0,0,False
2024-07-24,0.852304331023101,0.852304331023101,0.0,0,False
2024-07-25,0.852304331023101,0.852304331023101,0.0,0,False
2024-07-26,0.852304331023101,0.852304331023101,0.0,0,False
2024-07-27,0.852304331023101,0.852304331023101,0.0,0,False
2024-07-28,0.852304331023101,0.852304331023101,0.0,0,False
2024-07-29,0.852304331023101,0.852304331023101,0.0,0,False
2024-07-30,0.852304331023101,0.852304331023101,0.0,0,False
2024-07-31,0.852304331023101,0.852304331023101,0.0,0,False
2024-08-01,0.852304331023101,0.852304331023101,0.0,0,False
2024-08-02,0.852304331023101,0.852304331023101,0.0,0,False
2024-08-03,0.852304331023101,0.852304331023101,0.0,0,False
2024-08-04,0.852304331023101,0.852304331023101,0.0,0,False
2024-08-05,0.852304331023101,0.852304331023101,0.0,0,False
2024-08-06,0.852304331023101,0.852304331023101,0.0,0,False
2024-08-07,0.852304331023101,0.852304331023101,0.0,0,False
2024-08-08,0.852304331023101,0.852304331023101,0.0,0,False
2024-08-09,0.852304331023101,0.852304331023101,0.0,0,False
2024-08-10,0.852304331023101,0.852304331023101,0.0,0,False
2024-08-11,0.852304331023101,0.852304331023101,0.0,0,False
2024-08-12,0.852304331023101,0.852304331023101,0.0,0,False
2024-08-13,0.852304331023101,0.852304331023101,0.0,0,False
2024-08-14,0.852304331023101,0.852304331023101,0.0,0,False
2024-08-15,0.852304331023101,0.852304331023101,0.0,0,False
2024-08-16,0.852304331023101,0.852304331023101,0.0,0,False
2024-08-17,0.852304331023101,0.852304331023101,0.0,0,False
2024-08-18,0.852304331023101,0.852304331023101,0.0,0,False
2024-08-19,0.852304331023101,0.852304331023101,0.0,0,False
2024-08-20,0.852304331023101,0.852304331023101,0.0,0,False
2024-08-21,0.852304331023101,0.852304331023101,0.0,0,False
2024-08-22,0.852304331023101,0.852304331023101,0.0,0,False
2024-08-23,0.852304331023101,0.852304331023101,0.0,0,False
2024-08-24,0.852304331023101,0.852304331023101,0.0,0,False
2024-08-25,0.852304331023101,0.852304331023101,0.0,0,False
2024-08-26,0.852304331023101,0.852304331023101,0.0,0,False
2024-08-27,0.852304331023101,0.852304331023101,0.0,0,False
2024-08-28,0.852304331023101,0.852304331023101,0.0,0,False
2024-08-29,0.852304331023101,0.852304331023101,0.0,0,False
2024-08-30,0.852304331023101,0.852304331023101,0.0,0,False
2024-08-31,0.852304331023101,0.852304331023101,0.0,0,False
2024-09-01,0.852304331023101,0.852304331023101,0.0,0,False
2024-09-02,0.852304331023101,0.852304331023101,0.0,0,False
2024-09-03,0.852304331023101,0.852304331023101,0.0,0,False
2024-09-04,0.852304331023101,0.852304331023101,0.0,0,False
2024-09-05,0.852304331023101,0.852304331023101,0.0,0,False
2024-09-06,0.852304331023101,0.852304331023101,0.0,0,False
2024-09-07,0.852304331023101,0.852304331023101,0.0,0,False
2024-09-08,0.852304331023101,0.852304331023101,0.0,0,False
2024-09-09,0.852304331023101,0.852304331023101,0.0,0,False
2024-09-10,0.852304331023101,0.852304331023101,0.0,0,False
2024-09-11,0.852304331023101,0.852304331023101,0.0,0,False
2024-09-12,0.852304331023101,0.852304331023101,0.0,0,False
2024-09-13,0.852304331023101,0.852304331023101,0.0,0,False
2024-09-14,0.852304331023101,0.852304331023101,0.0,0,False
2024-09-15,0.852304331023101,0.852304331023101,0.0,0,False
2024-09-16,0.852304331023101,0.852304331023101,0.0,0,False
2024-09-17,0.852304331023101,0.852304331023101,0.0,0,False
2024-09-18,0.852304331023101,0.852304331023101,0.0,0,False
2024-09-19,0.852304331023101,0.852304331023101,0.0,0,False
2024-09-20,0.852304331023101,0.852304331023101,0.0,0,False
2024-09-21,0.852304331023101,0.852304331023101,0.0,0,False
2024-09-22,0.852304331023101,0.852304331023101,0.0,0,False
2024-09-23,0.852304331023101,0.852304331023101,0.0,0,False
2024-09-24,0.852304331023101,0.852304331023101,0.0,0,False
2024-09-25,0.852304331023101,0.852304331023101,0.0,0,False
2024-09-26,0.852304331023101,0.852304331023101,0.0,0,False
2024-09-27,0.852304331023101,0.852304331023101,0.0,0,False
2024-09-28,0.852304331023101,0.852304331023101,0.0,0,False
2024-09-29,0.852304331023101,0.852304331023101,0.0,0,False
2024-09-30,0.852304331023101,0.852304331023101,0.0,0,False
2024-10-01,0.852304331023101,0.852304331023101,0.0,0,False
2024-10-02,0.852304331023101,0.852304331023101,0.0,0,False
2024-10-03,0.852304331023101,0.852304331023101,0.0,0,False
2024-10-04,0.852304331023101,0.852304331023101,0.0,0,False
2024-10-05,0.852304331023101,0.852304331023101,0.0,0,False
2024-10-06,0.852304331023101,0.852304331023101,0.0,0,False
2024-10-07,0.852304331023101,0.852304331023101,0.0,0,False
2024-10-08,0.852304331023101,0.852304331023101,0.0,0,False
2024-10-09,0.852304331023101,0.852304331023101,0.0,0,False
2024-10-10,0.852304331023101,0.852304331023101,0.0,0,False
2024-10-11,0.852304331023101,0.852304331023101,0.0,0,False
2024-10-12,0.852304331023101,0.852304331023101,0.0,0,False
2024-10-13,0.852304331023101,0.852304331023101,0.0,0,False
2024-10-14,0.852304331023101,0.852304331023101,0.0,0,False
2024-10-15,0.852304331023101,0.852304331023101,0.0,0,False
2024-10-16,0.852304331023101,0.852304331023101,0.0,0,False
2024-10-17,0.852304331023101,0.852304331023101,0.0,0,False
2024-10-18,0.852304331023101,0.852304331023101,0.0,0,False
2024-10-19,0.852304331023101,0.852304331023101,0.0,0,False
2024-10-20,0.852304331023101,0.852304331023101,0.0,0,False
2024-10-21,0.852304331023101,0.852304331023101,0.0,0,False
2024-10-22,0.852304331023101,0.852304331023101,0.0,0,False
2024-10-23,0.852304331023101,0.852304331023101,0.0,0,False
2024-10-24,0.852304331023101,0.852304331023101,0.0,0,False
2024-10-25,0.852304331023101,0.852304331023101,0.0,0,False
2024-10-26,0.852304331023101,0.852304331023101,0.0,0,False
2024-10-27,0.852304331023101,0.852304331023101,0.0,0,False
2024-10-28,0.852304331023101,0.852304331023101,0.0,0,False
2024-10-29,0.852304331023101,0.852304331023101,0.0,0,False
2024-10-30,0.852304331023101,0.852304331023101,0.0,0,False
2024-10-31,0.852304331023101,0.852304331023101,0.0,0,False
2024-11-01,0.852304331023101,0.852304331023101,0.0,0,False
2024-11-02,0.852304331023101,0.852304331023101,0.0,0,False
2024-11-03,0.852304331023101,0.852304331023101,0.0,0,False
2024-11-04,0.852304331023101,0.852304331023101,0.0,0,False
2024-11-05,0.852304331023101,0.852304331023101,0.0,0,False
2024-11-06,0.852304331023101,0.852304331023101,0.0,0,False
2024-11-07,0.852304331023101,0.852304331023101,0.0,0,False
2024-11-08,0.852304331023101,0.852304331023101,0.0,0,False
2024-11-09,0.852304331023101,0.852304331023101,0.0,0,False
2024-11-10,0.852304331023101,0.852304331023101,0.0,0,False
2024-11-11,0.852304331023101,0.852304331023101,0.0,0,False
2024-11-12,0.852304331023101,0.852304331023101,0.0,0,False
2024-11-13,0.852304331023101,0.852304331023101,0.0,0,False
2024-11-14,0.852304331023101,0.852304331023101,0.0,0,False
2024-11-15,0.852304331023101,0.852304331023101,0.0,0,False
2024-11-16,0.852304331023101,0.852304331023101,0.0,0,False
2024-11-17,0.852304331023101,0.852304331023101,0.0,0,False
2024-11-18,0.852304331023101,0.852304331023101,0.0,0,False
2024-11-19,0.852304331023101,0.852304331023101,0.0,0,False
2024-11-20,0.852304331023101,0.852304331023101,0.0,0,False
2024-11-21,0.852304331023101,0.852304331023101,0.0,0,False
2024-11-22,0.852304331023101,0.852304331023101,0.0,0,False
2024-11-23,0.852304331023101,0.852304331023101,0.0,0,False
2024-11-24,0.852304331023101,0.852304331023101,0.0,0,False
2024-11-25,0.852304331023101,0.852304331023101,0.0,0,False
2024-11-26,0.852304331023101,0.852304331023101,0.0,0,False
2024-11-27,0.852304331023101,0.852304331023101,0.0,0,False
2024-11-28,0.852304331023101,0.852304331023101,0.0,0,False
2024-11-29,0.852304331023101,0.852304331023101,0.0,0,False
2024-11-30,0.852304331023101,0.852304331023101,0.0,0,False
2024-12-01,0.852304331023101,0.852304331023101,0.0,0,False
2024-12-02,0.852304331023101,0.852304331023101,0.0,0,False
2024-12-03,0.852304331023101,0.852304331023101,0.0,0,False
2024-12-04,0.852304331023101,0.852304331023101,0.0,0,False
2024-12-05,0.852304331023101,0.852304331023101,0.0,0,False
2024-12-06,0.852304331023101,0.852304331023101,0.0,0,False
2024-12-07,0.852304331023101,0.852304331023101,0.0,0,False
2024-12-08,0.852304331023101,0.852304331023101,0.0,0,False
2024-12-09,0.852304331023101,0.852304331023101,0.0,0,False
2024-12-10,0.852304331023101,0.852304331023101,0.0,0,False
2024-12-11,0.852304331023101,0.852304331023101,0.0,0,False
2024-12-12,0.852304331023101,0.852304331023101,0.0,0,False
2024-12-13,0.852304331023101,0.852304331023101,0.0,0,False
2024-12-14,0.852304331023101,0.852304331023101,0.0,0,False
2024-12-15,0.852304331023101,0.852304331023101,0.0,0,False
2024-12-16,0.852304331023101,0.852304331023101,0.0,0,False
2024-12-17,0.852304331023101,0.852304331023101,0.0,0,False
2024-12-18,0.852304331023101,0.852304331023101,0.0,0,False
2024-12-19,0.852304331023101,0.852304331023101,0.0,0,False
2024-12-20,0.852304331023101,0.852304331023101,0.0,0,False
2024-12-21,0.852304331023101,0.852304331023101,0.0,0,False
2024-12-22,0.852304331023101,0.852304331023101,0.0,0,False
2024-12-23,0.852304331023101,0.852304331023101,0.0,0,False
2024-12-24,0.852304331023101,0.852304331023101,0.0,0,False
2024-12-25,0.852304331023101,0.852304331023101,0.0,0,False
2024-12-26,0.852304331023101,0.852304331023101,0.0,0,False
2024-12-27,0.852304331023101,0.852304331023101,0.0,0,False
2024-12-28,0.852304331023101,0.852304331023101,0.0,0,False
2024-12-29,0.852304331023101,0.852304331023101,0.0,0,False
2024-12-30,0.852304331023101,0.852304331023101,0.0,0,False
2024-12-31,0.852304331023101,0.852304331023101,0.0,0,False
