day,start_equity,end_equity,return_pct,entries,active
2021-09-02,1.0,1.0,0.0,0,False
2021-09-03,1.0,1.0,0.0,0,False
2021-09-04,1.0,1.0,0.0,0,False
2021-09-05,1.0,1.0,0.0,0,False
2021-09-06,1.0,1.0,0.0,0,False
2021-09-07,1.0,1.0,0.0,0,False
2021-09-08,1.0,1.0,0.0,0,False
2021-09-09,1.0,1.0,0.0,0,False
2021-09-10,1.0,1.0,0.0,0,False
2021-09-11,1.0,1.0,0.0,0,False
2021-09-12,1.0,1.0,0.0,0,False
2021-09-13,1.0,1.0,0.0,0,False
2021-09-14,1.0,1.0,0.0,0,False
2021-09-15,1.0,1.0,0.0,0,False
2021-09-16,1.0,1.0,0.0,0,False
2021-09-17,1.0,1.0,0.0,0,False
2021-09-18,1.0,1.0,0.0,0,False
2021-09-19,1.0,1.0,0.0,0,False
2021-09-20,1.0,1.0,0.0,0,False
2021-09-21,1.0,1.0,0.0,0,False
2021-09-22,1.0,1.0,0.0,0,False
2021-09-23,1.0,1.0,0.0,0,False
2021-09-24,1.0,1.0,0.0,0,False
2021-09-25,1.0,1.0,0.0,0,False
2021-09-26,1.0,1.0,0.0,0,False
2021-09-27,1.0,1.0,0.0,0,False
2021-09-28,1.0,1.0,0.0,0,False
2021-09-29,1.0,1.0,0.0,0,False
2021-09-30,1.0,1.0,0.0,0,False
2021-10-01,1.0,1.0,0.0,0,False
2021-10-02,1.0,1.0,0.0,0,False
2021-10-03,1.0,1.0,0.0,0,False
2021-10-04,1.0,1.0,0.0,0,False
2021-10-05,1.0,1.0,0.0,0,False
2021-10-06,1.0,0.9978390650138445,-0.21609349861555494,1,True
2021-10-07,0.9978390650138445,0.9978390650138445,0.0,0,False
2021-10-08,0.9978390650138445,0.9978390650138445,0.0,0,False
2021-10-09,0.9978390650138445,0.9954982204974228,-0.2345913883807671,3,True
2021-10-10,0.9954982204974228,0.989627633931084,-0.5897134164042361,1,True
2021-10-11,0.989627633931084,0.989627633931084,0.0,0,False
2021-10-12,0.989627633931084,0.989627633931084,0.0,0,False
2021-10-13,0.989627633931084,1.0022170153028302,1.27213316808239,4,True
2021-10-14,1.0022170153028302,1.0150370657368848,1.2791691059227173,0,True
2021-10-15,1.0150370657368848,1.0179726180132787,0.2892064118134252,1,True
2021-10-16,1.0179726180132787,1.0335161563448019,1.5269112406833374,0,True
2021-10-17,1.0335161563448019,1.0335161563448019,0.0,0,False
2021-10-18,1.0335161563448019,1.0344162046567595,0.08708604180323043,1,True
2021-10-19,1.0344162046567595,1.0344162046567595,0.0,0,False
2021-10-20,1.0344162046567595,1.0344162046567595,0.0,0,False
2021-10-21,1.0344162046567595,1.0344162046567595,0.0,0,False
2021-10-22,1.0344162046567595,1.0344162046567595,0.0,0,False
2021-10-23,1.0344162046567595,1.0344162046567595,0.0,0,False
2021-10-24,1.0344162046567595,1.0344162046567595,0.0,0,False
2021-10-25,1.0344162046567595,1.0378170644994618,0.3287709364366176,1,True
2021-10-26,1.0378170644994618,1.0378170644994618,0.0,0,False
2021-10-27,1.0378170644994618,1.0312351466185712,-0.6342079067725659,6,True
2021-10-28,1.0312351466185712,1.028591385504762,-0.25636840661202864,0,True
2021-10-29,1.028591385504762,1.028591385504762,0.0,0,False
2021-10-30,1.028591385504762,1.028591385504762,0.0,0,False
2021-10-31,1.028591385504762,1.028591385504762,0.0,0,False
2021-11-01,1.028591385504762,1.0297776566361518,0.11532967785918835,1,True
2021-11-02,1.0297776566361518,1.0286806712825496,-0.10652642796559197,0,True
2021-11-03,1.0286806712825496,1.0286698622403831,-0.0010507674993998073,1,True
2021-11-04,1.0286698622403831,1.0473338452670324,1.8143802702647704,1,True
2021-11-05,1.0473338452670324,1.0391945064540087,-0.777148456512311,0,True
2021-11-06,1.0391945064540087,1.0379243775193157,-0.12222244505766255,1,True
2021-11-07,1.0379243775193157,1.0379243775193157,0.0,0,False
2021-11-08,1.0379243775193157,1.0379243775193157,0.0,0,False
2021-11-09,1.0379243775193157,1.0379243775193157,0.0,0,False
2021-11-10,1.0379243775193157,1.0379243775193157,0.0,0,False
2021-11-11,1.0379243775193157,1.0121534739501443,-2.482926899815663,5,True
2021-11-12,1.0121534739501443,1.0121534739501443,0.0,0,False
2021-11-13,1.0121534739501443,1.0109152047241583,-0.12234006579588952,1,True
2021-11-14,1.0109152047241583,1.0109152047241583,0.0,0,False
2021-11-15,1.0109152047241583,1.0109152047241583,0.0,0,False
2021-11-16,1.0109152047241583,1.0275837481848413,1.6488567372207275,5,True
2021-11-17,1.0275837481848413,1.0148256326190965,-1.2415645526003272,0,True
2021-11-18,1.0148256326190965,1.0119967431513357,-0.27875620962193315,2,True
2021-11-19,1.0119967431513357,1.0180235485999205,0.595536051807577,2,True
2021-11-20,1.0180235485999205,1.0185338001077506,0.0501217784727892,0,True
2021-11-21,1.0185338001077506,1.0185338001077506,0.0,0,False
2021-11-22,1.0185338001077506,1.0146479965335666,-0.3815095359400833,1,True
2021-11-23,1.0146479965335666,1.0146479965335666,0.0,0,False
2021-11-24,1.0146479965335666,1.0146479965335666,0.0,0,False
2021-11-25,1.0146479965335666,1.0168669428367227,0.21869124176432386,2,True
2021-11-26,1.0168669428367227,0.9950368375833117,-2.1468005629637466,4,True
2021-11-27,0.9950368375833117,0.9950368375833117,0.0,0,False
2021-11-28,0.9950368375833117,0.993707645066535,-0.1335822420409083,1,True
2021-11-29,0.993707645066535,0.993707645066535,0.0,0,False
2021-11-30,0.993707645066535,0.993707645066535,0.0,0,False
2021-12-01,0.993707645066535,0.993680077672565,-0.0027741956204918594,1,True
2021-12-02,0.993680077672565,0.9914754035690208,-0.22186960905045128,3,True
2021-12-03,0.9914754035690208,0.9887388896769517,-0.2760042137423091,1,True
2021-12-04,0.9887388896769517,0.9673399128320285,-2.164269765085791,8,True
2021-12-05,0.9673399128320285,0.9676107629883428,0.027999481125662307,1,True
2021-12-06,0.9676107629883428,0.9609021628067107,-0.6933159942241085,7,True
2021-12-07,0.9609021628067107,0.9870035252950008,2.716339238122889,0,True
2021-12-08,0.9870035252950008,0.9903355644833723,0.33759141715077323,1,True
2021-12-09,0.9903355644833723,0.988873815202582,-0.14760141241144664,0,True
2021-12-10,0.988873815202582,0.9851551751038531,-0.37604798929448124,1,True
2021-12-11,0.9851551751038531,0.9823293752668703,-0.28683804423855763,1,True
2021-12-12,0.9823293752668703,0.9823293752668703,0.0,0,False
2021-12-13,0.9823293752668703,0.9791389385098956,-0.3247827905083156,1,True
2021-12-14,0.9791389385098956,0.9791389385098956,0.0,0,False
2021-12-15,0.9791389385098956,0.9791389385098956,0.0,0,False
2021-12-16,0.9791389385098956,0.9791389385098956,0.0,0,False
2021-12-17,0.9791389385098956,0.9793867126668231,0.025305311348811088,2,True
2021-12-18,0.9793867126668231,0.9822099567479735,0.28826652890387994,0,True
2021-12-19,0.9822099567479735,0.9777655180808413,-0.45249375009874804,1,True
2021-12-20,0.9777655180808413,0.9777655180808413,0.0,0,False
2021-12-21,0.9777655180808413,0.975133941488666,-0.26914188969771047,1,True
2021-12-22,0.975133941488666,0.9743464088894063,-0.08076147960324187,0,True
2021-12-23,0.9743464088894063,0.9743464088894063,0.0,0,False
2021-12-24,0.9743464088894063,0.9743464088894063,0.0,0,False
2021-12-25,0.9743464088894063,0.9761966191990238,0.18989245434037905,1,True
2021-12-26,0.9761966191990238,0.9761966191990238,0.0,0,False
2021-12-27,0.9761966191990238,0.9761966191990238,0.0,0,False
2021-12-28,0.9761966191990238,0.9761966191990238,0.0,0,False
2021-12-29,0.9761966191990238,0.9761966191990238,0.0,0,False
2021-12-30,0.9761966191990238,0.9761966191990238,0.0,0,False
2021-12-31,0.9761966191990238,0.9761966191990238,0.0,0,False
2022-01-01,0.9761966191990238,0.9761966191990238,0.0,0,False
2022-01-02,0.9761966191990238,0.9761966191990238,0.0,0,False
2022-01-03,0.9761966191990238,0.9761966191990238,0.0,0,False
2022-01-04,0.9761966191990238,0.9761966191990238,0.0,0,False
2022-01-05,0.9761966191990238,0.9771146870272737,0.09404538083763736,1,True
2022-01-06,0.9771146870272737,0.9560617973235586,-2.154597611030229,5,True
2022-01-07,0.9560617973235586,0.954871035881169,-0.12454858521939727,4,True
2022-01-08,0.954871035881169,0.9603216935462099,0.5708265786919631,0,True
2022-01-09,0.9603216935462099,0.9608201627142131,0.05190647793891223,1,True
2022-01-10,0.9608201627142131,0.9622414114640064,0.14792037104824907,0,True
2022-01-11,0.9622414114640064,0.9622414114640064,0.0,0,False
2022-01-12,0.9622414114640064,0.9622414114640064,0.0,0,False
2022-01-13,0.9622414114640064,0.9622414114640064,0.0,0,False
2022-01-14,0.9622414114640064,0.9622414114640064,0.0,0,False
2022-01-15,0.9622414114640064,0.9625783692653195,0.03501801079215383,1,True
2022-01-16,0.9625783692653195,0.9615962828102254,-0.10202664909702008,0,True
2022-01-17,0.9615962828102254,0.9635757994501956,0.2058573515056894,1,True
2022-01-18,0.9635757994501956,0.9686737812635071,0.5290691003468906,0,True
2022-01-19,0.9686737812635071,0.9686737812635071,0.0,0,False
2022-01-20,0.9686737812635071,0.9686737812635071,0.0,0,False
2022-01-21,0.9686737812635071,0.9491860165330231,-2.0117985133307426,7,True
2022-01-22,0.9491860165330231,0.9296328653271075,-2.059991494326374,6,True
2022-01-23,0.9296328653271075,0.9296328653271075,0.0,0,False
2022-01-24,0.9296328653271075,0.9268148258845598,-0.30313466182761983,2,True
2022-01-25,0.9268148258845598,0.9342751179675408,0.8049387940963104,0,True
2022-01-26,0.9342751179675408,0.9342751179675408,0.0,0,False
2022-01-27,0.9342751179675408,0.9389290166579037,0.49812936263220475,4,True
2022-01-28,0.9389290166579037,0.9357668072175647,-0.3367889781055955,0,True
2022-01-29,0.9357668072175647,0.9357668072175647,0.0,0,False
2022-01-30,0.9357668072175647,0.9389795454774648,0.3433268026948877,1,True
2022-01-31,0.9389795454774648,0.9378156173920293,-0.12395670289533367,0,True
2022-02-01,0.9378156173920293,0.9378156173920293,0.0,0,False
2022-02-02,0.9378156173920293,0.9378156173920293,0.0,0,False
2022-02-03,0.9378156173920293,0.9375906916046652,-0.023984009563582376,3,True
2022-02-04,0.9375906916046652,0.9408207053910151,0.3445014775927291,0,True
2022-02-05,0.9408207053910151,0.9408207053910151,0.0,0,False
2022-02-06,0.9408207053910151,0.9408207053910151,0.0,0,False
2022-02-07,0.9408207053910151,0.9408207053910151,0.0,0,False
2022-02-08,0.9408207053910151,0.9408207053910151,0.0,0,False
2022-02-09,0.9408207053910151,0.9419330929349106,0.1182358697593866,2,True
2022-02-10,0.9419330929349106,0.9443609533699886,0.2577529607239004,5,True
2022-02-11,0.9443609533699886,0.9400094864412342,-0.4607842915599236,0,True
2022-02-12,0.9400094864412342,0.9306367667892076,-0.9970877727532912,4,True
2022-02-13,0.9306367667892076,0.9306367667892076,0.0,0,False
2022-02-14,0.9306367667892076,0.9306367667892076,0.0,0,False
2022-02-15,0.9306367667892076,0.9306367667892076,0.0,0,False
2022-02-16,0.9306367667892076,0.9306367667892076,0.0,0,False
2022-02-17,0.9306367667892076,0.9306367667892076,0.0,0,False
2022-02-18,0.9306367667892076,0.9306367667892076,0.0,0,False
2022-02-19,0.9306367667892076,0.9306367667892076,0.0,0,False
2022-02-20,0.9306367667892076,0.9306367667892076,0.0,0,False
2022-02-21,0.9306367667892076,0.9306367667892076,0.0,0,False
2022-02-22,0.9306367667892076,0.9304068137990723,-0.02470920968753454,2,True
2022-02-23,0.9304068137990723,0.930022905702943,-0.04126239086338357,0,True
2022-02-24,0.930022905702943,0.9207547327800772,-0.9965531887475954,4,True
2022-02-25,0.9207547327800772,0.9207547327800772,0.0,0,False
2022-02-26,0.9207547327800772,0.9207547327800772,0.0,0,False
2022-02-27,0.9207547327800772,0.9207547327800772,0.0,0,False
2022-02-28,0.9207547327800772,0.9218176470313957,0.11543945564191915,1,True
2022-03-01,0.9218176470313957,0.9231748035227181,0.14722613476678692,0,True
2022-03-02,0.9231748035227181,0.9231748035227181,0.0,0,False
2022-03-03,0.9231748035227181,0.9231748035227181,0.0,0,False
2022-03-04,0.9231748035227181,0.9218996773320285,-0.138124024380204,1,True
2022-03-05,0.9218996773320285,0.9218996773320285,0.0,0,False
2022-03-06,0.9218996773320285,0.9188235876710409,-0.33366859069631216,3,True
2022-03-07,0.9188235876710409,0.9178746515922936,-0.10327728755337162,0,True
2022-03-08,0.9178746515922936,0.9183456529409703,0.051314343179598154,1,True
2022-03-09,0.9183456529409703,0.9224325003794877,0.445022789124061,1,True
2022-03-10,0.9224325003794877,0.9214302010046206,-0.10865828930081145,3,True
2022-03-11,0.9214302010046206,0.9198877357008693,-0.1673990392402458,0,True
2022-03-12,0.9198877357008693,0.9198877357008693,0.0,0,False
2022-03-13,0.9198877357008693,0.9198877357008693,0.0,0,False
2022-03-14,0.9198877357008693,0.9180581820890715,-0.19888879270728577,1,True
2022-03-15,0.9180581820890715,0.9184385555670495,0.041432393436369175,1,True
2022-03-16,0.9184385555670495,0.9196124173472779,0.12781059474400447,1,True
2022-03-17,0.9196124173472779,0.9176469023044735,-0.21373298203977154,1,True
2022-03-18,0.9176469023044735,0.9173012532358416,-0.037666892108934036,0,True
2022-03-19,0.9173012532358416,0.9173012532358416,0.0,0,False
2022-03-20,0.9173012532358416,0.9154638715336402,-0.20030297524612495,1,True
2022-03-21,0.9154638715336402,0.9143144260078747,-0.1255588081089276,3,True
2022-03-22,0.9143144260078747,0.9143144260078747,0.0,0,False
2022-03-23,0.9143144260078747,0.9143144260078747,0.0,0,False
2022-03-24,0.9143144260078747,0.9143144260078747,0.0,0,False
2022-03-25,0.9143144260078747,0.9143144260078747,0.0,0,False
2022-03-26,0.9143144260078747,0.9143144260078747,0.0,0,False
2022-03-27,0.9143144260078747,0.9143144260078747,0.0,0,False
2022-03-28,0.9143144260078747,0.9143144260078747,0.0,0,False
2022-03-29,0.9143144260078747,0.9143144260078747,0.0,0,False
2022-03-30,0.9143144260078747,0.9130449038698883,-0.13884962348559293,4,True
2022-03-31,0.9130449038698883,0.9141368730824201,0.11959644130354885,5,True
2022-04-01,0.9141368730824201,0.9059993712033972,-0.8901841856114645,0,True
2022-04-02,0.9059993712033972,0.9059993712033972,0.0,0,False
2022-04-03,0.9059993712033972,0.9042420675226674,-0.19396301328505894,1,True
2022-04-04,0.9042420675226674,0.9042420675226674,0.0,0,False
2022-04-05,0.9042420675226674,0.904470389091054,0.025250049360359128,3,True
2022-04-06,0.904470389091054,0.8961639277562337,-0.9183784715349197,9,True
2022-04-07,0.8961639277562337,0.8976959699415578,0.17095557384907423,1,True
2022-04-08,0.8976959699415578,0.8996661204424403,0.21946745522438693,0,True
2022-04-09,0.8996661204424403,0.8996661204424403,0.0,0,False
2022-04-10,0.8996661204424403,0.8996661204424403,0.0,0,False
2022-04-11,0.8996661204424403,0.8955860525277503,-0.4535091209929676,6,True
2022-04-12,0.8955860525277503,0.8919906272667149,-0.40146061351530316,0,True
2022-04-13,0.8919906272667149,0.8919906272667149,0.0,0,False
2022-04-14,0.8919906272667149,0.8919906272667149,0.0,0,False
2022-04-15,0.8919906272667149,0.8919906272667149,0.0,0,False
2022-04-16,0.8919906272667149,0.8919906272667149,0.0,0,False
2022-04-17,0.8919906272667149,0.8922284715111688,0.026664433143519517,1,True
2022-04-18,0.8922284715111688,0.8903155631717458,-0.21439669328005007,1,True
2022-04-19,0.8903155631717458,0.8903155631717458,0.0,0,False
2022-04-20,0.8903155631717458,0.8903155631717458,0.0,0,False
2022-04-21,0.8903155631717458,0.8903155631717458,0.0,0,False
2022-04-22,0.8903155631717458,0.8903155631717458,0.0,0,False
2022-04-23,0.8903155631717458,0.8903155631717458,0.0,0,False
2022-04-24,0.8903155631717458,0.8903155631717458,0.0,0,False
2022-04-25,0.8903155631717458,0.8903155631717458,0.0,0,False
2022-04-26,0.8903155631717458,0.8903155631717458,0.0,0,False
2022-04-27,0.8903155631717458,0.8903155631717458,0.0,0,False
2022-04-28,0.8903155631717458,0.8903155631717458,0.0,0,False
2022-04-29,0.8903155631717458,0.8903155631717458,0.0,0,False
2022-04-30,0.8903155631717458,0.8903155631717458,0.0,0,False
2022-05-01,0.8903155631717458,0.8903155631717458,0.0,0,False
2022-05-02,0.8903155631717458,0.8903155631717458,0.0,0,False
2022-05-03,0.8903155631717458,0.8903155631717458,0.0,0,False
2022-05-04,0.8903155631717458,0.8903155631717458,0.0,0,False
2022-05-05,0.8903155631717458,0.8903155631717458,0.0,0,False
2022-05-06,0.8903155631717458,0.8903155631717458,0.0,0,False
2022-05-07,0.8903155631717458,0.8903155631717458,0.0,0,False
2022-05-08,0.8903155631717458,0.8903155631717458,0.0,0,False
2022-05-09,0.8903155631717458,0.8903155631717458,0.0,0,False
2022-05-10,0.8903155631717458,0.8903155631717458,0.0,0,False
2022-05-11,0.8903155631717458,0.8903155631717458,0.0,0,False
2022-05-12,0.8903155631717458,0.8903155631717458,0.0,0,False
2022-05-13,0.8903155631717458,0.8903155631717458,0.0,0,False
2022-05-14,0.8903155631717458,0.8903155631717458,0.0,0,False
2022-05-15,0.8903155631717458,0.8903155631717458,0.0,0,False
2022-05-16,0.8903155631717458,0.8903155631717458,0.0,0,False
2022-05-17,0.8903155631717458,0.8903155631717458,0.0,0,False
2022-05-18,0.8903155631717458,0.8903155631717458,0.0,0,False
2022-05-19,0.8903155631717458,0.8903155631717458,0.0,0,False
2022-05-20,0.8903155631717458,0.8903155631717458,0.0,0,False
2022-05-21,0.8903155631717458,0.8903155631717458,0.0,0,False
2022-05-22,0.8903155631717458,0.8903155631717458,0.0,0,False
2022-05-23,0.8903155631717458,0.8903155631717458,0.0,0,False
2022-05-24,0.8903155631717458,0.8903155631717458,0.0,0,False
2022-05-25,0.8903155631717458,0.8903155631717458,0.0,0,False
2022-05-26,0.8903155631717458,0.8903155631717458,0.0,0,False
2022-05-27,0.8903155631717458,0.8903155631717458,0.0,0,False
2022-05-28,0.8903155631717458,0.8903155631717458,0.0,0,False
2022-05-29,0.8903155631717458,0.8903155631717458,0.0,0,False
2022-05-30,0.8903155631717458,0.8903155631717458,0.0,0,False
2022-05-31,0.8903155631717458,0.8903155631717458,0.0,0,False
2022-06-01,0.8903155631717458,0.8903155631717458,0.0,0,False
2022-06-02,0.8903155631717458,0.8903155631717458,0.0,0,False
2022-06-03,0.8903155631717458,0.8903155631717458,0.0,0,False
2022-06-04,0.8903155631717458,0.8903155631717458,0.0,0,False
2022-06-05,0.8903155631717458,0.8903155631717458,0.0,0,False
2022-06-06,0.8903155631717458,0.8903155631717458,0.0,0,False
2022-06-07,0.8903155631717458,0.8903155631717458,0.0,0,False
2022-06-08,0.8903155631717458,0.8903155631717458,0.0,0,False
2022-06-09,0.8903155631717458,0.8903155631717458,0.0,0,False
2022-06-10,0.8903155631717458,0.8903155631717458,0.0,0,False
2022-06-11,0.8903155631717458,0.8903155631717458,0.0,0,False
2022-06-12,0.8903155631717458,0.8903155631717458,0.0,0,False
2022-06-13,0.8903155631717458,0.8903155631717458,0.0,0,False
2022-06-14,0.8903155631717458,0.8903155631717458,0.0,0,False
2022-06-15,0.8903155631717458,0.8903155631717458,0.0,0,False
2022-06-16,0.8903155631717458,0.8903155631717458,0.0,0,False
2022-06-17,0.8903155631717458,0.8903155631717458,0.0,0,False
2022-06-18,0.8903155631717458,0.8903155631717458,0.0,0,False
2022-06-19,0.8903155631717458,0.8903155631717458,0.0,0,False
2022-06-20,0.8903155631717458,0.8903155631717458,0.0,0,False
2022-06-21,0.8903155631717458,0.8903155631717458,0.0,0,False
2022-06-22,0.8903155631717458,0.8903155631717458,0.0,0,False
2022-06-23,0.8903155631717458,0.8903155631717458,0.0,0,False
2022-06-24,0.8903155631717458,0.8903155631717458,0.0,0,False
2022-06-25,0.8903155631717458,0.8903155631717458,0.0,0,False
2022-06-26,0.8903155631717458,0.8903155631717458,0.0,0,False
2022-06-27,0.8903155631717458,0.8903155631717458,0.0,0,False
2022-06-28,0.8903155631717458,0.8903155631717458,0.0,0,False
2022-06-29,0.8903155631717458,0.8903155631717458,0.0,0,False
2022-06-30,0.8903155631717458,0.8903155631717458,0.0,0,False
2022-07-01,0.8903155631717458,0.8903155631717458,0.0,0,False
2022-07-02,0.8903155631717458,0.8903155631717458,0.0,0,False
2022-07-03,0.8903155631717458,0.8903155631717458,0.0,0,False
2022-07-04,0.8903155631717458,0.8903155631717458,0.0,0,False
2022-07-05,0.8903155631717458,0.8903155631717458,0.0,0,False
2022-07-06,0.8903155631717458,0.8903155631717458,0.0,0,False
2022-07-07,0.8903155631717458,0.8903155631717458,0.0,0,False
2022-07-08,0.8903155631717458,0.8903155631717458,0.0,0,False
2022-07-09,0.8903155631717458,0.8903155631717458,0.0,0,False
2022-07-10,0.8903155631717458,0.8903155631717458,0.0,0,False
2022-07-11,0.8903155631717458,0.8903155631717458,0.0,0,False
2022-07-12,0.8903155631717458,0.8903155631717458,0.0,0,False
2022-07-13,0.8903155631717458,0.8903155631717458,0.0,0,False
2022-07-14,0.8903155631717458,0.8903155631717458,0.0,0,False
2022-07-15,0.8903155631717458,0.8903155631717458,0.0,0,False
2022-07-16,0.8903155631717458,0.8903155631717458,0.0,0,False
2022-07-17,0.8903155631717458,0.8903155631717458,0.0,0,False
2022-07-18,0.8903155631717458,0.8903155631717458,0.0,0,False
2022-07-19,0.8903155631717458,0.8903155631717458,0.0,0,False
2022-07-20,0.8903155631717458,0.8903155631717458,0.0,0,False
2022-07-21,0.8903155631717458,0.8903155631717458,0.0,0,False
2022-07-22,0.8903155631717458,0.8903155631717458,0.0,0,False
2022-07-23,0.8903155631717458,0.8903155631717458,0.0,0,False
2022-07-24,0.8903155631717458,0.8903155631717458,0.0,0,False
2022-07-25,0.8903155631717458,0.8903155631717458,0.0,0,False
2022-07-26,0.8903155631717458,0.8903155631717458,0.0,0,False
2022-07-27,0.8903155631717458,0.8903155631717458,0.0,0,False
2022-07-28,0.8903155631717458,0.8903155631717458,0.0,0,False
2022-07-29,0.8903155631717458,0.8903155631717458,0.0,0,False
2022-07-30,0.8903155631717458,0.8903155631717458,0.0,0,False
2022-07-31,0.8903155631717458,0.8903155631717458,0.0,0,False
2022-08-01,0.8903155631717458,0.8903155631717458,0.0,0,False
2022-08-02,0.8903155631717458,0.8903155631717458,0.0,0,False
2022-08-03,0.8903155631717458,0.8903155631717458,0.0,0,False
2022-08-04,0.8903155631717458,0.8903155631717458,0.0,0,False
2022-08-05,0.8903155631717458,0.8903155631717458,0.0,0,False
2022-08-06,0.8903155631717458,0.8903155631717458,0.0,0,False
2022-08-07,0.8903155631717458,0.8903155631717458,0.0,0,False
2022-08-08,0.8903155631717458,0.8903155631717458,0.0,0,False
2022-08-09,0.8903155631717458,0.8903155631717458,0.0,0,False
2022-08-10,0.8903155631717458,0.8903155631717458,0.0,0,False
2022-08-11,0.8903155631717458,0.8903155631717458,0.0,0,False
2022-08-12,0.8903155631717458,0.8903155631717458,0.0,0,False
2022-08-13,0.8903155631717458,0.8903155631717458,0.0,0,False
2022-08-14,0.8903155631717458,0.8903155631717458,0.0,0,False
2022-08-15,0.8903155631717458,0.8903155631717458,0.0,0,False
2022-08-16,0.8903155631717458,0.8903155631717458,0.0,0,False
2022-08-17,0.8903155631717458,0.8903155631717458,0.0,0,False
2022-08-18,0.8903155631717458,0.8903155631717458,0.0,0,False
2022-08-19,0.8903155631717458,0.8903155631717458,0.0,0,False
2022-08-20,0.8903155631717458,0.8903155631717458,0.0,0,False
2022-08-21,0.8903155631717458,0.8903155631717458,0.0,0,False
2022-08-22,0.8903155631717458,0.8903155631717458,0.0,0,False
2022-08-23,0.8903155631717458,0.8903155631717458,0.0,0,False
2022-08-24,0.8903155631717458,0.8903155631717458,0.0,0,False
2022-08-25,0.8903155631717458,0.8903155631717458,0.0,0,False
2022-08-26,0.8903155631717458,0.8903155631717458,0.0,0,False
2022-08-27,0.8903155631717458,0.8903155631717458,0.0,0,False
2022-08-28,0.8903155631717458,0.8903155631717458,0.0,0,False
2022-08-29,0.8903155631717458,0.8903155631717458,0.0,0,False
2022-08-30,0.8903155631717458,0.8903155631717458,0.0,0,False
2022-08-31,0.8903155631717458,0.8903155631717458,0.0,0,False
2022-09-01,0.8903155631717458,0.8903155631717458,0.0,0,False
2022-09-02,0.8903155631717458,0.8903155631717458,0.0,0,False
2022-09-03,0.8903155631717458,0.8903155631717458,0.0,0,False
2022-09-04,0.8903155631717458,0.8903155631717458,0.0,0,False
2022-09-05,0.8903155631717458,0.8903155631717458,0.0,0,False
2022-09-06,0.8903155631717458,0.8903155631717458,0.0,0,False
2022-09-07,0.8903155631717458,0.8903155631717458,0.0,0,False
2022-09-08,0.8903155631717458,0.8903155631717458,0.0,0,False
2022-09-09,0.8903155631717458,0.8903155631717458,0.0,0,False
2022-09-10,0.8903155631717458,0.8903155631717458,0.0,0,False
2022-09-11,0.8903155631717458,0.8903155631717458,0.0,0,False
2022-09-12,0.8903155631717458,0.8903155631717458,0.0,0,False
2022-09-13,0.8903155631717458,0.8903155631717458,0.0,0,False
2022-09-14,0.8903155631717458,0.8903155631717458,0.0,0,False
2022-09-15,0.8903155631717458,0.8903155631717458,0.0,0,False
2022-09-16,0.8903155631717458,0.8903155631717458,0.0,0,False
2022-09-17,0.8903155631717458,0.8903155631717458,0.0,0,False
2022-09-18,0.8903155631717458,0.8903155631717458,0.0,0,False
2022-09-19,0.8903155631717458,0.8903155631717458,0.0,0,False
2022-09-20,0.8903155631717458,0.8903155631717458,0.0,0,False
2022-09-21,0.8903155631717458,0.8903155631717458,0.0,0,False
2022-09-22,0.8903155631717458,0.8903155631717458,0.0,0,False
2022-09-23,0.8903155631717458,0.8903155631717458,0.0,0,False
2022-09-24,0.8903155631717458,0.8903155631717458,0.0,0,False
2022-09-25,0.8903155631717458,0.8903155631717458,0.0,0,False
2022-09-26,0.8903155631717458,0.8903155631717458,0.0,0,False
2022-09-27,0.8903155631717458,0.8903155631717458,0.0,0,False
2022-09-28,0.8903155631717458,0.8903155631717458,0.0,0,False
2022-09-29,0.8903155631717458,0.8903155631717458,0.0,0,False
2022-09-30,0.8903155631717458,0.8903155631717458,0.0,0,False
2022-10-01,0.8903155631717458,0.8903155631717458,0.0,0,False
2022-10-02,0.8903155631717458,0.8903155631717458,0.0,0,False
2022-10-03,0.8903155631717458,0.8903155631717458,0.0,0,False
2022-10-04,0.8903155631717458,0.8903155631717458,0.0,0,False
2022-10-05,0.8903155631717458,0.8903155631717458,0.0,0,False
2022-10-06,0.8903155631717458,0.8903155631717458,0.0,0,False
2022-10-07,0.8903155631717458,0.8903155631717458,0.0,0,False
2022-10-08,0.8903155631717458,0.8903155631717458,0.0,0,False
2022-10-09,0.8903155631717458,0.8903155631717458,0.0,0,False
2022-10-10,0.8903155631717458,0.8903155631717458,0.0,0,False
2022-10-11,0.8903155631717458,0.8903155631717458,0.0,0,False
2022-10-12,0.8903155631717458,0.8903155631717458,0.0,0,False
2022-10-13,0.8903155631717458,0.8903155631717458,0.0,0,False
2022-10-14,0.8903155631717458,0.8903155631717458,0.0,0,False
2022-10-15,0.8903155631717458,0.8903155631717458,0.0,0,False
2022-10-16,0.8903155631717458,0.8903155631717458,0.0,0,False
2022-10-17,0.8903155631717458,0.8903155631717458,0.0,0,False
2022-10-18,0.8903155631717458,0.8903155631717458,0.0,0,False
2022-10-19,0.8903155631717458,0.8903155631717458,0.0,0,False
2022-10-20,0.8903155631717458,0.8903155631717458,0.0,0,False
2022-10-21,0.8903155631717458,0.8903155631717458,0.0,0,False
2022-10-22,0.8903155631717458,0.8903155631717458,0.0,0,False
2022-10-23,0.8903155631717458,0.8903155631717458,0.0,0,False
2022-10-24,0.8903155631717458,0.8903155631717458,0.0,0,False
2022-10-25,0.8903155631717458,0.8903155631717458,0.0,0,False
2022-10-26,0.8903155631717458,0.8903155631717458,0.0,0,False
2022-10-27,0.8903155631717458,0.8903155631717458,0.0,0,False
2022-10-28,0.8903155631717458,0.8903155631717458,0.0,0,False
2022-10-29,0.8903155631717458,0.8903155631717458,0.0,0,False
2022-10-30,0.8903155631717458,0.8903155631717458,0.0,0,False
2022-10-31,0.8903155631717458,0.8903155631717458,0.0,0,False
2022-11-01,0.8903155631717458,0.8903155631717458,0.0,0,False
2022-11-02,0.8903155631717458,0.8903155631717458,0.0,0,False
2022-11-03,0.8903155631717458,0.8903155631717458,0.0,0,False
2022-11-04,0.8903155631717458,0.8903155631717458,0.0,0,False
2022-11-05,0.8903155631717458,0.8903155631717458,0.0,0,False
2022-11-06,0.8903155631717458,0.8903155631717458,0.0,0,False
2022-11-07,0.8903155631717458,0.8903155631717458,0.0,0,False
2022-11-08,0.8903155631717458,0.8903155631717458,0.0,0,False
2022-11-09,0.8903155631717458,0.8903155631717458,0.0,0,False
2022-11-10,0.8903155631717458,0.8903155631717458,0.0,0,False
2022-11-11,0.8903155631717458,0.8903155631717458,0.0,0,False
2022-11-12,0.8903155631717458,0.8903155631717458,0.0,0,False
2022-11-13,0.8903155631717458,0.8903155631717458,0.0,0,False
2022-11-14,0.8903155631717458,0.8903155631717458,0.0,0,False
2022-11-15,0.8903155631717458,0.8903155631717458,0.0,0,False
2022-11-16,0.8903155631717458,0.8903155631717458,0.0,0,False
2022-11-17,0.8903155631717458,0.8903155631717458,0.0,0,False
2022-11-18,0.8903155631717458,0.8903155631717458,0.0,0,False
2022-11-19,0.8903155631717458,0.8903155631717458,0.0,0,False
2022-11-20,0.8903155631717458,0.8903155631717458,0.0,0,False
2022-11-21,0.8903155631717458,0.8903155631717458,0.0,0,False
2022-11-22,0.8903155631717458,0.8903155631717458,0.0,0,False
2022-11-23,0.8903155631717458,0.8903155631717458,0.0,0,False
2022-11-24,0.8903155631717458,0.8903155631717458,0.0,0,False
2022-11-25,0.8903155631717458,0.8903155631717458,0.0,0,False
2022-11-26,0.8903155631717458,0.8903155631717458,0.0,0,False
2022-11-27,0.8903155631717458,0.8903155631717458,0.0,0,False
2022-11-28,0.8903155631717458,0.8903155631717458,0.0,0,False
2022-11-29,0.8903155631717458,0.8903155631717458,0.0,0,False
2022-11-30,0.8903155631717458,0.8903155631717458,0.0,0,False
2022-12-01,0.8903155631717458,0.8903155631717458,0.0,0,False
2022-12-02,0.8903155631717458,0.8903155631717458,0.0,0,False
2022-12-03,0.8903155631717458,0.8903155631717458,0.0,0,False
2022-12-04,0.8903155631717458,0.8903155631717458,0.0,0,False
2022-12-05,0.8903155631717458,0.8903155631717458,0.0,0,False
2022-12-06,0.8903155631717458,0.8903155631717458,0.0,0,False
2022-12-07,0.8903155631717458,0.8903155631717458,0.0,0,False
2022-12-08,0.8903155631717458,0.8903155631717458,0.0,0,False
2022-12-09,0.8903155631717458,0.8903155631717458,0.0,0,False
2022-12-10,0.8903155631717458,0.8903155631717458,0.0,0,False
2022-12-11,0.8903155631717458,0.8903155631717458,0.0,0,False
2022-12-12,0.8903155631717458,0.8903155631717458,0.0,0,False
2022-12-13,0.8903155631717458,0.8903155631717458,0.0,0,False
2022-12-14,0.8903155631717458,0.8903155631717458,0.0,0,False
2022-12-15,0.8903155631717458,0.8903155631717458,0.0,0,False
2022-12-16,0.8903155631717458,0.8903155631717458,0.0,0,False
2022-12-17,0.8903155631717458,0.8903155631717458,0.0,0,False
2022-12-18,0.8903155631717458,0.8903155631717458,0.0,0,False
2022-12-19,0.8903155631717458,0.8903155631717458,0.0,0,False
2022-12-20,0.8903155631717458,0.8903155631717458,0.0,0,False
2022-12-21,0.8903155631717458,0.8903155631717458,0.0,0,False
2022-12-22,0.8903155631717458,0.8903155631717458,0.0,0,False
2022-12-23,0.8903155631717458,0.8903155631717458,0.0,0,False
2022-12-24,0.8903155631717458,0.8903155631717458,0.0,0,False
2022-12-25,0.8903155631717458,0.8903155631717458,0.0,0,False
2022-12-26,0.8903155631717458,0.8903155631717458,0.0,0,False
2022-12-27,0.8903155631717458,0.8903155631717458,0.0,0,False
2022-12-28,0.8903155631717458,0.8903155631717458,0.0,0,False
2022-12-29,0.8903155631717458,0.8903155631717458,0.0,0,False
2022-12-30,0.8903155631717458,0.8903155631717458,0.0,0,False
2022-12-31,0.8903155631717458,0.8903155631717458,0.0,0,False
2023-01-01,0.8903155631717458,0.8903155631717458,0.0,0,False
2023-01-02,0.8903155631717458,0.8903155631717458,0.0,0,False
2023-01-03,0.8903155631717458,0.8903155631717458,0.0,0,False
2023-01-04,0.8903155631717458,0.8903155631717458,0.0,0,False
2023-01-05,0.8903155631717458,0.8903155631717458,0.0,0,False
2023-01-06,0.8903155631717458,0.8903155631717458,0.0,0,False
2023-01-07,0.8903155631717458,0.8903155631717458,0.0,0,False
2023-01-08,0.8903155631717458,0.8903155631717458,0.0,0,False
2023-01-09,0.8903155631717458,0.8903155631717458,0.0,0,False
2023-01-10,0.8903155631717458,0.8903155631717458,0.0,0,False
2023-01-11,0.8903155631717458,0.8903155631717458,0.0,0,False
2023-01-12,0.8903155631717458,0.8903155631717458,0.0,0,False
2023-01-13,0.8903155631717458,0.8903155631717458,0.0,0,False
2023-01-14,0.8903155631717458,0.8903155631717458,0.0,0,False
2023-01-15,0.8903155631717458,0.8903155631717458,0.0,0,False
2023-01-16,0.8903155631717458,0.8903155631717458,0.0,0,False
2023-01-17,0.8903155631717458,0.8903155631717458,0.0,0,False
2023-01-18,0.8903155631717458,0.8903155631717458,0.0,0,False
2023-01-19,0.8903155631717458,0.8903155631717458,0.0,0,False
2023-01-20,0.8903155631717458,0.8903155631717458,0.0,0,False
2023-01-21,0.8903155631717458,0.8903155631717458,0.0,0,False
2023-01-22,0.8903155631717458,0.8903155631717458,0.0,0,False
2023-01-23,0.8903155631717458,0.8903155631717458,0.0,0,False
2023-01-24,0.8903155631717458,0.8903155631717458,0.0,0,False
2023-01-25,0.8903155631717458,0.8903155631717458,0.0,0,False
2023-01-26,0.8903155631717458,0.8903155631717458,0.0,0,False
2023-01-27,0.8903155631717458,0.8903155631717458,0.0,0,False
2023-01-28,0.8903155631717458,0.8903155631717458,0.0,0,False
2023-01-29,0.8903155631717458,0.8903155631717458,0.0,0,False
2023-01-30,0.8903155631717458,0.8903155631717458,0.0,0,False
2023-01-31,0.8903155631717458,0.8903155631717458,0.0,0,False
2023-02-01,0.8903155631717458,0.8903155631717458,0.0,0,False
2023-02-02,0.8903155631717458,0.8903155631717458,0.0,0,False
2023-02-03,0.8903155631717458,0.8903155631717458,0.0,0,False
2023-02-04,0.8903155631717458,0.8903155631717458,0.0,0,False
2023-02-05,0.8903155631717458,0.8903155631717458,0.0,0,False
2023-02-06,0.8903155631717458,0.8903155631717458,0.0,0,False
2023-02-07,0.8903155631717458,0.8903155631717458,0.0,0,False
2023-02-08,0.8903155631717458,0.8903155631717458,0.0,0,False
2023-02-09,0.8903155631717458,0.8903155631717458,0.0,0,False
2023-02-10,0.8903155631717458,0.8903155631717458,0.0,0,False
2023-02-11,0.8903155631717458,0.8903155631717458,0.0,0,False
2023-02-12,0.8903155631717458,0.8903155631717458,0.0,0,False
2023-02-13,0.8903155631717458,0.8903155631717458,0.0,0,False
2023-02-14,0.8903155631717458,0.8903155631717458,0.0,0,False
2023-02-15,0.8903155631717458,0.8903155631717458,0.0,0,False
2023-02-16,0.8903155631717458,0.8903155631717458,0.0,0,False
2023-02-17,0.8903155631717458,0.8903155631717458,0.0,0,False
2023-02-18,0.8903155631717458,0.8903155631717458,0.0,0,False
2023-02-19,0.8903155631717458,0.8903155631717458,0.0,0,False
2023-02-20,0.8903155631717458,0.8903155631717458,0.0,0,False
2023-02-21,0.8903155631717458,0.8903155631717458,0.0,0,False
2023-02-22,0.8903155631717458,0.8903155631717458,0.0,0,False
2023-02-23,0.8903155631717458,0.8903155631717458,0.0,0,False
2023-02-24,0.8903155631717458,0.8903155631717458,0.0,0,False
2023-02-25,0.8903155631717458,0.8903155631717458,0.0,0,False
2023-02-26,0.8903155631717458,0.8903155631717458,0.0,0,False
2023-02-27,0.8903155631717458,0.8903155631717458,0.0,0,False
2023-02-28,0.8903155631717458,0.8903155631717458,0.0,0,False
2023-03-01,0.8903155631717458,0.8903155631717458,0.0,0,False
2023-03-02,0.8903155631717458,0.8903155631717458,0.0,0,False
2023-03-03,0.8903155631717458,0.8903155631717458,0.0,0,False
2023-03-04,0.8903155631717458,0.8903155631717458,0.0,0,False
2023-03-05,0.8903155631717458,0.8903155631717458,0.0,0,False
2023-03-06,0.8903155631717458,0.8903155631717458,0.0,0,False
2023-03-07,0.8903155631717458,0.8903155631717458,0.0,0,False
2023-03-08,0.8903155631717458,0.8903155631717458,0.0,0,False
2023-03-09,0.8903155631717458,0.8903155631717458,0.0,0,False
2023-03-10,0.8903155631717458,0.8903155631717458,0.0,0,False
2023-03-11,0.8903155631717458,0.8903155631717458,0.0,0,False
2023-03-12,0.8903155631717458,0.8903155631717458,0.0,0,False
2023-03-13,0.8903155631717458,0.8903155631717458,0.0,0,False
2023-03-14,0.8903155631717458,0.8903155631717458,0.0,0,False
2023-03-15,0.8903155631717458,0.8903155631717458,0.0,0,False
2023-03-16,0.8903155631717458,0.8903155631717458,0.0,0,False
2023-03-17,0.8903155631717458,0.8903155631717458,0.0,0,False
2023-03-18,0.8903155631717458,0.8903155631717458,0.0,0,False
2023-03-19,0.8903155631717458,0.8903155631717458,0.0,0,False
2023-03-20,0.8903155631717458,0.8903155631717458,0.0,0,False
2023-03-21,0.8903155631717458,0.8903155631717458,0.0,0,False
2023-03-22,0.8903155631717458,0.8903155631717458,0.0,0,False
2023-03-23,0.8903155631717458,0.8903155631717458,0.0,0,False
2023-03-24,0.8903155631717458,0.8903155631717458,0.0,0,False
2023-03-25,0.8903155631717458,0.8903155631717458,0.0,0,False
2023-03-26,0.8903155631717458,0.8903155631717458,0.0,0,False
2023-03-27,0.8903155631717458,0.8903155631717458,0.0,0,False
2023-03-28,0.8903155631717458,0.8903155631717458,0.0,0,False
2023-03-29,0.8903155631717458,0.8903155631717458,0.0,0,False
2023-03-30,0.8903155631717458,0.8903155631717458,0.0,0,False
2023-03-31,0.8903155631717458,0.8903155631717458,0.0,0,False
2023-04-01,0.8903155631717458,0.8903155631717458,0.0,0,False
2023-04-02,0.8903155631717458,0.8903155631717458,0.0,0,False
2023-04-03,0.8903155631717458,0.8903155631717458,0.0,0,False
2023-04-04,0.8903155631717458,0.8903155631717458,0.0,0,False
2023-04-05,0.8903155631717458,0.8903155631717458,0.0,0,False
2023-04-06,0.8903155631717458,0.8903155631717458,0.0,0,False
2023-04-07,0.8903155631717458,0.8903155631717458,0.0,0,False
2023-04-08,0.8903155631717458,0.8903155631717458,0.0,0,False
2023-04-09,0.8903155631717458,0.8903155631717458,0.0,0,False
2023-04-10,0.8903155631717458,0.8903155631717458,0.0,0,False
2023-04-11,0.8903155631717458,0.8903155631717458,0.0,0,False
2023-04-12,0.8903155631717458,0.8903155631717458,0.0,0,False
2023-04-13,0.8903155631717458,0.8903155631717458,0.0,0,False
2023-04-14,0.8903155631717458,0.8903155631717458,0.0,0,False
2023-04-15,0.8903155631717458,0.8903155631717458,0.0,0,False
2023-04-16,0.8903155631717458,0.8903155631717458,0.0,0,False
2023-04-17,0.8903155631717458,0.8903155631717458,0.0,0,False
2023-04-18,0.8903155631717458,0.8903155631717458,0.0,0,False
2023-04-19,0.8903155631717458,0.8903155631717458,0.0,0,False
2023-04-20,0.8903155631717458,0.8903155631717458,0.0,0,False
2023-04-21,0.8903155631717458,0.8903155631717458,0.0,0,False
2023-04-22,0.8903155631717458,0.8903155631717458,0.0,0,False
2023-04-23,0.8903155631717458,0.8903155631717458,0.0,0,False
2023-04-24,0.8903155631717458,0.8903155631717458,0.0,0,False
2023-04-25,0.8903155631717458,0.8903155631717458,0.0,0,False
2023-04-26,0.8903155631717458,0.8903155631717458,0.0,0,False
2023-04-27,0.8903155631717458,0.8903155631717458,0.0,0,False
2023-04-28,0.8903155631717458,0.8903155631717458,0.0,0,False
2023-04-29,0.8903155631717458,0.8903155631717458,0.0,0,False
2023-04-30,0.8903155631717458,0.8903155631717458,0.0,0,False
2023-05-01,0.8903155631717458,0.8903155631717458,0.0,0,False
2023-05-02,0.8903155631717458,0.8903155631717458,0.0,0,False
2023-05-03,0.8903155631717458,0.8903155631717458,0.0,0,False
2023-05-04,0.8903155631717458,0.8903155631717458,0.0,0,False
2023-05-05,0.8903155631717458,0.8903155631717458,0.0,0,False
2023-05-06,0.8903155631717458,0.8903155631717458,0.0,0,False
2023-05-07,0.8903155631717458,0.8903155631717458,0.0,0,False
2023-05-08,0.8903155631717458,0.8903155631717458,0.0,0,False
2023-05-09,0.8903155631717458,0.8903155631717458,0.0,0,False
2023-05-10,0.8903155631717458,0.8903155631717458,0.0,0,False
2023-05-11,0.8903155631717458,0.8903155631717458,0.0,0,False
2023-05-12,0.8903155631717458,0.8903155631717458,0.0,0,False
2023-05-13,0.8903155631717458,0.8903155631717458,0.0,0,False
2023-05-14,0.8903155631717458,0.8903155631717458,0.0,0,False
2023-05-15,0.8903155631717458,0.8903155631717458,0.0,0,False
2023-05-16,0.8903155631717458,0.8903155631717458,0.0,0,False
2023-05-17,0.8903155631717458,0.8903155631717458,0.0,0,False
2023-05-18,0.8903155631717458,0.8903155631717458,0.0,0,False
2023-05-19,0.8903155631717458,0.8903155631717458,0.0,0,False
2023-05-20,0.8903155631717458,0.8903155631717458,0.0,0,False
2023-05-21,0.8903155631717458,0.8903155631717458,0.0,0,False
2023-05-22,0.8903155631717458,0.8903155631717458,0.0,0,False
2023-05-23,0.8903155631717458,0.8903155631717458,0.0,0,False
2023-05-24,0.8903155631717458,0.8903155631717458,0.0,0,False
2023-05-25,0.8903155631717458,0.8903155631717458,0.0,0,False
2023-05-26,0.8903155631717458,0.8903155631717458,0.0,0,False
2023-05-27,0.8903155631717458,0.8903155631717458,0.0,0,False
2023-05-28,0.8903155631717458,0.8903155631717458,0.0,0,False
2023-05-29,0.8903155631717458,0.8903155631717458,0.0,0,False
2023-05-30,0.8903155631717458,0.8903155631717458,0.0,0,False
2023-05-31,0.8903155631717458,0.8903155631717458,0.0,0,False
2023-06-01,0.8903155631717458,0.8903155631717458,0.0,0,False
2023-06-02,0.8903155631717458,0.8903155631717458,0.0,0,False
2023-06-03,0.8903155631717458,0.8903155631717458,0.0,0,False
2023-06-04,0.8903155631717458,0.8903155631717458,0.0,0,False
2023-06-05,0.8903155631717458,0.8903155631717458,0.0,0,False
2023-06-06,0.8903155631717458,0.8903155631717458,0.0,0,False
2023-06-07,0.8903155631717458,0.8903155631717458,0.0,0,False
2023-06-08,0.8903155631717458,0.8903155631717458,0.0,0,False
2023-06-09,0.8903155631717458,0.8903155631717458,0.0,0,False
2023-06-10,0.8903155631717458,0.8903155631717458,0.0,0,False
2023-06-11,0.8903155631717458,0.8903155631717458,0.0,0,False
2023-06-12,0.8903155631717458,0.8903155631717458,0.0,0,False
2023-06-13,0.8903155631717458,0.8903155631717458,0.0,0,False
2023-06-14,0.8903155631717458,0.8903155631717458,0.0,0,False
2023-06-15,0.8903155631717458,0.8903155631717458,0.0,0,False
2023-06-16,0.8903155631717458,0.8903155631717458,0.0,0,False
2023-06-17,0.8903155631717458,0.8903155631717458,0.0,0,False
2023-06-18,0.8903155631717458,0.8903155631717458,0.0,0,False
2023-06-19,0.8903155631717458,0.8903155631717458,0.0,0,False
2023-06-20,0.8903155631717458,0.8903155631717458,0.0,0,False
2023-06-21,0.8903155631717458,0.8903155631717458,0.0,0,False
2023-06-22,0.8903155631717458,0.8903155631717458,0.0,0,False
2023-06-23,0.8903155631717458,0.8903155631717458,0.0,0,False
2023-06-24,0.8903155631717458,0.8903155631717458,0.0,0,False
2023-06-25,0.8903155631717458,0.8903155631717458,0.0,0,False
2023-06-26,0.8903155631717458,0.8903155631717458,0.0,0,False
2023-06-27,0.8903155631717458,0.8903155631717458,0.0,0,False
2023-06-28,0.8903155631717458,0.8903155631717458,0.0,0,False
2023-06-29,0.8903155631717458,0.8903155631717458,0.0,0,False
2023-06-30,0.8903155631717458,0.8903155631717458,0.0,0,False
2023-07-01,0.8903155631717458,0.8903155631717458,0.0,0,False
2023-07-02,0.8903155631717458,0.8903155631717458,0.0,0,False
2023-07-03,0.8903155631717458,0.8903155631717458,0.0,0,False
2023-07-04,0.8903155631717458,0.8903155631717458,0.0,0,False
2023-07-05,0.8903155631717458,0.8903155631717458,0.0,0,False
2023-07-06,0.8903155631717458,0.8903155631717458,0.0,0,False
2023-07-07,0.8903155631717458,0.8903155631717458,0.0,0,False
2023-07-08,0.8903155631717458,0.8903155631717458,0.0,0,False
2023-07-09,0.8903155631717458,0.8903155631717458,0.0,0,False
2023-07-10,0.8903155631717458,0.8903155631717458,0.0,0,False
2023-07-11,0.8903155631717458,0.8903155631717458,0.0,0,False
2023-07-12,0.8903155631717458,0.8903155631717458,0.0,0,False
2023-07-13,0.8903155631717458,0.8903155631717458,0.0,0,False
2023-07-14,0.8903155631717458,0.8903155631717458,0.0,0,False
2023-07-15,0.8903155631717458,0.8903155631717458,0.0,0,False
2023-07-16,0.8903155631717458,0.8903155631717458,0.0,0,False
2023-07-17,0.8903155631717458,0.8903155631717458,0.0,0,False
2023-07-18,0.8903155631717458,0.8903155631717458,0.0,0,False
2023-07-19,0.8903155631717458,0.8903155631717458,0.0,0,False
2023-07-20,0.8903155631717458,0.8903155631717458,0.0,0,False
2023-07-21,0.8903155631717458,0.8903155631717458,0.0,0,False
2023-07-22,0.8903155631717458,0.8903155631717458,0.0,0,False
2023-07-23,0.8903155631717458,0.8903155631717458,0.0,0,False
2023-07-24,0.8903155631717458,0.8903155631717458,0.0,0,False
2023-07-25,0.8903155631717458,0.8903155631717458,0.0,0,False
2023-07-26,0.8903155631717458,0.8903155631717458,0.0,0,False
2023-07-27,0.8903155631717458,0.8903155631717458,0.0,0,False
2023-07-28,0.8903155631717458,0.8903155631717458,0.0,0,False
2023-07-29,0.8903155631717458,0.8903155631717458,0.0,0,False
2023-07-30,0.8903155631717458,0.8903155631717458,0.0,0,False
2023-07-31,0.8903155631717458,0.8903155631717458,0.0,0,False
2023-08-01,0.8903155631717458,0.8903155631717458,0.0,0,False
2023-08-02,0.8903155631717458,0.8903155631717458,0.0,0,False
2023-08-03,0.8903155631717458,0.8903155631717458,0.0,0,False
2023-08-04,0.8903155631717458,0.8903155631717458,0.0,0,False
2023-08-05,0.8903155631717458,0.8903155631717458,0.0,0,False
2023-08-06,0.8903155631717458,0.8903155631717458,0.0,0,False
2023-08-07,0.8903155631717458,0.8903155631717458,0.0,0,False
2023-08-08,0.8903155631717458,0.8903155631717458,0.0,0,False
2023-08-09,0.8903155631717458,0.8903155631717458,0.0,0,False
2023-08-10,0.8903155631717458,0.8903155631717458,0.0,0,False
2023-08-11,0.8903155631717458,0.8903155631717458,0.0,0,False
2023-08-12,0.8903155631717458,0.8903155631717458,0.0,0,False
2023-08-13,0.8903155631717458,0.8903155631717458,0.0,0,False
2023-08-14,0.8903155631717458,0.8903155631717458,0.0,0,False
2023-08-15,0.8903155631717458,0.8903155631717458,0.0,0,False
2023-08-16,0.8903155631717458,0.8903155631717458,0.0,0,False
2023-08-17,0.8903155631717458,0.8903155631717458,0.0,0,False
2023-08-18,0.8903155631717458,0.8903155631717458,0.0,0,False
2023-08-19,0.8903155631717458,0.8903155631717458,0.0,0,False
2023-08-20,0.8903155631717458,0.8903155631717458,0.0,0,False
2023-08-21,0.8903155631717458,0.8903155631717458,0.0,0,False
2023-08-22,0.8903155631717458,0.8903155631717458,0.0,0,False
2023-08-23,0.8903155631717458,0.8903155631717458,0.0,0,False
2023-08-24,0.8903155631717458,0.8903155631717458,0.0,0,False
2023-08-25,0.8903155631717458,0.8903155631717458,0.0,0,False
2023-08-26,0.8903155631717458,0.8903155631717458,0.0,0,False
2023-08-27,0.8903155631717458,0.8903155631717458,0.0,0,False
2023-08-28,0.8903155631717458,0.8903155631717458,0.0,0,False
2023-08-29,0.8903155631717458,0.8903155631717458,0.0,0,False
2023-08-30,0.8903155631717458,0.8903155631717458,0.0,0,False
2023-08-31,0.8903155631717458,0.8903155631717458,0.0,0,False
2023-09-01,0.8903155631717458,0.8903155631717458,0.0,0,False
2023-09-02,0.8903155631717458,0.8903155631717458,0.0,0,False
2023-09-03,0.8903155631717458,0.8903155631717458,0.0,0,False
2023-09-04,0.8903155631717458,0.8903155631717458,0.0,0,False
2023-09-05,0.8903155631717458,0.8903155631717458,0.0,0,False
2023-09-06,0.8903155631717458,0.8903155631717458,0.0,0,False
2023-09-07,0.8903155631717458,0.8903155631717458,0.0,0,False
2023-09-08,0.8903155631717458,0.8903155631717458,0.0,0,False
2023-09-09,0.8903155631717458,0.8903155631717458,0.0,0,False
2023-09-10,0.8903155631717458,0.8903155631717458,0.0,0,False
2023-09-11,0.8903155631717458,0.8903155631717458,0.0,0,False
2023-09-12,0.8903155631717458,0.8903155631717458,0.0,0,False
2023-09-13,0.8903155631717458,0.8903155631717458,0.0,0,False
2023-09-14,0.8903155631717458,0.8903155631717458,0.0,0,False
2023-09-15,0.8903155631717458,0.8903155631717458,0.0,0,False
2023-09-16,0.8903155631717458,0.8903155631717458,0.0,0,False
2023-09-17,0.8903155631717458,0.8903155631717458,0.0,0,False
2023-09-18,0.8903155631717458,0.8903155631717458,0.0,0,False
2023-09-19,0.8903155631717458,0.8903155631717458,0.0,0,False
2023-09-20,0.8903155631717458,0.8903155631717458,0.0,0,False
2023-09-21,0.8903155631717458,0.8903155631717458,0.0,0,False
2023-09-22,0.8903155631717458,0.8903155631717458,0.0,0,False
2023-09-23,0.8903155631717458,0.8903155631717458,0.0,0,False
2023-09-24,0.8903155631717458,0.8903155631717458,0.0,0,False
2023-09-25,0.8903155631717458,0.8903155631717458,0.0,0,False
2023-09-26,0.8903155631717458,0.8903155631717458,0.0,0,False
2023-09-27,0.8903155631717458,0.8903155631717458,0.0,0,False
2023-09-28,0.8903155631717458,0.8903155631717458,0.0,0,False
2023-09-29,0.8903155631717458,0.8903155631717458,0.0,0,False
2023-09-30,0.8903155631717458,0.8903155631717458,0.0,0,False
2023-10-01,0.8903155631717458,0.8903155631717458,0.0,0,False
2023-10-02,0.8903155631717458,0.8903155631717458,0.0,0,False
2023-10-03,0.8903155631717458,0.8903155631717458,0.0,0,False
2023-10-04,0.8903155631717458,0.8903155631717458,0.0,0,False
2023-10-05,0.8903155631717458,0.8903155631717458,0.0,0,False
2023-10-06,0.8903155631717458,0.8903155631717458,0.0,0,False
2023-10-07,0.8903155631717458,0.8903155631717458,0.0,0,False
2023-10-08,0.8903155631717458,0.8903155631717458,0.0,0,False
2023-10-09,0.8903155631717458,0.8903155631717458,0.0,0,False
2023-10-10,0.8903155631717458,0.8903155631717458,0.0,0,False
2023-10-11,0.8903155631717458,0.8903155631717458,0.0,0,False
2023-10-12,0.8903155631717458,0.8903155631717458,0.0,0,False
2023-10-13,0.8903155631717458,0.8903155631717458,0.0,0,False
2023-10-14,0.8903155631717458,0.8903155631717458,0.0,0,False
2023-10-15,0.8903155631717458,0.8903155631717458,0.0,0,False
2023-10-16,0.8903155631717458,0.8903155631717458,0.0,0,False
2023-10-17,0.8903155631717458,0.8903155631717458,0.0,0,False
2023-10-18,0.8903155631717458,0.8903155631717458,0.0,0,False
2023-10-19,0.8903155631717458,0.8903155631717458,0.0,0,False
2023-10-20,0.8903155631717458,0.8903155631717458,0.0,0,False
2023-10-21,0.8903155631717458,0.8903155631717458,0.0,0,False
2023-10-22,0.8903155631717458,0.8903155631717458,0.0,0,False
2023-10-23,0.8903155631717458,0.8903155631717458,0.0,0,False
2023-10-24,0.8903155631717458,0.8903155631717458,0.0,0,False
2023-10-25,0.8903155631717458,0.8903155631717458,0.0,0,False
2023-10-26,0.8903155631717458,0.8903155631717458,0.0,0,False
2023-10-27,0.8903155631717458,0.8903155631717458,0.0,0,False
2023-10-28,0.8903155631717458,0.8903155631717458,0.0,0,False
2023-10-29,0.8903155631717458,0.8903155631717458,0.0,0,False
2023-10-30,0.8903155631717458,0.8903155631717458,0.0,0,False
2023-10-31,0.8903155631717458,0.8903155631717458,0.0,0,False
2023-11-01,0.8903155631717458,0.8903155631717458,0.0,0,False
2023-11-02,0.8903155631717458,0.8903155631717458,0.0,0,False
2023-11-03,0.8903155631717458,0.8903155631717458,0.0,0,False
2023-11-04,0.8903155631717458,0.8903155631717458,0.0,0,False
2023-11-05,0.8903155631717458,0.8903155631717458,0.0,0,False
2023-11-06,0.8903155631717458,0.8903155631717458,0.0,0,False
2023-11-07,0.8903155631717458,0.8903155631717458,0.0,0,False
2023-11-08,0.8903155631717458,0.8903155631717458,0.0,0,False
2023-11-09,0.8903155631717458,0.8903155631717458,0.0,0,False
2023-11-10,0.8903155631717458,0.8903155631717458,0.0,0,False
2023-11-11,0.8903155631717458,0.8903155631717458,0.0,0,False
2023-11-12,0.8903155631717458,0.8903155631717458,0.0,0,False
2023-11-13,0.8903155631717458,0.8903155631717458,0.0,0,False
2023-11-14,0.8903155631717458,0.8903155631717458,0.0,0,False
2023-11-15,0.8903155631717458,0.8903155631717458,0.0,0,False
2023-11-16,0.8903155631717458,0.8903155631717458,0.0,0,False
2023-11-17,0.8903155631717458,0.8903155631717458,0.0,0,False
2023-11-18,0.8903155631717458,0.8903155631717458,0.0,0,False
2023-11-19,0.8903155631717458,0.8903155631717458,0.0,0,False
2023-11-20,0.8903155631717458,0.8903155631717458,0.0,0,False
2023-11-21,0.8903155631717458,0.8903155631717458,0.0,0,False
2023-11-22,0.8903155631717458,0.8903155631717458,0.0,0,False
2023-11-23,0.8903155631717458,0.8903155631717458,0.0,0,False
2023-11-24,0.8903155631717458,0.8903155631717458,0.0,0,False
2023-11-25,0.8903155631717458,0.8903155631717458,0.0,0,False
2023-11-26,0.8903155631717458,0.8903155631717458,0.0,0,False
2023-11-27,0.8903155631717458,0.8903155631717458,0.0,0,False
2023-11-28,0.8903155631717458,0.8903155631717458,0.0,0,False
2023-11-29,0.8903155631717458,0.8903155631717458,0.0,0,False
2023-11-30,0.8903155631717458,0.8903155631717458,0.0,0,False
2023-12-01,0.8903155631717458,0.8903155631717458,0.0,0,False
2023-12-02,0.8903155631717458,0.8903155631717458,0.0,0,False
2023-12-03,0.8903155631717458,0.8903155631717458,0.0,0,False
2023-12-04,0.8903155631717458,0.8903155631717458,0.0,0,False
2023-12-05,0.8903155631717458,0.8903155631717458,0.0,0,False
2023-12-06,0.8903155631717458,0.8903155631717458,0.0,0,False
2023-12-07,0.8903155631717458,0.8903155631717458,0.0,0,False
2023-12-08,0.8903155631717458,0.8903155631717458,0.0,0,False
2023-12-09,0.8903155631717458,0.8903155631717458,0.0,0,False
2023-12-10,0.8903155631717458,0.8903155631717458,0.0,0,False
2023-12-11,0.8903155631717458,0.8903155631717458,0.0,0,False
2023-12-12,0.8903155631717458,0.8903155631717458,0.0,0,False
2023-12-13,0.8903155631717458,0.8903155631717458,0.0,0,False
2023-12-14,0.8903155631717458,0.8903155631717458,0.0,0,False
2023-12-15,0.8903155631717458,0.8903155631717458,0.0,0,False
2023-12-16,0.8903155631717458,0.8903155631717458,0.0,0,False
2023-12-17,0.8903155631717458,0.8903155631717458,0.0,0,False
2023-12-18,0.8903155631717458,0.8903155631717458,0.0,0,False
2023-12-19,0.8903155631717458,0.8903155631717458,0.0,0,False
2023-12-20,0.8903155631717458,0.8903155631717458,0.0,0,False
2023-12-21,0.8903155631717458,0.8903155631717458,0.0,0,False
2023-12-22,0.8903155631717458,0.8903155631717458,0.0,0,False
2023-12-23,0.8903155631717458,0.8903155631717458,0.0,0,False
2023-12-24,0.8903155631717458,0.8903155631717458,0.0,0,False
2023-12-25,0.8903155631717458,0.8903155631717458,0.0,0,False
2023-12-26,0.8903155631717458,0.8903155631717458,0.0,0,False
2023-12-27,0.8903155631717458,0.8903155631717458,0.0,0,False
2023-12-28,0.8903155631717458,0.8903155631717458,0.0,0,False
2023-12-29,0.8903155631717458,0.8903155631717458,0.0,0,False
2023-12-30,0.8903155631717458,0.8903155631717458,0.0,0,False
2023-12-31,0.8903155631717458,0.8903155631717458,0.0,0,False
