day,start_equity,end_equity,return_pct,entries,active
2024-01-02,1.0,0.9984427074127776,-0.15572925872223697,1,True
2024-01-03,0.9984427074127776,0.994347455881773,-0.41016389829883204,10,True
2024-01-04,0.994347455881773,1.0083621569498873,1.4094370117019306,6,True
2024-01-05,1.0083621569498873,0.9971763255682595,-1.1093069394296662,4,True
2024-01-06,0.9971763255682595,0.990405799136176,-0.6789698329656257,7,True
2024-01-07,0.990405799136176,0.9816309711188014,-0.8859831015759378,3,True
2024-01-08,0.9816309711188014,0.9606788049278365,-2.134423913610317,4,True
2024-01-09,0.9606788049278365,0.9606788049278365,0.0,0,False
2024-01-10,0.9606788049278365,0.9601655547774539,-0.053425780578264526,4,True
2024-01-11,0.9601655547774539,0.961021252317298,0.0891197914345554,3,True
2024-01-12,0.961021252317298,0.9530314847216133,-0.8313830288788182,7,True
2024-01-13,0.9530314847216133,0.9452171690498394,-0.8199430760733373,9,True
2024-01-14,0.9452171690498394,0.9515075573513059,0.6654966189187705,0,True
2024-01-15,0.9515075573513059,0.9467392229065222,-0.5011346896767854,2,True
2024-01-16,0.9467392229065222,0.9461919310300333,-0.0578080915258572,1,True
2024-01-17,0.9461919310300333,0.9489038507215592,0.28661412157402477,0,True
2024-01-18,0.9489038507215592,0.9465778079486482,-0.24512944816719173,1,True
2024-01-19,0.9465778079486482,0.9430741714155344,-0.3701371935505904,1,True
2024-01-20,0.9430741714155344,0.9657852715194922,2.4081987178027564,7,True
2024-01-21,0.9657852715194922,0.9648721326545533,-0.09454884971503708,1,True
2024-01-22,0.9648721326545533,0.9482007581917198,-1.727832517762462,4,True
2024-01-23,0.9482007581917198,0.9275541116306159,-2.17745518369743,9,True
2024-01-24,0.9275541116306159,0.9249658407873566,-0.2790425712963729,1,True
2024-01-25,0.9249658407873566,0.9198159589141839,-0.5567645469792604,2,True
2024-01-26,0.9198159589141839,0.9198159589141839,0.0,0,False
2024-01-27,0.9198159589141839,0.9198159589141839,0.0,0,False
2024-01-28,0.9198159589141839,0.9183240139334682,-0.1622003800061167,1,True
2024-01-29,0.9183240139334682,0.9183240139334682,0.0,0,False
2024-01-30,0.9183240139334682,0.9183240139334682,0.0,0,False
2024-01-31,0.9183240139334682,0.9141767419805267,-0.4516131441643867,1,True
2024-02-01,0.9141767419805267,0.9141767419805267,0.0,0,False
2024-02-02,0.9141767419805267,0.913893420148388,-0.03099201928117301,2,True
2024-02-03,0.913893420148388,0.918294111176331,0.4815321930240479,1,True
2024-02-04,0.918294111176331,0.9171085670422909,-0.12910287887193395,1,True
2024-02-05,0.9171085670422909,0.9171085670422909,0.0,0,False
2024-02-06,0.9171085670422909,0.9140001062496963,-0.3389414191843798,2,True
2024-02-07,0.9140001062496963,0.912458558770023,-0.16865944206488903,4,True
2024-02-08,0.912458558770023,0.9207348076534898,0.9070273717003641,1,True
2024-02-09,0.9207348076534898,0.9269362557861374,0.6735324961214539,0,True
2024-02-10,0.9269362557861374,0.9241485214216917,-0.3007471492288749,2,True
2024-02-11,0.9241485214216917,0.9235756387499926,-0.06199032497695711,0,True
2024-02-12,0.9235756387499926,0.923945209569021,0.040015219492861576,1,True
2024-02-13,0.923945209569021,0.923945209569021,0.0,0,False
2024-02-14,0.923945209569021,0.9246215560919397,0.07320201630074408,2,True
2024-02-15,0.9246215560919397,0.9314714436232748,0.7408314770734226,1,True
2024-02-16,0.9314714436232748,0.9300667910142942,-0.15079932064441248,3,True
2024-02-17,0.9300667910142942,0.928545712232923,-0.1635451126808185,5,True
2024-02-18,0.928545712232923,0.9319042695353282,0.3617008035424307,1,True
2024-02-19,0.9319042695353282,0.9319523772559941,0.005162302850036937,2,True
2024-02-20,0.9319523772559941,0.9305754217342851,-0.14774955838015025,10,True
2024-02-21,0.9305754217342851,0.9257510757442629,-0.518426113278514,7,True
2024-02-22,0.9257510757442629,0.9373578400245763,1.253767301429498,4,True
2024-02-23,0.9373578400245763,0.9347041742185696,-0.2831006145888937,3,True
2024-02-24,0.9347041742185696,0.9295862786853346,-0.54754174362317,8,True
2024-02-25,0.9295862786853346,0.921290999184544,-0.8923625155614512,4,True
2024-02-26,0.921290999184544,0.9173939682412612,-0.4229967455160466,5,True
2024-02-27,0.9173939682412612,0.9179603741826192,0.061740752715433445,3,True
2024-02-28,0.9179603741826192,0.9335864404514245,1.7022593467304281,5,True
2024-02-29,0.9335864404514245,0.9380867294096173,0.4820430935154496,8,True
2024-03-01,0.9380867294096173,0.9373895881340586,-0.07431522626883957,6,True
2024-03-02,0.9373895881340586,0.9359371323573962,-0.15494686468127128,5,True
2024-03-03,0.9359371323573962,0.9384129980712882,0.264533335444872,10,True
2024-03-04,0.9384129980712882,0.9408747751298602,0.262334075042836,1,True
2024-03-05,0.9408747751298602,0.9535113219269771,1.3430636181496869,12,True
2024-03-06,0.9535113219269771,0.9322511648938865,-2.229670119713456,9,True
2024-03-07,0.9322511648938865,0.9326088818073616,0.03837130238564246,3,True
2024-03-08,0.9326088818073616,0.9306426025561165,-0.21083642774605282,5,True
2024-03-09,0.9306426025561165,0.9245478545551978,-0.6548967330937572,5,True
2024-03-10,0.9245478545551978,0.9291133466162509,0.49380808560195444,9,True
2024-03-11,0.9291133466162509,0.9334710051420497,0.4690125851349647,3,True
2024-03-12,0.9334710051420497,0.9326749589370044,-0.08527808583880248,3,True
2024-03-13,0.9326749589370044,0.9387281686144316,0.6490159963473463,5,True
2024-03-14,0.9387281686144316,0.9389735882668833,0.026143846606196952,5,True
2024-03-15,0.9389735882668833,0.919808796815804,-2.041036264550622,16,True
2024-03-16,0.919808796815804,0.9187127920342005,-0.1191557186012604,3,True
2024-03-17,0.9187127920342005,0.9143227970491706,-0.47784193527007357,7,True
2024-03-18,0.9143227970491706,0.9153892521952804,0.11663880082084521,4,True
2024-03-19,0.9153892521952804,0.8954592080655822,-2.177220683103076,10,True
2024-03-20,0.8954592080655822,0.8892584295212146,-0.6924691251724235,4,True
2024-03-21,0.8892584295212146,0.8869195080849113,-0.26301931571934833,4,True
2024-03-22,0.8869195080849113,0.8857683084333667,-0.12979753416747508,9,True
2024-03-23,0.8857683084333667,0.887483676430609,0.19365876842851737,7,True
2024-03-24,0.887483676430609,0.8845100208516187,-0.33506594633381237,4,True
2024-03-25,0.8845100208516187,0.8884303582857775,0.4432213702208143,4,True
2024-03-26,0.8884303582857775,0.8980780678988259,1.0859275038353822,4,True
2024-03-27,0.8980780678988259,0.8959826693511037,-0.23332031174357892,6,True
2024-03-28,0.8959826693511037,0.8912929507340906,-0.5234162196920078,2,True
2024-03-29,0.8912929507340906,0.8888093633493994,-0.2786499525936681,6,True
2024-03-30,0.8888093633493994,0.8844296214703348,-0.49276504722677306,2,True
2024-03-31,0.8844296214703348,0.8844296214703348,0.0,0,False
2024-04-01,0.8844296214703348,0.8846532417831747,0.025284127466029815,5,True
2024-04-02,0.8846532417831747,0.882187186586733,-0.2787595274585719,6,True
2024-04-03,0.882187186586733,0.8784754081205921,-0.4207472657251077,3,True
2024-04-04,0.8784754081205921,0.8781412959782423,-0.0380331810385659,1,True
2024-04-05,0.8781412959782423,0.8739803933552267,-0.4738306514079138,5,True
2024-04-06,0.8739803933552267,0.8716779646600583,-0.26344168732771456,1,True
2024-04-07,0.8716779646600583,0.8773562588864603,0.6514211046526164,3,True
2024-04-08,0.8773562588864603,0.8742673465564008,-0.35207047294333327,1,True
2024-04-09,0.8742673465564008,0.8696559128252467,-0.527462651935684,3,True
2024-04-10,0.8696559128252467,0.8693210456583719,-0.03850570805491449,4,True
2024-04-11,0.8693210456583719,0.8702454916661622,0.10634115122454268,1,True
2024-04-12,0.8702454916661622,0.8641453229386672,-0.7009710232242283,9,True
2024-04-13,0.8641453229386672,0.8641453229386672,0.0,0,False
2024-04-14,0.8641453229386672,0.8641453229386672,0.0,0,False
2024-04-15,0.8641453229386672,0.8641453229386672,0.0,0,False
2024-04-16,0.8641453229386672,0.8641453229386672,0.0,0,False
2024-04-17,0.8641453229386672,0.8641453229386672,0.0,0,False
2024-04-18,0.8641453229386672,0.8641453229386672,0.0,0,False
2024-04-19,0.8641453229386672,0.8641453229386672,0.0,0,False
2024-04-20,0.8641453229386672,0.8641453229386672,0.0,0,False
2024-04-21,0.8641453229386672,0.8641453229386672,0.0,0,False
2024-04-22,0.8641453229386672,0.8641453229386672,0.0,0,False
2024-04-23,0.8641453229386672,0.8641453229386672,0.0,0,False
2024-04-24,0.8641453229386672,0.8641453229386672,0.0,0,False
2024-04-25,0.8641453229386672,0.8641453229386672,0.0,0,False
2024-04-26,0.8641453229386672,0.8641453229386672,0.0,0,False
2024-04-27,0.8641453229386672,0.8641453229386672,0.0,0,False
2024-04-28,0.8641453229386672,0.8641453229386672,0.0,0,False
2024-04-29,0.8641453229386672,0.8641453229386672,0.0,0,False
2024-04-30,0.8641453229386672,0.8641453229386672,0.0,0,False
2024-05-01,0.8641453229386672,0.8641453229386672,0.0,0,False
2024-05-02,0.8641453229386672,0.8641453229386672,0.0,0,False
2024-05-03,0.8641453229386672,0.8641453229386672,0.0,0,False
2024-05-04,0.8641453229386672,0.8641453229386672,0.0,0,False
2024-05-05,0.8641453229386672,0.8641453229386672,0.0,0,False
2024-05-06,0.8641453229386672,0.8641453229386672,0.0,0,False
2024-05-07,0.8641453229386672,0.8641453229386672,0.0,0,False
2024-05-08,0.8641453229386672,0.8641453229386672,0.0,0,False
2024-05-09,0.8641453229386672,0.8641453229386672,0.0,0,False
2024-05-10,0.8641453229386672,0.8641453229386672,0.0,0,False
2024-05-11,0.8641453229386672,0.8641453229386672,0.0,0,False
2024-05-12,0.8641453229386672,0.8641453229386672,0.0,0,False
2024-05-13,0.8641453229386672,0.8641453229386672,0.0,0,False
2024-05-14,0.8641453229386672,0.8641453229386672,0.0,0,False
2024-05-15,0.8641453229386672,0.8641453229386672,0.0,0,False
2024-05-16,0.8641453229386672,0.8641453229386672,0.0,0,False
2024-05-17,0.8641453229386672,0.8641453229386672,0.0,0,False
2024-05-18,0.8641453229386672,0.8641453229386672,0.0,0,False
2024-05-19,0.8641453229386672,0.8641453229386672,0.0,0,False
2024-05-20,0.8641453229386672,0.8641453229386672,0.0,0,False
2024-05-21,0.8641453229386672,0.8641453229386672,0.0,0,False
2024-05-22,0.8641453229386672,0.8641453229386672,0.0,0,False
2024-05-23,0.8641453229386672,0.8641453229386672,0.0,0,False
2024-05-24,0.8641453229386672,0.8641453229386672,0.0,0,False
2024-05-25,0.8641453229386672,0.8641453229386672,0.0,0,False
2024-05-26,0.8641453229386672,0.8641453229386672,0.0,0,False
2024-05-27,0.8641453229386672,0.8641453229386672,0.0,0,False
2024-05-28,0.8641453229386672,0.8641453229386672,0.0,0,False
2024-05-29,0.8641453229386672,0.8641453229386672,0.0,0,False
2024-05-30,0.8641453229386672,0.8641453229386672,0.0,0,False
2024-05-31,0.8641453229386672,0.8641453229386672,0.0,0,False
2024-06-01,0.8641453229386672,0.8641453229386672,0.0,0,False
2024-06-02,0.8641453229386672,0.8641453229386672,0.0,0,False
2024-06-03,0.8641453229386672,0.8641453229386672,0.0,0,False
2024-06-04,0.8641453229386672,0.8641453229386672,0.0,0,False
2024-06-05,0.8641453229386672,0.8641453229386672,0.0,0,False
2024-06-06,0.8641453229386672,0.8641453229386672,0.0,0,False
2024-06-07,0.8641453229386672,0.8641453229386672,0.0,0,False
2024-06-08,0.8641453229386672,0.8641453229386672,0.0,0,False
2024-06-09,0.8641453229386672,0.8641453229386672,0.0,0,False
2024-06-10,0.8641453229386672,0.8641453229386672,0.0,0,False
2024-06-11,0.8641453229386672,0.8641453229386672,0.0,0,False
2024-06-12,0.8641453229386672,0.8641453229386672,0.0,0,False
2024-06-13,0.8641453229386672,0.8641453229386672,0.0,0,False
2024-06-14,0.8641453229386672,0.8641453229386672,0.0,0,False
2024-06-15,0.8641453229386672,0.8641453229386672,0.0,0,False
2024-06-16,0.8641453229386672,0.8641453229386672,0.0,0,False
2024-06-17,0.8641453229386672,0.8641453229386672,0.0,0,False
2024-06-18,0.8641453229386672,0.8641453229386672,0.0,0,False
2024-06-19,0.8641453229386672,0.8641453229386672,0.0,0,False
2024-06-20,0.8641453229386672,0.8641453229386672,0.0,0,False
2024-06-21,0.8641453229386672,0.8641453229386672,0.0,0,False
2024-06-22,0.8641453229386672,0.8641453229386672,0.0,0,False
2024-06-23,0.8641453229386672,0.8641453229386672,0.0,0,False
2024-06-24,0.8641453229386672,0.8641453229386672,0.0,0,False
2024-06-25,0.8641453229386672,0.8641453229386672,0.0,0,False
2024-06-26,0.8641453229386672,0.8641453229386672,0.0,0,False
2024-06-27,0.8641453229386672,0.8641453229386672,0.0,0,False
2024-06-28,0.8641453229386672,0.8641453229386672,0.0,0,False
2024-06-29,0.8641453229386672,0.8641453229386672,0.0,0,False
2024-06-30,0.8641453229386672,0.8641453229386672,0.0,0,False
2024-07-01,0.8641453229386672,0.8641453229386672,0.0,0,False
2024-07-02,0.8641453229386672,0.8641453229386672,0.0,0,False
2024-07-03,0.8641453229386672,0.8641453229386672,0.0,0,False
2024-07-04,0.8641453229386672,0.8641453229386672,0.0,0,False
2024-07-05,0.8641453229386672,0.8641453229386672,0.0,0,False
2024-07-06,0.8641453229386672,0.8641453229386672,0.0,0,False
2024-07-07,0.8641453229386672,0.8641453229386672,0.0,0,False
2024-07-08,0.8641453229386672,0.8641453229386672,0.0,0,False
2024-07-09,0.8641453229386672,0.8641453229386672,0.0,0,False
2024-07-10,0.8641453229386672,0.8641453229386672,0.0,0,False
2024-07-11,0.8641453229386672,0.8641453229386672,0.0,0,False
2024-07-12,0.8641453229386672,0.8641453229386672,0.0,0,False
2024-07-13,0.8641453229386672,0.8641453229386672,0.0,0,False
2024-07-14,0.8641453229386672,0.8641453229386672,0.0,0,False
2024-07-15,0.8641453229386672,0.8641453229386672,0.0,0,False
2024-07-16,0.8641453229386672,0.8641453229386672,0.0,0,False
2024-07-17,0.8641453229386672,0.8641453229386672,0.0,0,False
2024-07-18,0.8641453229386672,0.8641453229386672,0.0,0,False
2024-07-19,0.8641453229386672,0.8641453229386672,0.0,0,False
2024-07-20,0.8641453229386672,0.8641453229386672,0.0,0,False
2024-07-21,0.8641453229386672,0.8641453229386672,0.0,0,False
2024-07-22,0.8641453229386672,0.8641453229386672,0.0,0,False
2024-07-23,0.8641453229386672,0.8641453229386672,0.0,0,False
2024-07-24,0.8641453229386672,0.8641453229386672,0.0,0,False
2024-07-25,0.8641453229386672,0.8641453229386672,0.0,0,False
2024-07-26,0.8641453229386672,0.8641453229386672,0.0,0,False
2024-07-27,0.8641453229386672,0.8641453229386672,0.0,0,False
2024-07-28,0.8641453229386672,0.8641453229386672,0.0,0,False
2024-07-29,0.8641453229386672,0.8641453229386672,0.0,0,False
2024-07-30,0.8641453229386672,0.8641453229386672,0.0,0,False
2024-07-31,0.8641453229386672,0.8641453229386672,0.0,0,False
2024-08-01,0.8641453229386672,0.8641453229386672,0.0,0,False
2024-08-02,0.8641453229386672,0.8641453229386672,0.0,0,False
2024-08-03,0.8641453229386672,0.8641453229386672,0.0,0,False
2024-08-04,0.8641453229386672,0.8641453229386672,0.0,0,False
2024-08-05,0.8641453229386672,0.8641453229386672,0.0,0,False
2024-08-06,0.8641453229386672,0.8641453229386672,0.0,0,False
2024-08-07,0.8641453229386672,0.8641453229386672,0.0,0,False
2024-08-08,0.8641453229386672,0.8641453229386672,0.0,0,False
2024-08-09,0.8641453229386672,0.8641453229386672,0.0,0,False
2024-08-10,0.8641453229386672,0.8641453229386672,0.0,0,False
2024-08-11,0.8641453229386672,0.8641453229386672,0.0,0,False
2024-08-12,0.8641453229386672,0.8641453229386672,0.0,0,False
2024-08-13,0.8641453229386672,0.8641453229386672,0.0,0,False
2024-08-14,0.8641453229386672,0.8641453229386672,0.0,0,False
2024-08-15,0.8641453229386672,0.8641453229386672,0.0,0,False
2024-08-16,0.8641453229386672,0.8641453229386672,0.0,0,False
2024-08-17,0.8641453229386672,0.8641453229386672,0.0,0,False
2024-08-18,0.8641453229386672,0.8641453229386672,0.0,0,False
2024-08-19,0.8641453229386672,0.8641453229386672,0.0,0,False
2024-08-20,0.8641453229386672,0.8641453229386672,0.0,0,False
2024-08-21,0.8641453229386672,0.8641453229386672,0.0,0,False
2024-08-22,0.8641453229386672,0.8641453229386672,0.0,0,False
2024-08-23,0.8641453229386672,0.8641453229386672,0.0,0,False
2024-08-24,0.8641453229386672,0.8641453229386672,0.0,0,False
2024-08-25,0.8641453229386672,0.8641453229386672,0.0,0,False
2024-08-26,0.8641453229386672,0.8641453229386672,0.0,0,False
2024-08-27,0.8641453229386672,0.8641453229386672,0.0,0,False
2024-08-28,0.8641453229386672,0.8641453229386672,0.0,0,False
2024-08-29,0.8641453229386672,0.8641453229386672,0.0,0,False
2024-08-30,0.8641453229386672,0.8641453229386672,0.0,0,False
2024-08-31,0.8641453229386672,0.8641453229386672,0.0,0,False
2024-09-01,0.8641453229386672,0.8641453229386672,0.0,0,False
2024-09-02,0.8641453229386672,0.8641453229386672,0.0,0,False
2024-09-03,0.8641453229386672,0.8641453229386672,0.0,0,False
2024-09-04,0.8641453229386672,0.8641453229386672,0.0,0,False
2024-09-05,0.8641453229386672,0.8641453229386672,0.0,0,False
2024-09-06,0.8641453229386672,0.8641453229386672,0.0,0,False
2024-09-07,0.8641453229386672,0.8641453229386672,0.0,0,False
2024-09-08,0.8641453229386672,0.8641453229386672,0.0,0,False
2024-09-09,0.8641453229386672,0.8641453229386672,0.0,0,False
2024-09-10,0.8641453229386672,0.8641453229386672,0.0,0,False
2024-09-11,0.8641453229386672,0.8641453229386672,0.0,0,False
2024-09-12,0.8641453229386672,0.8641453229386672,0.0,0,False
2024-09-13,0.8641453229386672,0.8641453229386672,0.0,0,False
2024-09-14,0.8641453229386672,0.8641453229386672,0.0,0,False
2024-09-15,0.8641453229386672,0.8641453229386672,0.0,0,False
2024-09-16,0.8641453229386672,0.8641453229386672,0.0,0,False
2024-09-17,0.8641453229386672,0.8641453229386672,0.0,0,False
2024-09-18,0.8641453229386672,0.8641453229386672,0.0,0,False
2024-09-19,0.8641453229386672,0.8641453229386672,0.0,0,False
2024-09-20,0.8641453229386672,0.8641453229386672,0.0,0,False
2024-09-21,0.8641453229386672,0.8641453229386672,0.0,0,False
2024-09-22,0.8641453229386672,0.8641453229386672,0.0,0,False
2024-09-23,0.8641453229386672,0.8641453229386672,0.0,0,False
2024-09-24,0.8641453229386672,0.8641453229386672,0.0,0,False
2024-09-25,0.8641453229386672,0.8641453229386672,0.0,0,False
2024-09-26,0.8641453229386672,0.8641453229386672,0.0,0,False
2024-09-27,0.8641453229386672,0.8641453229386672,0.0,0,False
2024-09-28,0.8641453229386672,0.8641453229386672,0.0,0,False
2024-09-29,0.8641453229386672,0.8641453229386672,0.0,0,False
2024-09-30,0.8641453229386672,0.8641453229386672,0.0,0,False
2024-10-01,0.8641453229386672,0.8641453229386672,0.0,0,False
2024-10-02,0.8641453229386672,0.8641453229386672,0.0,0,False
2024-10-03,0.8641453229386672,0.8641453229386672,0.0,0,False
2024-10-04,0.8641453229386672,0.8641453229386672,0.0,0,False
2024-10-05,0.8641453229386672,0.8641453229386672,0.0,0,False
2024-10-06,0.8641453229386672,0.8641453229386672,0.0,0,False
2024-10-07,0.8641453229386672,0.8641453229386672,0.0,0,False
2024-10-08,0.8641453229386672,0.8641453229386672,0.0,0,False
2024-10-09,0.8641453229386672,0.8641453229386672,0.0,0,False
2024-10-10,0.8641453229386672,0.8641453229386672,0.0,0,False
2024-10-11,0.8641453229386672,0.8641453229386672,0.0,0,False
2024-10-12,0.8641453229386672,0.8641453229386672,0.0,0,False
2024-10-13,0.8641453229386672,0.8641453229386672,0.0,0,False
2024-10-14,0.8641453229386672,0.8641453229386672,0.0,0,False
2024-10-15,0.8641453229386672,0.8641453229386672,0.0,0,False
2024-10-16,0.8641453229386672,0.8641453229386672,0.0,0,False
2024-10-17,0.8641453229386672,0.8641453229386672,0.0,0,False
2024-10-18,0.8641453229386672,0.8641453229386672,0.0,0,False
2024-10-19,0.8641453229386672,0.8641453229386672,0.0,0,False
2024-10-20,0.8641453229386672,0.8641453229386672,0.0,0,False
2024-10-21,0.8641453229386672,0.8641453229386672,0.0,0,False
2024-10-22,0.8641453229386672,0.8641453229386672,0.0,0,False
2024-10-23,0.8641453229386672,0.8641453229386672,0.0,0,False
2024-10-24,0.8641453229386672,0.8641453229386672,0.0,0,False
2024-10-25,0.8641453229386672,0.8641453229386672,0.0,0,False
2024-10-26,0.8641453229386672,0.8641453229386672,0.0,0,False
2024-10-27,0.8641453229386672,0.8641453229386672,0.0,0,False
2024-10-28,0.8641453229386672,0.8641453229386672,0.0,0,False
2024-10-29,0.8641453229386672,0.8641453229386672,0.0,0,False
2024-10-30,0.8641453229386672,0.8641453229386672,0.0,0,False
2024-10-31,0.8641453229386672,0.8641453229386672,0.0,0,False
2024-11-01,0.8641453229386672,0.8641453229386672,0.0,0,False
2024-11-02,0.8641453229386672,0.8641453229386672,0.0,0,False
2024-11-03,0.8641453229386672,0.8641453229386672,0.0,0,False
2024-11-04,0.8641453229386672,0.8641453229386672,0.0,0,False
2024-11-05,0.8641453229386672,0.8641453229386672,0.0,0,False
2024-11-06,0.8641453229386672,0.8641453229386672,0.0,0,False
2024-11-07,0.8641453229386672,0.8641453229386672,0.0,0,False
2024-11-08,0.8641453229386672,0.8641453229386672,0.0,0,False
2024-11-09,0.8641453229386672,0.8641453229386672,0.0,0,False
2024-11-10,0.8641453229386672,0.8641453229386672,0.0,0,False
2024-11-11,0.8641453229386672,0.8641453229386672,0.0,0,False
2024-11-12,0.8641453229386672,0.8641453229386672,0.0,0,False
2024-11-13,0.8641453229386672,0.8641453229386672,0.0,0,False
2024-11-14,0.8641453229386672,0.8641453229386672,0.0,0,False
2024-11-15,0.8641453229386672,0.8641453229386672,0.0,0,False
2024-11-16,0.8641453229386672,0.8641453229386672,0.0,0,False
2024-11-17,0.8641453229386672,0.8641453229386672,0.0,0,False
2024-11-18,0.8641453229386672,0.8641453229386672,0.0,0,False
2024-11-19,0.8641453229386672,0.8641453229386672,0.0,0,False
2024-11-20,0.8641453229386672,0.8641453229386672,0.0,0,False
2024-11-21,0.8641453229386672,0.8641453229386672,0.0,0,False
2024-11-22,0.8641453229386672,0.8641453229386672,0.0,0,False
2024-11-23,0.8641453229386672,0.8641453229386672,0.0,0,False
2024-11-24,0.8641453229386672,0.8641453229386672,0.0,0,False
2024-11-25,0.8641453229386672,0.8641453229386672,0.0,0,False
2024-11-26,0.8641453229386672,0.8641453229386672,0.0,0,False
2024-11-27,0.8641453229386672,0.8641453229386672,0.0,0,False
2024-11-28,0.8641453229386672,0.8641453229386672,0.0,0,False
2024-11-29,0.8641453229386672,0.8641453229386672,0.0,0,False
2024-11-30,0.8641453229386672,0.8641453229386672,0.0,0,False
2024-12-01,0.8641453229386672,0.8641453229386672,0.0,0,False
2024-12-02,0.8641453229386672,0.8641453229386672,0.0,0,False
2024-12-03,0.8641453229386672,0.8641453229386672,0.0,0,False
2024-12-04,0.8641453229386672,0.8641453229386672,0.0,0,False
2024-12-05,0.8641453229386672,0.8641453229386672,0.0,0,False
2024-12-06,0.8641453229386672,0.8641453229386672,0.0,0,False
2024-12-07,0.8641453229386672,0.8641453229386672,0.0,0,False
2024-12-08,0.8641453229386672,0.8641453229386672,0.0,0,False
2024-12-09,0.8641453229386672,0.8641453229386672,0.0,0,False
2024-12-10,0.8641453229386672,0.8641453229386672,0.0,0,False
2024-12-11,0.8641453229386672,0.8641453229386672,0.0,0,False
2024-12-12,0.8641453229386672,0.8641453229386672,0.0,0,False
2024-12-13,0.8641453229386672,0.8641453229386672,0.0,0,False
2024-12-14,0.8641453229386672,0.8641453229386672,0.0,0,False
2024-12-15,0.8641453229386672,0.8641453229386672,0.0,0,False
2024-12-16,0.8641453229386672,0.8641453229386672,0.0,0,False
2024-12-17,0.8641453229386672,0.8641453229386672,0.0,0,False
2024-12-18,0.8641453229386672,0.8641453229386672,0.0,0,False
2024-12-19,0.8641453229386672,0.8641453229386672,0.0,0,False
2024-12-20,0.8641453229386672,0.8641453229386672,0.0,0,False
2024-12-21,0.8641453229386672,0.8641453229386672,0.0,0,False
2024-12-22,0.8641453229386672,0.8641453229386672,0.0,0,False
2024-12-23,0.8641453229386672,0.8641453229386672,0.0,0,False
2024-12-24,0.8641453229386672,0.8641453229386672,0.0,0,False
2024-12-25,0.8641453229386672,0.8641453229386672,0.0,0,False
2024-12-26,0.8641453229386672,0.8641453229386672,0.0,0,False
2024-12-27,0.8641453229386672,0.8641453229386672,0.0,0,False
2024-12-28,0.8641453229386672,0.8641453229386672,0.0,0,False
2024-12-29,0.8641453229386672,0.8641453229386672,0.0,0,False
2024-12-30,0.8641453229386672,0.8641453229386672,0.0,0,False
2024-12-31,0.8641453229386672,0.8641453229386672,0.0,0,False
