day,start_equity,end_equity,return_pct,entries,active
2021-09-02,1.0,1.0,0.0,0,False
2021-09-03,1.0,1.0,0.0,0,False
2021-09-04,1.0,1.0,0.0,0,False
2021-09-05,1.0,1.0,0.0,0,False
2021-09-06,1.0,1.0,0.0,0,False
2021-09-07,1.0,1.0,0.0,0,False
2021-09-08,1.0,1.0,0.0,0,False
2021-09-09,1.0,1.0,0.0,0,False
2021-09-10,1.0,1.0,0.0,0,False
2021-09-11,1.0,1.0,0.0,0,False
2021-09-12,1.0,1.0,0.0,0,False
2021-09-13,1.0,1.0,0.0,0,False
2021-09-14,1.0,1.0,0.0,0,False
2021-09-15,1.0,1.0,0.0,0,False
2021-09-16,1.0,1.0,0.0,0,False
2021-09-17,1.0,1.0,0.0,0,False
2021-09-18,1.0,1.0,0.0,0,False
2021-09-19,1.0,1.0,0.0,0,False
2021-09-20,1.0,1.0,0.0,0,False
2021-09-21,1.0,1.0,0.0,0,False
2021-09-22,1.0,1.0,0.0,0,False
2021-09-23,1.0,1.0,0.0,0,False
2021-09-24,1.0,1.0,0.0,0,False
2021-09-25,1.0,1.0,0.0,0,False
2021-09-26,1.0,1.0,0.0,0,False
2021-09-27,1.0,1.0,0.0,0,False
2021-09-28,1.0,1.0,0.0,0,False
2021-09-29,1.0,1.0,0.0,0,False
2021-09-30,1.0,1.0,0.0,0,False
2021-10-01,1.0,1.0,0.0,0,False
2021-10-02,1.0,1.0,0.0,0,False
2021-10-03,1.0,1.0,0.0,0,False
2021-10-04,1.0,1.0,0.0,0,False
2021-10-05,1.0,1.0,0.0,0,False
2021-10-06,1.0,0.9950030470865769,-0.49969529134230584,1,True
2021-10-07,0.9950030470865769,0.9950030470865769,0.0,0,False
2021-10-08,0.9950030470865769,0.9950030470865769,0.0,0,False
2021-10-09,0.9950030470865769,0.9950030470865769,0.0,0,False
2021-10-10,0.9950030470865769,0.9950030470865769,0.0,0,False
2021-10-11,0.9950030470865769,0.9950030470865769,0.0,0,False
2021-10-12,0.9950030470865769,0.9950030470865769,0.0,0,False
2021-10-13,0.9950030470865769,1.000771297016294,0.57972183568753,1,True
2021-10-14,1.000771297016294,1.0050421818727526,0.4267593274499104,0,True
2021-10-15,1.0050421818727526,1.0050421818727526,0.0,0,False
2021-10-16,1.0050421818727526,1.0012874519487007,-0.3735892872730462,1,True
2021-10-17,1.0012874519487007,1.0015387450061592,0.025096994571294218,0,True
2021-10-18,1.0015387450061592,1.0015387450061592,0.0,0,False
2021-10-19,1.0015387450061592,1.0015387450061592,0.0,0,False
2021-10-20,1.0015387450061592,1.0015387450061592,0.0,0,False
2021-10-21,1.0015387450061592,1.0015387450061592,0.0,0,False
2021-10-22,1.0015387450061592,1.0015387450061592,0.0,0,False
2021-10-23,1.0015387450061592,1.0015387450061592,0.0,0,False
2021-10-24,1.0015387450061592,1.0015387450061592,0.0,0,False
2021-10-25,1.0015387450061592,1.006178471373074,0.463259797990756,1,True
2021-10-26,1.006178471373074,1.006178471373074,0.0,0,False
2021-10-27,1.006178471373074,1.021885200742249,1.561028169062384,4,True
2021-10-28,1.021885200742249,1.0188144679012967,-0.30049685020605565,0,True
2021-10-29,1.0188144679012967,1.0188144679012967,0.0,0,False
2021-10-30,1.0188144679012967,1.0176796738429166,-0.11138377929769128,1,True
2021-10-31,1.0176796738429166,1.0179730695564766,0.02882986868080195,0,True
2021-11-01,1.0179730695564766,1.0179730695564766,0.0,0,False
2021-11-02,1.0179730695564766,1.0179730695564766,0.0,0,False
2021-11-03,1.0179730695564766,1.0179730695564766,0.0,0,False
2021-11-04,1.0179730695564766,1.0179730695564766,0.0,0,False
2021-11-05,1.0179730695564766,1.0179730695564766,0.0,0,False
2021-11-06,1.0179730695564766,1.0179730695564766,0.0,0,False
2021-11-07,1.0179730695564766,1.0179730695564766,0.0,0,False
2021-11-08,1.0179730695564766,1.0179730695564766,0.0,0,False
2021-11-09,1.0179730695564766,1.0179730695564766,0.0,0,False
2021-11-10,1.0179730695564766,1.0179730695564766,0.0,0,False
2021-11-11,1.0179730695564766,1.0339475960174347,1.56924843482531,6,True
2021-11-12,1.0339475960174347,1.0339475960174347,0.0,0,False
2021-11-13,1.0339475960174347,1.0339475960174347,0.0,0,False
2021-11-14,1.0339475960174347,1.0339475960174347,0.0,0,False
2021-11-15,1.0339475960174347,1.0339475960174347,0.0,0,False
2021-11-16,1.0339475960174347,1.069613151295072,3.449454828756715,4,True
2021-11-17,1.069613151295072,1.0783861155286665,0.8201997351072521,0,True
2021-11-18,1.0783861155286665,1.0739843060029655,-0.4081849221086342,1,True
2021-11-19,1.0739843060029655,1.0729951065928887,-0.09210557403378505,0,True
2021-11-20,1.0729951065928887,1.0729951065928887,0.0,0,False
2021-11-21,1.0729951065928887,1.0729951065928887,0.0,0,False
2021-11-22,1.0729951065928887,1.0729951065928887,0.0,0,False
2021-11-23,1.0729951065928887,1.0729951065928887,0.0,0,False
2021-11-24,1.0729951065928887,1.0729951065928887,0.0,0,False
2021-11-25,1.0729951065928887,1.0729951065928887,0.0,0,False
2021-11-26,1.0729951065928887,1.0791660155305771,0.5751106318912402,5,True
2021-11-27,1.0791660155305771,1.0772555781139292,-0.17702905661911572,0,True
2021-11-28,1.0772555781139292,1.0718753135001098,-0.4994417966476705,1,True
2021-11-29,1.0718753135001098,1.0718753135001098,0.0,0,False
2021-11-30,1.0718753135001098,1.0718753135001098,0.0,0,False
2021-12-01,1.0718753135001098,1.0690577194242938,-0.26286584272711133,1,True
2021-12-02,1.0690577194242938,1.0701267143644266,0.0999941276050631,1,True
2021-12-03,1.0701267143644266,1.0668939177403522,-0.302094750152504,1,True
2021-12-04,1.0668939177403522,1.040386512348638,-2.4845399295045256,5,True
2021-12-05,1.040386512348638,1.040386512348638,0.0,0,False
2021-12-06,1.040386512348638,1.040386512348638,0.0,0,False
2021-12-07,1.040386512348638,1.040386512348638,0.0,0,False
2021-12-08,1.040386512348638,1.040386512348638,0.0,0,False
2021-12-09,1.040386512348638,1.040386512348638,0.0,0,False
2021-12-10,1.040386512348638,1.040386512348638,0.0,0,False
2021-12-11,1.040386512348638,1.040386512348638,0.0,0,False
2021-12-12,1.040386512348638,1.040386512348638,0.0,0,False
2021-12-13,1.040386512348638,1.040386512348638,0.0,0,False
2021-12-14,1.040386512348638,1.040386512348638,0.0,0,False
2021-12-15,1.040386512348638,1.040386512348638,0.0,0,False
2021-12-16,1.040386512348638,1.040386512348638,0.0,0,False
2021-12-17,1.040386512348638,1.039733017423496,-0.06281270637262804,1,True
2021-12-18,1.039733017423496,1.039733017423496,0.0,0,False
2021-12-19,1.039733017423496,1.039733017423496,0.0,0,False
2021-12-20,1.039733017423496,1.039733017423496,0.0,0,False
2021-12-21,1.039733017423496,1.039733017423496,0.0,0,False
2021-12-22,1.039733017423496,1.039733017423496,0.0,0,False
2021-12-23,1.039733017423496,1.039733017423496,0.0,0,False
2021-12-24,1.039733017423496,1.039733017423496,0.0,0,False
2021-12-25,1.039733017423496,1.039733017423496,0.0,0,False
2021-12-26,1.039733017423496,1.039733017423496,0.0,0,False
2021-12-27,1.039733017423496,1.039733017423496,0.0,0,False
2021-12-28,1.039733017423496,1.039733017423496,0.0,0,False
2021-12-29,1.039733017423496,1.039733017423496,0.0,0,False
2021-12-30,1.039733017423496,1.039733017423496,0.0,0,False
2021-12-31,1.039733017423496,1.039733017423496,0.0,0,False
2022-01-01,1.039733017423496,1.039733017423496,0.0,0,False
2022-01-02,1.039733017423496,1.039733017423496,0.0,0,False
2022-01-03,1.039733017423496,1.039733017423496,0.0,0,False
2022-01-04,1.039733017423496,1.039733017423496,0.0,0,False
2022-01-05,1.039733017423496,1.039733017423496,0.0,0,False
2022-01-06,1.039733017423496,1.0411298623321146,0.13434649907337892,1,True
2022-01-07,1.0411298623321146,1.0411298623321146,0.0,0,False
2022-01-08,1.0411298623321146,1.0411298623321146,0.0,0,False
2022-01-09,1.0411298623321146,1.0411298623321146,0.0,0,False
2022-01-10,1.0411298623321146,1.0411298623321146,0.0,0,False
2022-01-11,1.0411298623321146,1.0411298623321146,0.0,0,False
2022-01-12,1.0411298623321146,1.0411298623321146,0.0,0,False
2022-01-13,1.0411298623321146,1.0411298623321146,0.0,0,False
2022-01-14,1.0411298623321146,1.0411298623321146,0.0,0,False
2022-01-15,1.0411298623321146,1.0411298623321146,0.0,0,False
2022-01-16,1.0411298623321146,1.0411298623321146,0.0,0,False
2022-01-17,1.0411298623321146,1.0411298623321146,0.0,0,False
2022-01-18,1.0411298623321146,1.0411298623321146,0.0,0,False
2022-01-19,1.0411298623321146,1.0411298623321146,0.0,0,False
2022-01-20,1.0411298623321146,1.0411298623321146,0.0,0,False
2022-01-21,1.0411298623321146,1.0411298623321146,0.0,0,False
2022-01-22,1.0411298623321146,1.0411298623321146,0.0,0,False
2022-01-23,1.0411298623321146,1.0411298623321146,0.0,0,False
2022-01-24,1.0411298623321146,1.0411298623321146,0.0,0,False
2022-01-25,1.0411298623321146,1.0411298623321146,0.0,0,False
2022-01-26,1.0411298623321146,1.0411298623321146,0.0,0,False
2022-01-27,1.0411298623321146,1.0411298623321146,0.0,0,False
2022-01-28,1.0411298623321146,1.0411298623321146,0.0,0,False
2022-01-29,1.0411298623321146,1.0411298623321146,0.0,0,False
2022-01-30,1.0411298623321146,1.0411298623321146,0.0,0,False
2022-01-31,1.0411298623321146,1.0411298623321146,0.0,0,False
2022-02-01,1.0411298623321146,1.0411298623321146,0.0,0,False
2022-02-02,1.0411298623321146,1.0411298623321146,0.0,0,False
2022-02-03,1.0411298623321146,1.0411298623321146,0.0,0,False
2022-02-04,1.0411298623321146,1.0411298623321146,0.0,0,False
2022-02-05,1.0411298623321146,1.0411298623321146,0.0,0,False
2022-02-06,1.0411298623321146,1.0411298623321146,0.0,0,False
2022-02-07,1.0411298623321146,1.0411298623321146,0.0,0,False
2022-02-08,1.0411298623321146,1.0411298623321146,0.0,0,False
2022-02-09,1.0411298623321146,1.0411298623321146,0.0,0,False
2022-02-10,1.0411298623321146,1.0423223725043578,0.11454000268247277,2,True
2022-02-11,1.0423223725043578,1.032205082956147,-0.9706487949502796,0,True
2022-02-12,1.032205082956147,1.032205082956147,0.0,0,False
2022-02-13,1.032205082956147,1.032205082956147,0.0,0,False
2022-02-14,1.032205082956147,1.032205082956147,0.0,0,False
2022-02-15,1.032205082956147,1.032205082956147,0.0,0,False
2022-02-16,1.032205082956147,1.032205082956147,0.0,0,False
2022-02-17,1.032205082956147,1.032205082956147,0.0,0,False
2022-02-18,1.032205082956147,1.032205082956147,0.0,0,False
2022-02-19,1.032205082956147,1.032205082956147,0.0,0,False
2022-02-20,1.032205082956147,1.032205082956147,0.0,0,False
2022-02-21,1.032205082956147,1.032205082956147,0.0,0,False
2022-02-22,1.032205082956147,1.032205082956147,0.0,0,False
2022-02-23,1.032205082956147,1.032205082956147,0.0,0,False
2022-02-24,1.032205082956147,1.032205082956147,0.0,0,False
2022-02-25,1.032205082956147,1.032205082956147,0.0,0,False
2022-02-26,1.032205082956147,1.032205082956147,0.0,0,False
2022-02-27,1.032205082956147,1.032205082956147,0.0,0,False
2022-02-28,1.032205082956147,1.032205082956147,0.0,0,False
2022-03-01,1.032205082956147,1.032205082956147,0.0,0,False
2022-03-02,1.032205082956147,1.032205082956147,0.0,0,False
2022-03-03,1.032205082956147,1.032205082956147,0.0,0,False
2022-03-04,1.032205082956147,1.032205082956147,0.0,0,False
2022-03-05,1.032205082956147,1.032205082956147,0.0,0,False
2022-03-06,1.032205082956147,1.032205082956147,0.0,0,False
2022-03-07,1.032205082956147,1.032205082956147,0.0,0,False
2022-03-08,1.032205082956147,1.032205082956147,0.0,0,False
2022-03-09,1.032205082956147,1.032205082956147,0.0,0,False
2022-03-10,1.032205082956147,1.032205082956147,0.0,0,False
2022-03-11,1.032205082956147,1.032205082956147,0.0,0,False
2022-03-12,1.032205082956147,1.032205082956147,0.0,0,False
2022-03-13,1.032205082956147,1.032205082956147,0.0,0,False
2022-03-14,1.032205082956147,1.032205082956147,0.0,0,False
2022-03-15,1.032205082956147,1.032205082956147,0.0,0,False
2022-03-16,1.032205082956147,1.032205082956147,0.0,0,False
2022-03-17,1.032205082956147,1.032205082956147,0.0,0,False
2022-03-18,1.032205082956147,1.032205082956147,0.0,0,False
2022-03-19,1.032205082956147,1.032205082956147,0.0,0,False
2022-03-20,1.032205082956147,1.032205082956147,0.0,0,False
2022-03-21,1.032205082956147,1.032205082956147,0.0,0,False
2022-03-22,1.032205082956147,1.032205082956147,0.0,0,False
2022-03-23,1.032205082956147,1.032205082956147,0.0,0,False
2022-03-24,1.032205082956147,1.032205082956147,0.0,0,False
2022-03-25,1.032205082956147,1.032205082956147,0.0,0,False
2022-03-26,1.032205082956147,1.0341496879834715,0.1883932814741751,1,True
2022-03-27,1.0341496879834715,1.0341496879834715,0.0,0,False
2022-03-28,1.0341496879834715,1.0341496879834715,0.0,0,False
2022-03-29,1.0341496879834715,1.0341496879834715,0.0,0,False
2022-03-30,1.0341496879834715,1.0326288548429634,-0.14706121929733973,1,True
2022-03-31,1.0326288548429634,1.0326288548429634,0.0,0,False
2022-04-01,1.0326288548429634,1.0326288548429634,0.0,0,False
2022-04-02,1.0326288548429634,1.0326288548429634,0.0,0,False
2022-04-03,1.0326288548429634,1.0326288548429634,0.0,0,False
2022-04-04,1.0326288548429634,1.0274713351343423,-0.4994553158603532,1,True
2022-04-05,1.0274713351343423,1.0274713351343423,0.0,0,False
2022-04-06,1.0274713351343423,1.0289483256899978,0.14375004977267292,1,True
2022-04-07,1.0289483256899978,1.0260328723638659,-0.28334302640289355,1,True
2022-04-08,1.0260328723638659,1.0260328723638659,0.0,0,False
2022-04-09,1.0260328723638659,1.0260328723638659,0.0,0,False
2022-04-10,1.0260328723638659,1.0260328723638659,0.0,0,False
2022-04-11,1.0260328723638659,1.0260328723638659,0.0,0,False
2022-04-12,1.0260328723638659,1.0260328723638659,0.0,0,False
2022-04-13,1.0260328723638659,1.0260328723638659,0.0,0,False
2022-04-14,1.0260328723638659,1.0260328723638659,0.0,0,False
2022-04-15,1.0260328723638659,1.0260328723638659,0.0,0,False
2022-04-16,1.0260328723638659,1.0260328723638659,0.0,0,False
2022-04-17,1.0260328723638659,1.0260328723638659,0.0,0,False
2022-04-18,1.0260328723638659,1.0291002406735823,0.2989541945814578,1,True
2022-04-19,1.0291002406735823,1.0275953587827122,-0.14623277999479267,0,True
2022-04-20,1.0275953587827122,1.0275953587827122,0.0,0,False
2022-04-21,1.0275953587827122,1.0275953587827122,0.0,0,False
2022-04-22,1.0275953587827122,1.0275953587827122,0.0,0,False
2022-04-23,1.0275953587827122,1.0275953587827122,0.0,0,False
2022-04-24,1.0275953587827122,1.0275953587827122,0.0,0,False
2022-04-25,1.0275953587827122,1.0275953587827122,0.0,0,False
2022-04-26,1.0275953587827122,1.0275953587827122,0.0,0,False
2022-04-27,1.0275953587827122,1.0275953587827122,0.0,0,False
2022-04-28,1.0275953587827122,1.0275953587827122,0.0,0,False
2022-04-29,1.0275953587827122,1.0275953587827122,0.0,0,False
2022-04-30,1.0275953587827122,1.0275953587827122,0.0,0,False
2022-05-01,1.0275953587827122,1.0442524876588037,1.6209813263290185,4,True
2022-05-02,1.0442524876588037,1.0442524876588037,0.0,0,False
2022-05-03,1.0442524876588037,1.0442524876588037,0.0,0,False
2022-05-04,1.0442524876588037,1.0442524876588037,0.0,0,False
2022-05-05,1.0442524876588037,1.0442524876588037,0.0,0,False
2022-05-06,1.0442524876588037,1.0400273184660025,-0.4046118388737585,2,True
2022-05-07,1.0400273184660025,1.038992728036331,-0.09947723596314129,0,True
2022-05-08,1.038992728036331,1.038992728036331,0.0,0,False
2022-05-09,1.038992728036331,1.038992728036331,0.0,0,False
2022-05-10,1.038992728036331,1.0286097220932446,-0.9993338416054098,2,True
2022-05-11,1.0286097220932446,1.0136218370613777,-1.4571012416027207,5,True
2022-05-12,1.0136218370613777,0.9980292145212237,-1.5383076774824644,1,True
2022-05-13,0.9980292145212237,0.9980292145212237,0.0,0,False
2022-05-14,0.9980292145212237,0.9980292145212237,0.0,0,False
2022-05-15,0.9980292145212237,0.9949832422889158,-0.30519870440558483,1,True
2022-05-16,0.9949832422889158,0.9971197360131168,0.21472660376531394,1,True
2022-05-17,0.9971197360131168,0.9971197360131168,0.0,0,False
2022-05-18,0.9971197360131168,0.9971197360131168,0.0,0,False
2022-05-19,0.9971197360131168,0.9971197360131168,0.0,0,False
2022-05-20,0.9971197360131168,0.9921411970276638,-0.4992919912867433,1,True
2022-05-21,0.9921411970276638,0.9921411970276638,0.0,0,False
2022-05-22,0.9921411970276638,0.9921411970276638,0.0,0,False
2022-05-23,0.9921411970276638,0.9918829016841598,-0.026034131460095367,1,True
2022-05-24,0.9918829016841598,0.9868387242806586,-0.5085456554333678,1,True
2022-05-25,0.9868387242806586,0.9867776922522341,-0.006184600069170099,1,True
2022-05-26,0.9867776922522341,0.9921274934759214,0.5421485777082014,1,True
2022-05-27,0.9921274934759214,0.9903063622556404,-0.183558185037358,0,True
2022-05-28,0.9903063622556404,0.9903063622556404,0.0,0,False
2022-05-29,0.9903063622556404,0.9903063622556404,0.0,0,False
2022-05-30,0.9903063622556404,0.9903063622556404,0.0,0,False
2022-05-31,0.9903063622556404,0.9903063622556404,0.0,0,False
2022-06-01,0.9903063622556404,0.9903063622556404,0.0,0,False
2022-06-02,0.9903063622556404,0.9853590816377997,-0.4995707193652832,1,True
2022-06-03,0.9853590816377997,0.9853590816377997,0.0,0,False
2022-06-04,0.9853590816377997,0.9853590816377997,0.0,0,False
2022-06-05,0.9853590816377997,0.9853590816377997,0.0,0,False
2022-06-06,0.9853590816377997,0.9853590816377997,0.0,0,False
2022-06-07,0.9853590816377997,0.9863898348853959,0.10460686533511065,1,True
2022-06-08,0.9863898348853959,0.9866250482649396,0.023845884378048687,1,True
2022-06-09,0.9866250482649396,0.9866250482649396,0.0,0,False
2022-06-10,0.9866250482649396,0.9934868683149332,0.6954840708798704,1,True
2022-06-11,0.9934868683149332,0.9934868683149332,0.0,0,False
2022-06-12,0.9934868683149332,0.9945320070976613,0.1051990535618108,4,True
2022-06-13,0.9945320070976613,0.9945320070976613,0.0,0,False
2022-06-14,0.9945320070976613,0.9945320070976613,0.0,0,False
2022-06-15,0.9945320070976613,0.9945320070976613,0.0,0,False
2022-06-16,0.9945320070976613,1.0049326582667273,1.0457834534072008,2,True
2022-06-17,1.0049326582667273,1.0082431634863003,0.32942557815593965,0,True
2022-06-18,1.0082431634863003,0.9980389431251452,-1.012079300976465,4,True
2022-06-19,0.9980389431251452,1.000066796040215,0.20318374638970127,0,True
2022-06-20,1.000066796040215,1.000066796040215,0.0,0,False
2022-06-21,1.000066796040215,1.000066796040215,0.0,0,False
2022-06-22,1.000066796040215,1.000066796040215,0.0,0,False
2022-06-23,1.000066796040215,1.000066796040215,0.0,0,False
2022-06-24,1.000066796040215,1.000066796040215,0.0,0,False
2022-06-25,1.000066796040215,1.000066796040215,0.0,0,False
2022-06-26,1.000066796040215,1.000066796040215,0.0,0,False
2022-06-27,1.000066796040215,1.000066796040215,0.0,0,False
2022-06-28,1.000066796040215,1.0017788697855794,0.17119593932559685,1,True
2022-06-29,1.0017788697855794,1.0074728395655745,0.5683858935070063,0,True
2022-06-30,1.0074728395655745,1.0074728395655745,0.0,0,False
2022-07-01,1.0074728395655745,1.0074728395655745,0.0,0,False
2022-07-02,1.0074728395655745,1.0074728395655745,0.0,0,False
2022-07-03,1.0074728395655745,1.0074728395655745,0.0,0,False
2022-07-04,1.0074728395655745,1.0074728395655745,0.0,0,False
2022-07-05,1.0074728395655745,1.0074728395655745,0.0,0,False
2022-07-06,1.0074728395655745,1.0074728395655745,0.0,0,False
2022-07-07,1.0074728395655745,1.0074728395655745,0.0,0,False
2022-07-08,1.0074728395655745,1.0074728395655745,0.0,0,False
2022-07-09,1.0074728395655745,1.0074728395655745,0.0,0,False
2022-07-10,1.0074728395655745,1.0074728395655745,0.0,0,False
2022-07-11,1.0074728395655745,1.0074728395655745,0.0,0,False
2022-07-12,1.0074728395655745,1.0074728395655745,0.0,0,False
2022-07-13,1.0074728395655745,1.0198407459215875,1.2276168518196462,4,True
2022-07-14,1.0198407459215875,1.037763593151593,1.7574162732446386,0,True
2022-07-15,1.037763593151593,1.037763593151593,0.0,0,False
2022-07-16,1.037763593151593,1.037763593151593,0.0,0,False
2022-07-17,1.037763593151593,1.037763593151593,0.0,0,False
2022-07-18,1.037763593151593,1.037763593151593,0.0,0,False
2022-07-19,1.037763593151593,1.037763593151593,0.0,0,False
2022-07-20,1.037763593151593,1.037763593151593,0.0,0,False
2022-07-21,1.037763593151593,1.0350516697094019,-0.261323817879866,3,True
2022-07-22,1.0350516697094019,1.0350516697094019,0.0,0,False
2022-07-23,1.0350516697094019,1.0350516697094019,0.0,0,False
2022-07-24,1.0350516697094019,1.0413197320169865,0.60557965278627,1,True
2022-07-25,1.0413197320169865,1.0424782783815345,0.11125750611715723,1,True
2022-07-26,1.0424782783815345,1.0424782783815345,0.0,0,False
2022-07-27,1.0424782783815345,1.0424782783815345,0.0,0,False
2022-07-28,1.0424782783815345,1.0424782783815345,0.0,0,False
2022-07-29,1.0424782783815345,1.0424782783815345,0.0,0,False
2022-07-30,1.0424782783815345,1.0424782783815345,0.0,0,False
2022-07-31,1.0424782783815345,1.0424782783815345,0.0,0,False
2022-08-01,1.0424782783815345,1.0424782783815345,0.0,0,False
2022-08-02,1.0424782783815345,1.0424782783815345,0.0,0,False
2022-08-03,1.0424782783815345,1.0424782783815345,0.0,0,False
2022-08-04,1.0424782783815345,1.0424782783815345,0.0,0,False
2022-08-05,1.0424782783815345,1.0424782783815345,0.0,0,False
2022-08-06,1.0424782783815345,1.0424782783815345,0.0,0,False
2022-08-07,1.0424782783815345,1.0424782783815345,0.0,0,False
2022-08-08,1.0424782783815345,1.0424782783815345,0.0,0,False
2022-08-09,1.0424782783815345,1.044631460358774,0.20654454120447863,1,True
2022-08-10,1.044631460358774,1.044631460358774,0.0,0,False
2022-08-11,1.044631460358774,1.044631460358774,0.0,0,False
2022-08-12,1.044631460358774,1.0450184209200135,0.0370427826390074,1,True
2022-08-13,1.0450184209200135,1.0450184209200135,0.0,0,False
2022-08-14,1.0450184209200135,1.0450184209200135,0.0,0,False
2022-08-15,1.0450184209200135,1.0450184209200135,0.0,0,False
2022-08-16,1.0450184209200135,1.0450184209200135,0.0,0,False
2022-08-17,1.0450184209200135,1.0450184209200135,0.0,0,False
2022-08-18,1.0450184209200135,1.0450184209200135,0.0,0,False
2022-08-19,1.0450184209200135,1.020471489459546,-2.3489472500261788,8,True
2022-08-20,1.020471489459546,1.020471489459546,0.0,0,False
2022-08-21,1.020471489459546,1.020471489459546,0.0,0,False
2022-08-22,1.020471489459546,1.020471489459546,0.0,0,False
2022-08-23,1.020471489459546,1.020471489459546,0.0,0,False
2022-08-24,1.020471489459546,1.020471489459546,0.0,0,False
2022-08-25,1.020471489459546,1.020471489459546,0.0,0,False
2022-08-26,1.020471489459546,1.020471489459546,0.0,0,False
2022-08-27,1.020471489459546,1.020471489459546,0.0,0,False
2022-08-28,1.020471489459546,1.020471489459546,0.0,0,False
2022-08-29,1.020471489459546,1.020471489459546,0.0,0,False
2022-08-30,1.020471489459546,1.020471489459546,0.0,0,False
2022-08-31,1.020471489459546,1.020471489459546,0.0,0,False
2022-09-01,1.020471489459546,1.020471489459546,0.0,0,False
2022-09-02,1.020471489459546,1.020471489459546,0.0,0,False
2022-09-03,1.020471489459546,1.020471489459546,0.0,0,False
2022-09-04,1.020471489459546,1.020471489459546,0.0,0,False
2022-09-05,1.020471489459546,1.020471489459546,0.0,0,False
2022-09-06,1.020471489459546,1.020471489459546,0.0,0,False
2022-09-07,1.020471489459546,1.0125564521229988,-0.7756255239172782,4,True
2022-09-08,1.0125564521229988,1.0125564521229988,0.0,0,False
2022-09-09,1.0125564521229988,1.0125564521229988,0.0,0,False
2022-09-10,1.0125564521229988,1.0125564521229988,0.0,0,False
2022-09-11,1.0125564521229988,1.0125564521229988,0.0,0,False
2022-09-12,1.0125564521229988,1.0125564521229988,0.0,0,False
2022-09-13,1.0125564521229988,1.0042948226678459,-0.8159179113254367,4,True
2022-09-14,1.0042948226678459,0.9995853591055291,-0.46893237483852657,0,True
2022-09-15,0.9995853591055291,1.0046953332545039,0.5112093832133846,1,True
2022-09-16,1.0046953332545039,1.0046953332545039,0.0,0,False
2022-09-17,1.0046953332545039,1.0046953332545039,0.0,0,False
2022-09-18,1.0046953332545039,1.0046953332545039,0.0,0,False
2022-09-19,1.0046953332545039,1.0050366098068562,0.03396816338807618,5,True
2022-09-20,1.0050366098068562,1.0050366098068562,0.0,0,False
2022-09-21,1.0050366098068562,1.0050366098068562,0.0,0,False
2022-09-22,1.0050366098068562,1.0050366098068562,0.0,0,False
2022-09-23,1.0050366098068562,1.0050366098068562,0.0,0,False
2022-09-24,1.0050366098068562,1.0050366098068562,0.0,0,False
2022-09-25,1.0050366098068562,1.0050366098068562,0.0,0,False
2022-09-26,1.0050366098068562,1.0050366098068562,0.0,0,False
2022-09-27,1.0050366098068562,1.0050366098068562,0.0,0,False
2022-09-28,1.0050366098068562,1.0050366098068562,0.0,0,False
2022-09-29,1.0050366098068562,1.0050366098068562,0.0,0,False
2022-09-30,1.0050366098068562,1.0050366098068562,0.0,0,False
2022-10-01,1.0050366098068562,1.0050366098068562,0.0,0,False
2022-10-02,1.0050366098068562,1.0050366098068562,0.0,0,False
2022-10-03,1.0050366098068562,1.0050366098068562,0.0,0,False
2022-10-04,1.0050366098068562,1.0050366098068562,0.0,0,False
2022-10-05,1.0050366098068562,1.0050366098068562,0.0,0,False
2022-10-06,1.0050366098068562,1.0050366098068562,0.0,0,False
2022-10-07,1.0050366098068562,1.0050366098068562,0.0,0,False
2022-10-08,1.0050366098068562,1.0050366098068562,0.0,0,False
2022-10-09,1.0050366098068562,1.0050366098068562,0.0,0,False
2022-10-10,1.0050366098068562,1.0050366098068562,0.0,0,False
2022-10-11,1.0050366098068562,1.0307281176210525,2.5562758175678546,4,True
2022-10-12,1.0307281176210525,1.0307281176210525,0.0,0,False
2022-10-13,1.0307281176210525,1.0307281176210525,0.0,0,False
2022-10-14,1.0307281176210525,1.0307281176210525,0.0,0,False
2022-10-15,1.0307281176210525,1.0307281176210525,0.0,0,False
2022-10-16,1.0307281176210525,1.0307281176210525,0.0,0,False
2022-10-17,1.0307281176210525,1.0307281176210525,0.0,0,False
2022-10-18,1.0307281176210525,1.0307281176210525,0.0,0,False
2022-10-19,1.0307281176210525,1.0307281176210525,0.0,0,False
2022-10-20,1.0307281176210525,1.0350575294847122,0.4200343223052849,1,True
2022-10-21,1.0350575294847122,1.0350575294847122,0.0,0,False
2022-10-22,1.0350575294847122,1.0350575294847122,0.0,0,False
2022-10-23,1.0350575294847122,1.0350575294847122,0.0,0,False
2022-10-24,1.0350575294847122,1.0350575294847122,0.0,0,False
2022-10-25,1.0350575294847122,1.0350575294847122,0.0,0,False
2022-10-26,1.0350575294847122,1.0350575294847122,0.0,0,False
2022-10-27,1.0350575294847122,1.0350575294847122,0.0,0,False
2022-10-28,1.0350575294847122,1.0350575294847122,0.0,0,False
2022-10-29,1.0350575294847122,1.0350575294847122,0.0,0,False
2022-10-30,1.0350575294847122,1.0350575294847122,0.0,0,False
2022-10-31,1.0350575294847122,1.0350575294847122,0.0,0,False
2022-11-01,1.0350575294847122,1.0350575294847122,0.0,0,False
2022-11-02,1.0350575294847122,1.03984478421751,0.4625109809288652,1,True
2022-11-03,1.03984478421751,1.03984478421751,0.0,0,False
2022-11-04,1.03984478421751,1.0522801306491856,1.195884868628072,2,True
2022-11-05,1.0522801306491856,1.0512299953432307,-0.09979617360131865,0,True
2022-11-06,1.0512299953432307,1.0512299953432307,0.0,0,False
2022-11-07,1.0512299953432307,1.051653798007816,0.04031493264677888,1,True
2022-11-08,1.051653798007816,1.0438380585363782,-0.7431855888547556,3,True
2022-11-09,1.0438380585363782,1.0406541654606045,-0.3050179143916254,4,True
2022-11-10,1.0406541654606045,1.0495413079366598,0.8539957625713024,1,True
2022-11-11,1.0495413079366598,1.0559721368692865,0.6127275681287347,5,True
2022-11-12,1.0559721368692865,1.0663818593526155,0.9857951852964009,1,True
2022-11-13,1.0663818593526155,1.0599575127227054,-0.6024433530602447,1,True
2022-11-14,1.0599575127227054,1.065277302651551,0.5018870912269602,2,True
2022-11-15,1.065277302651551,1.065277302651551,0.0,0,False
2022-11-16,1.065277302651551,1.065277302651551,0.0,0,False
2022-11-17,1.065277302651551,1.065277302651551,0.0,0,False
2022-11-18,1.065277302651551,1.065277302651551,0.0,0,False
2022-11-19,1.065277302651551,1.0656240381201507,0.03254884598937746,2,True
2022-11-20,1.0656240381201507,1.060918765710594,-0.4415508886095654,1,True
2022-11-21,1.060918765710594,1.0547260852965754,-0.5837091975530173,1,True
2022-11-22,1.0547260852965754,1.0547260852965754,0.0,0,False
2022-11-23,1.0547260852965754,1.0547260852965754,0.0,0,False
2022-11-24,1.0547260852965754,1.0547260852965754,0.0,0,False
2022-11-25,1.0547260852965754,1.0547260852965754,0.0,0,False
2022-11-26,1.0547260852965754,1.0547260852965754,0.0,0,False
2022-11-27,1.0547260852965754,1.0547260852965754,0.0,0,False
2022-11-28,1.0547260852965754,1.0511464826708559,-0.339386943740283,2,True
2022-11-29,1.0511464826708559,1.0511464826708559,0.0,0,False
2022-11-30,1.0511464826708559,1.0511464826708559,0.0,0,False
2022-12-01,1.0511464826708559,1.0510780751190814,-0.006507899032370812,1,True
2022-12-02,1.0510780751190814,1.0510780751190814,0.0,0,False
2022-12-03,1.0510780751190814,1.0510780751190814,0.0,0,False
2022-12-04,1.0510780751190814,1.0510780751190814,0.0,0,False
2022-12-05,1.0510780751190814,1.0510780751190814,0.0,0,False
2022-12-06,1.0510780751190814,1.0510780751190814,0.0,0,False
2022-12-07,1.0510780751190814,1.0510780751190814,0.0,0,False
2022-12-08,1.0510780751190814,1.0458325517586422,-0.4990612481232559,1,True
2022-12-09,1.0458325517586422,1.0458325517586422,0.0,0,False
2022-12-10,1.0458325517586422,1.0458325517586422,0.0,0,False
2022-12-11,1.0458325517586422,1.0458325517586422,0.0,0,False
2022-12-12,1.0458325517586422,1.0458325517586422,0.0,0,False
2022-12-13,1.0458325517586422,1.0458325517586422,0.0,0,False
2022-12-14,1.0458325517586422,1.0458325517586422,0.0,0,False
2022-12-15,1.0458325517586422,1.0458325517586422,0.0,0,False
2022-12-16,1.0458325517586422,1.0458325517586422,0.0,0,False
2022-12-17,1.0458325517586422,1.0592701296811455,1.2848689687375847,4,True
2022-12-18,1.0592701296811455,1.0592701296811455,0.0,0,False
2022-12-19,1.0592701296811455,1.0592701296811455,0.0,0,False
2022-12-20,1.0592701296811455,1.0592701296811455,0.0,0,False
2022-12-21,1.0592701296811455,1.0592701296811455,0.0,0,False
2022-12-22,1.0592701296811455,1.0592701296811455,0.0,0,False
2022-12-23,1.0592701296811455,1.0592701296811455,0.0,0,False
2022-12-24,1.0592701296811455,1.0592701296811455,0.0,0,False
2022-12-25,1.0592701296811455,1.0592701296811455,0.0,0,False
2022-12-26,1.0592701296811455,1.0592701296811455,0.0,0,False
2022-12-27,1.0592701296811455,1.0592701296811455,0.0,0,False
2022-12-28,1.0592701296811455,1.0621280328637885,0.26979927995356423,1,True
2022-12-29,1.0621280328637885,1.0610560001166776,-0.10093253486780362,0,True
2022-12-30,1.0610560001166776,1.0610560001166776,0.0,0,False
2022-12-31,1.0610560001166776,1.0610560001166776,0.0,0,False
2023-01-01,1.0610560001166776,1.0610560001166776,0.0,0,False
2023-01-02,1.0610560001166776,1.0614440571100323,0.036572715607108286,1,True
2023-01-03,1.0614440571100323,1.0615388764264237,0.008933048873971394,0,True
2023-01-04,1.0615388764264237,1.0615388764264237,0.0,0,False
2023-01-05,1.0615388764264237,1.0615388764264237,0.0,0,False
2023-01-06,1.0615388764264237,1.0615388764264237,0.0,0,False
2023-01-07,1.0615388764264237,1.0615388764264237,0.0,0,False
2023-01-08,1.0615388764264237,1.0615388764264237,0.0,0,False
2023-01-09,1.0615388764264237,1.0615388764264237,0.0,0,False
2023-01-10,1.0615388764264237,1.059393250903017,-0.20212406451186604,2,True
2023-01-11,1.059393250903017,1.0601347062729018,0.0699886816583728,0,True
2023-01-12,1.0601347062729018,1.0601347062729018,0.0,0,False
2023-01-13,1.0601347062729018,1.0601347062729018,0.0,0,False
2023-01-14,1.0601347062729018,1.0601347062729018,0.0,0,False
2023-01-15,1.0601347062729018,1.0618686524425496,0.16355904201492688,1,True
2023-01-16,1.0618686524425496,1.0618686524425496,0.0,0,False
2023-01-17,1.0618686524425496,1.0618686524425496,0.0,0,False
2023-01-18,1.0618686524425496,1.0618686524425496,0.0,0,False
2023-01-19,1.0618686524425496,1.0565655603584538,-0.4994113040155512,1,True
2023-01-20,1.0565655603584538,1.0565655603584538,0.0,0,False
2023-01-21,1.0565655603584538,1.0579408046920045,0.1301617604386074,1,True
2023-01-22,1.0579408046920045,1.057210793767261,-0.0690030029568578,0,True
2023-01-23,1.057210793767261,1.057210793767261,0.0,0,False
2023-01-24,1.057210793767261,1.0636671533997946,0.6106974759051642,1,True
2023-01-25,1.0636671533997946,1.0707471058650067,0.6656172885082023,5,True
2023-01-26,1.0707471058650067,1.0707471058650067,0.0,0,False
2023-01-27,1.0707471058650067,1.0707471058650067,0.0,0,False
2023-01-28,1.0707471058650067,1.0707471058650067,0.0,0,False
2023-01-29,1.0707471058650067,1.0707471058650067,0.0,0,False
2023-01-30,1.0707471058650067,1.0709350264131847,0.017550413832423395,2,True
2023-01-31,1.0709350264131847,1.0673091228621818,-0.3385736259973626,2,True
2023-02-01,1.0673091228621818,1.0673091228621818,0.0,0,False
2023-02-02,1.0673091228621818,1.0673091228621818,0.0,0,False
2023-02-03,1.0673091228621818,1.0673091228621818,0.0,0,False
2023-02-04,1.0673091228621818,1.0673091228621818,0.0,0,False
2023-02-05,1.0673091228621818,1.070616951643982,0.30992228127215693,4,True
2023-02-06,1.070616951643982,1.0835908275424548,1.2118130465383237,1,True
2023-02-07,1.0835908275424548,1.0830993117753922,-0.04535990473243379,0,True
2023-02-08,1.0830993117753922,1.0830993117753922,0.0,0,False
2023-02-09,1.0830993117753922,1.0830993117753922,0.0,0,False
2023-02-10,1.0830993117753922,1.0830993117753922,0.0,0,False
2023-02-11,1.0830993117753922,1.0830993117753922,0.0,0,False
2023-02-12,1.0830993117753922,1.0830993117753922,0.0,0,False
2023-02-13,1.0830993117753922,1.0830993117753922,0.0,0,False
2023-02-14,1.0830993117753922,1.0830993117753922,0.0,0,False
2023-02-15,1.0830993117753922,1.0830993117753922,0.0,0,False
2023-02-16,1.0830993117753922,1.0830993117753922,0.0,0,False
2023-02-17,1.0830993117753922,1.0830993117753922,0.0,0,False
2023-02-18,1.0830993117753922,1.0830993117753922,0.0,0,False
2023-02-19,1.0830993117753922,1.0830993117753922,0.0,0,False
2023-02-20,1.0830993117753922,1.0830993117753922,0.0,0,False
2023-02-21,1.0830993117753922,1.081752334843942,-0.1243631970592185,2,True
2023-02-22,1.081752334843942,1.0821374489173423,0.03560094681522852,0,True
2023-02-23,1.0821374489173423,1.0943661181828976,1.1300476919812619,1,True
2023-02-24,1.0943661181828976,1.0943661181828976,0.0,0,False
2023-02-25,1.0943661181828976,1.0943661181828976,0.0,0,False
2023-02-26,1.0943661181828976,1.0943661181828976,0.0,0,False
2023-02-27,1.0943661181828976,1.0889001456026242,-0.49946471198772935,1,True
2023-02-28,1.0889001456026242,1.0889001456026242,0.0,0,False
2023-03-01,1.0889001456026242,1.0889001456026242,0.0,0,False
2023-03-02,1.0889001456026242,1.0889001456026242,0.0,0,False
2023-03-03,1.0889001456026242,1.083740376650785,-0.4738514337312094,5,True
2023-03-04,1.083740376650785,1.083740376650785,0.0,0,False
2023-03-05,1.083740376650785,1.083740376650785,0.0,0,False
2023-03-06,1.083740376650785,1.083740376650785,0.0,0,False
2023-03-07,1.083740376650785,1.083740376650785,0.0,0,False
2023-03-08,1.083740376650785,1.083740376650785,0.0,0,False
2023-03-09,1.083740376650785,1.083740376650785,0.0,0,False
2023-03-10,1.083740376650785,1.083740376650785,0.0,0,False
2023-03-11,1.083740376650785,1.0895294503144057,0.5341753235688751,1,True
2023-03-12,1.0895294503144057,1.0862610375424702,-0.2999838848773084,0,True
2023-03-13,1.0862610375424702,1.0862610375424702,0.0,0,False
2023-03-14,1.0862610375424702,1.0862610375424702,0.0,0,False
2023-03-15,1.0862610375424702,1.0862610375424702,0.0,0,False
2023-03-16,1.0862610375424702,1.0890235366245027,0.2543126363329984,1,True
2023-03-17,1.0890235366245027,1.0835852456029174,-0.4993731392107126,1,True
2023-03-18,1.0835852456029174,1.0835852456029174,0.0,0,False
2023-03-19,1.0835852456029174,1.0835852456029174,0.0,0,False
2023-03-20,1.0835852456029174,1.0835852456029174,0.0,0,False
2023-03-21,1.0835852456029174,1.0781751069174614,-0.49928131703617096,1,True
2023-03-22,1.0781751069174614,1.0781751069174614,0.0,0,False
2023-03-23,1.0781751069174614,1.0887742248349965,0.9830609007323687,3,True
2023-03-24,1.0887742248349965,1.0900978858210348,0.1215735049421296,0,True
2023-03-25,1.0900978858210348,1.0846524774813215,-0.4995338868685084,1,True
2023-03-26,1.0846524774813215,1.0846524774813215,0.0,0,False
2023-03-27,1.0846524774813215,1.0846524774813215,0.0,0,False
2023-03-28,1.0846524774813215,1.0846524774813215,0.0,0,False
2023-03-29,1.0846524774813215,1.0846524774813215,0.0,0,False
2023-03-30,1.0846524774813215,1.0846524774813215,0.0,0,False
2023-03-31,1.0846524774813215,1.0846524774813215,0.0,0,False
2023-04-01,1.0846524774813215,1.0846524774813215,0.0,0,False
2023-04-02,1.0846524774813215,1.0846524774813215,0.0,0,False
2023-04-03,1.0846524774813215,1.0846524774813215,0.0,0,False
2023-04-04,1.0846524774813215,1.0846524774813215,0.0,0,False
2023-04-05,1.0846524774813215,1.0846524774813215,0.0,0,False
2023-04-06,1.0846524774813215,1.079230690919251,-0.49986393565065734,1,True
2023-04-07,1.079230690919251,1.0751576728572874,-0.37740013291267527,1,True
2023-04-08,1.0751576728572874,1.0751576728572874,0.0,0,False
2023-04-09,1.0751576728572874,1.0751576728572874,0.0,0,False
2023-04-10,1.0751576728572874,1.0751576728572874,0.0,0,False
2023-04-11,1.0751576728572874,1.0751576728572874,0.0,0,False
2023-04-12,1.0751576728572874,1.0751576728572874,0.0,0,False
2023-04-13,1.0751576728572874,1.0751576728572874,0.0,0,False
2023-04-14,1.0751576728572874,1.0751576728572874,0.0,0,False
2023-04-15,1.0751576728572874,1.0751576728572874,0.0,0,False
2023-04-16,1.0751576728572874,1.0751576728572874,0.0,0,False
2023-04-17,1.0751576728572874,1.0751576728572874,0.0,0,False
2023-04-18,1.0751576728572874,1.0751576728572874,0.0,0,False
2023-04-19,1.0751576728572874,1.0644312042670694,-0.9976647017466589,2,True
2023-04-20,1.0644312042670694,1.0644312042670694,0.0,0,False
2023-04-21,1.0644312042670694,1.0644312042670694,0.0,0,False
2023-04-22,1.0644312042670694,1.0644312042670694,0.0,0,False
2023-04-23,1.0644312042670694,1.0644312042670694,0.0,0,False
2023-04-24,1.0644312042670694,1.0644312042670694,0.0,0,False
2023-04-25,1.0644312042670694,1.0644312042670694,0.0,0,False
2023-04-26,1.0644312042670694,1.0644312042670694,0.0,0,False
2023-04-27,1.0644312042670694,1.0644312042670694,0.0,0,False
2023-04-28,1.0644312042670694,1.0644312042670694,0.0,0,False
2023-04-29,1.0644312042670694,1.0644312042670694,0.0,0,False
2023-04-30,1.0644312042670694,1.0644312042670694,0.0,0,False
2023-05-01,1.0644312042670694,1.0644312042670694,0.0,0,False
2023-05-02,1.0644312042670694,1.0644312042670694,0.0,0,False
2023-05-03,1.0644312042670694,1.0644312042670694,0.0,0,False
2023-05-04,1.0644312042670694,1.0644312042670694,0.0,0,False
2023-05-05,1.0644312042670694,1.0644312042670694,0.0,0,False
2023-05-06,1.0644312042670694,1.0644312042670694,0.0,0,False
2023-05-07,1.0644312042670694,1.0644312042670694,0.0,0,False
2023-05-08,1.0644312042670694,1.0628200755550608,-0.1513605299760079,5,True
2023-05-09,1.0628200755550608,1.060673607695619,-0.20195966455760495,2,True
2023-05-10,1.060673607695619,1.0622674107004413,0.15026328488412233,1,True
2023-05-11,1.0622674107004413,1.063841141085751,0.1481482317406302,0,True
2023-05-12,1.063841141085751,1.063841141085751,0.0,0,False
2023-05-13,1.063841141085751,1.063841141085751,0.0,0,False
2023-05-14,1.063841141085751,1.063841141085751,0.0,0,False
2023-05-15,1.063841141085751,1.063841141085751,0.0,0,False
2023-05-16,1.063841141085751,1.063841141085751,0.0,0,False
2023-05-17,1.063841141085751,1.063841141085751,0.0,0,False
2023-05-18,1.063841141085751,1.063841141085751,0.0,0,False
2023-05-19,1.063841141085751,1.063841141085751,0.0,0,False
2023-05-20,1.063841141085751,1.063841141085751,0.0,0,False
2023-05-21,1.063841141085751,1.063841141085751,0.0,0,False
2023-05-22,1.063841141085751,1.063841141085751,0.0,0,False
2023-05-23,1.063841141085751,1.063841141085751,0.0,0,False
2023-05-24,1.063841141085751,1.063841141085751,0.0,0,False
2023-05-25,1.063841141085751,1.063841141085751,0.0,0,False
2023-05-26,1.063841141085751,1.0659473817767686,0.19798451194208422,1,True
2023-05-27,1.0659473817767686,1.0696048717586097,0.34312106248102214,0,True
2023-05-28,1.0696048717586097,1.0696048717586097,0.0,0,False
2023-05-29,1.0696048717586097,1.0696048717586097,0.0,0,False
2023-05-30,1.0696048717586097,1.0696048717586097,0.0,0,False
2023-05-31,1.0696048717586097,1.0696048717586097,0.0,0,False
2023-06-01,1.0696048717586097,1.0696048717586097,0.0,0,False
2023-06-02,1.0696048717586097,1.0832182600328724,1.2727492772055093,1,True
2023-06-03,1.0832182600328724,1.0832182600328724,0.0,0,False
2023-06-04,1.0832182600328724,1.0832182600328724,0.0,0,False
2023-06-05,1.0832182600328724,1.0832182600328724,0.0,0,False
2023-06-06,1.0832182600328724,1.0756049069151317,-0.7028457143539724,4,True
2023-06-07,1.0756049069151317,1.0756049069151317,0.0,0,False
2023-06-08,1.0756049069151317,1.0753112219844772,-0.02730416426760529,1,True
2023-06-09,1.0753112219844772,1.0753112219844772,0.0,0,False
2023-06-10,1.0753112219844772,1.0930200567106496,1.6468566833600873,5,True
2023-06-11,1.0930200567106496,1.0922183353530146,-0.07334918995427486,0,True
2023-06-12,1.0922183353530146,1.0922183353530146,0.0,0,False
2023-06-13,1.0922183353530146,1.0922183353530146,0.0,0,False
2023-06-14,1.0922183353530146,1.0922183353530146,0.0,0,False
2023-06-15,1.0922183353530146,1.0922183353530146,0.0,0,False
2023-06-16,1.0922183353530146,1.0922183353530146,0.0,0,False
2023-06-17,1.0922183353530146,1.0922183353530146,0.0,0,False
2023-06-18,1.0922183353530146,1.0922183353530146,0.0,0,False
2023-06-19,1.0922183353530146,1.0979996821709417,0.5293215313088906,1,True
2023-06-20,1.0979996821709417,1.09890656039052,0.08259366867804374,0,True
2023-06-21,1.09890656039052,1.09890656039052,0.0,0,False
2023-06-22,1.09890656039052,1.0934123810054113,-0.4999678392270335,1,True
2023-06-23,1.0934123810054113,1.0934123810054113,0.0,0,False
2023-06-24,1.0934123810054113,1.0934123810054113,0.0,0,False
2023-06-25,1.0934123810054113,1.0934123810054113,0.0,0,False
2023-06-26,1.0934123810054113,1.0934123810054113,0.0,0,False
2023-06-27,1.0934123810054113,1.0934123810054113,0.0,0,False
2023-06-28,1.0934123810054113,1.0934123810054113,0.0,0,False
2023-06-29,1.0934123810054113,1.0934123810054113,0.0,0,False
2023-06-30,1.0934123810054113,1.0716048178379558,-1.99444999400894,4,True
2023-07-01,1.0716048178379558,1.0662533052234333,-0.4993923623187513,1,True
2023-07-02,1.0662533052234333,1.0662533052234333,0.0,0,False
2023-07-03,1.0662533052234333,1.0662533052234333,0.0,0,False
2023-07-04,1.0662533052234333,1.0662533052234333,0.0,0,False
2023-07-05,1.0662533052234333,1.0662533052234333,0.0,0,False
2023-07-06,1.0662533052234333,1.0662533052234333,0.0,0,False
2023-07-07,1.0662533052234333,1.0662533052234333,0.0,0,False
2023-07-08,1.0662533052234333,1.0662533052234333,0.0,0,False
2023-07-09,1.0662533052234333,1.0662533052234333,0.0,0,False
2023-07-10,1.0662533052234333,1.0662533052234333,0.0,0,False
2023-07-11,1.0662533052234333,1.0662533052234333,0.0,0,False
2023-07-12,1.0662533052234333,1.0662533052234333,0.0,0,False
2023-07-13,1.0662533052234333,1.0662533052234333,0.0,0,False
2023-07-14,1.0662533052234333,1.0662533052234333,0.0,0,False
2023-07-15,1.0662533052234333,1.0662533052234333,0.0,0,False
2023-07-16,1.0662533052234333,1.0662533052234333,0.0,0,False
2023-07-17,1.0662533052234333,1.0662533052234333,0.0,0,False
2023-07-18,1.0662533052234333,1.0662533052234333,0.0,0,False
2023-07-19,1.0662533052234333,1.0662533052234333,0.0,0,False
2023-07-20,1.0662533052234333,1.0662533052234333,0.0,0,False
2023-07-21,1.0662533052234333,1.0662533052234333,0.0,0,False
2023-07-22,1.0662533052234333,1.0662533052234333,0.0,0,False
2023-07-23,1.0662533052234333,1.0662533052234333,0.0,0,False
2023-07-24,1.0662533052234333,1.0662155598969116,-0.0035399962032278687,1,True
2023-07-25,1.0662155598969116,1.0665859812159109,0.03474169135508909,0,True
2023-07-26,1.0665859812159109,1.0665859812159109,0.0,0,False
2023-07-27,1.0665859812159109,1.0665859812159109,0.0,0,False
2023-07-28,1.0665859812159109,1.0665859812159109,0.0,0,False
2023-07-29,1.0665859812159109,1.0665859812159109,0.0,0,False
2023-07-30,1.0665859812159109,1.0665859812159109,0.0,0,False
2023-07-31,1.0665859812159109,1.0665859812159109,0.0,0,False
2023-08-01,1.0665859812159109,1.0665859812159109,0.0,0,False
2023-08-02,1.0665859812159109,1.0665859812159109,0.0,0,False
2023-08-03,1.0665859812159109,1.0665859812159109,0.0,0,False
2023-08-04,1.0665859812159109,1.0665859812159109,0.0,0,False
2023-08-05,1.0665859812159109,1.0665859812159109,0.0,0,False
2023-08-06,1.0665859812159109,1.0665859812159109,0.0,0,False
2023-08-07,1.0665859812159109,1.0665859812159109,0.0,0,False
2023-08-08,1.0665859812159109,1.0665859812159109,0.0,0,False
2023-08-09,1.0665859812159109,1.0665859812159109,0.0,0,False
2023-08-10,1.0665859812159109,1.0665859812159109,0.0,0,False
2023-08-11,1.0665859812159109,1.0665859812159109,0.0,0,False
2023-08-12,1.0665859812159109,1.0665859812159109,0.0,0,False
2023-08-13,1.0665859812159109,1.0665859812159109,0.0,0,False
2023-08-14,1.0665859812159109,1.0665859812159109,0.0,0,False
2023-08-15,1.0665859812159109,1.0665859812159109,0.0,0,False
2023-08-16,1.0665859812159109,1.075250571022754,0.8123667439323912,4,True
2023-08-17,1.075250571022754,1.075250571022754,0.0,0,False
2023-08-18,1.075250571022754,1.1232578254028078,4.464750419466457,4,True
2023-08-19,1.1232578254028078,1.1232578254028078,0.0,0,False
2023-08-20,1.1232578254028078,1.1232578254028078,0.0,0,False
2023-08-21,1.1232578254028078,1.1232578254028078,0.0,0,False
2023-08-22,1.1232578254028078,1.1232578254028078,0.0,0,False
2023-08-23,1.1232578254028078,1.1232578254028078,0.0,0,False
2023-08-24,1.1232578254028078,1.1232578254028078,0.0,0,False
2023-08-25,1.1232578254028078,1.1064886829199092,-1.4929023509705042,3,True
2023-08-26,1.1064886829199092,1.1064886829199092,0.0,0,False
2023-08-27,1.1064886829199092,1.1064886829199092,0.0,0,False
2023-08-28,1.1064886829199092,1.1064886829199092,0.0,0,False
2023-08-29,1.1064886829199092,1.1064886829199092,0.0,0,False
2023-08-30,1.1064886829199092,1.1064886829199092,0.0,0,False
2023-08-31,1.1064886829199092,1.1064886829199092,0.0,0,False
2023-09-01,1.1064886829199092,1.1064886829199092,0.0,0,False
2023-09-02,1.1064886829199092,1.108620960920072,0.19270671567428455,1,True
2023-09-03,1.108620960920072,1.1092682454733727,0.05838646175007067,0,True
2023-09-04,1.1092682454733727,1.1092682454733727,0.0,0,False
2023-09-05,1.1092682454733727,1.1092682454733727,0.0,0,False
2023-09-06,1.1092682454733727,1.1092682454733727,0.0,0,False
2023-09-07,1.1092682454733727,1.1092682454733727,0.0,0,False
2023-09-08,1.1092682454733727,1.1092682454733727,0.0,0,False
2023-09-09,1.1092682454733727,1.1092682454733727,0.0,0,False
2023-09-10,1.1092682454733727,1.1077339521891472,-0.13831580327721138,2,True
2023-09-11,1.1077339521891472,1.1048041087135505,-0.26448981452690257,1,True
2023-09-12,1.1048041087135505,1.1048041087135505,0.0,0,False
2023-09-13,1.1048041087135505,1.1152108575529964,0.941954212277829,1,True
2023-09-14,1.1152108575529964,1.1204910600819253,0.4734712268238406,0,True
2023-09-15,1.1204910600819253,1.1204910600819253,0.0,0,False
2023-09-16,1.1204910600819253,1.1204910600819253,0.0,0,False
2023-09-17,1.1204910600819253,1.1204910600819253,0.0,0,False
2023-09-18,1.1204910600819253,1.1148946936981659,-0.4994565849860799,1,True
2023-09-19,1.1148946936981659,1.1148946936981659,0.0,0,False
2023-09-20,1.1148946936981659,1.1176788627691883,0.24972484726670796,1,True
2023-09-21,1.1176788627691883,1.1210580442814502,0.3023392161044969,0,True
2023-09-22,1.1210580442814502,1.1210580442814502,0.0,0,False
2023-09-23,1.1210580442814502,1.1210580442814502,0.0,0,False
2023-09-24,1.1210580442814502,1.1210580442814502,0.0,0,False
2023-09-25,1.1210580442814502,1.1210580442814502,0.0,0,False
2023-09-26,1.1210580442814502,1.1221306972692404,0.09568219890681018,1,True
2023-09-27,1.1221306972692404,1.120641474527205,-0.1327138403449335,0,True
2023-09-28,1.120641474527205,1.120641474527205,0.0,0,False
2023-09-29,1.120641474527205,1.120641474527205,0.0,0,False
2023-09-30,1.120641474527205,1.120641474527205,0.0,0,False
2023-10-01,1.120641474527205,1.120641474527205,0.0,0,False
2023-10-02,1.120641474527205,1.120641474527205,0.0,0,False
2023-10-03,1.120641474527205,1.121072903824835,0.03849842321890229,1,True
2023-10-04,1.121072903824835,1.1150398169341325,-0.5381529488509784,0,True
2023-10-05,1.1150398169341325,1.1150398169341325,0.0,0,False
2023-10-06,1.1150398169341325,1.1150398169341325,0.0,0,False
2023-10-07,1.1150398169341325,1.1150398169341325,0.0,0,False
2023-10-08,1.1150398169341325,1.1150398169341325,0.0,0,False
2023-10-09,1.1150398169341325,1.1150398169341325,0.0,0,False
2023-10-10,1.1150398169341325,1.1150398169341325,0.0,0,False
2023-10-11,1.1150398169341325,1.1150398169341325,0.0,0,False
2023-10-12,1.1150398169341325,1.1150398169341325,0.0,0,False
2023-10-13,1.1150398169341325,1.1150398169341325,0.0,0,False
2023-10-14,1.1150398169341325,1.1150398169341325,0.0,0,False
2023-10-15,1.1150398169341325,1.1150914159125112,0.004627545814517298,1,True
2023-10-16,1.1150914159125112,1.1160119856132218,0.08255553648552905,1,True
2023-10-17,1.1160119856132218,1.1099027678902504,-0.5474150637920339,1,True
2023-10-18,1.1099027678902504,1.1099027678902504,0.0,0,False
2023-10-19,1.1099027678902504,1.0988437412398488,-0.9963959880398443,2,True
2023-10-20,1.0988437412398488,1.0988437412398488,0.0,0,False
2023-10-21,1.0988437412398488,1.0999304483780048,0.09889551147006514,1,True
2023-10-22,1.0999304483780048,1.0999304483780048,0.0,0,False
2023-10-23,1.0999304483780048,1.0999304483780048,0.0,0,False
2023-10-24,1.0999304483780048,1.0999304483780048,0.0,0,False
2023-10-25,1.0999304483780048,1.0999304483780048,0.0,0,False
2023-10-26,1.0999304483780048,1.1078108973583036,0.7164497529748015,2,True
2023-10-27,1.1078108973583036,1.1088900539731146,0.09741343196607577,1,True
2023-10-28,1.1088900539731146,1.1103293348389525,0.1297947312883796,0,True
2023-10-29,1.1103293348389525,1.1103293348389525,0.0,0,False
2023-10-30,1.1103293348389525,1.1103293348389525,0.0,0,False
2023-10-31,1.1103293348389525,1.1103293348389525,0.0,0,False
2023-11-01,1.1103293348389525,1.1103293348389525,0.0,0,False
2023-11-02,1.1103293348389525,1.1103293348389525,0.0,0,False
2023-11-03,1.1103293348389525,1.1103293348389525,0.0,0,False
2023-11-04,1.1103293348389525,1.1103293348389525,0.0,0,False
2023-11-05,1.1103293348389525,1.1103293348389525,0.0,0,False
2023-11-06,1.1103293348389525,1.1103293348389525,0.0,0,False
2023-11-07,1.1103293348389525,1.104782273729865,-0.4995870085601317,1,True
2023-11-08,1.104782273729865,1.104782273729865,0.0,0,False
2023-11-09,1.104782273729865,1.1083766374125927,0.3253458865331682,3,True
2023-11-10,1.1083766374125927,1.1230670879451266,1.3254023981259078,4,True
2023-11-11,1.1230670879451266,1.1230670879451266,0.0,0,False
2023-11-12,1.1230670879451266,1.1230670879451266,0.0,0,False
2023-11-13,1.1230670879451266,1.1230670879451266,0.0,0,False
2023-11-14,1.1230670879451266,1.1230670879451266,0.0,0,False
2023-11-15,1.1230670879451266,1.1230670879451266,0.0,0,False
2023-11-16,1.1230670879451266,1.1230670879451266,0.0,0,False
2023-11-17,1.1230670879451266,1.1230670879451266,0.0,0,False
2023-11-18,1.1230670879451266,1.1230670879451266,0.0,0,False
2023-11-19,1.1230670879451266,1.1230670879451266,0.0,0,False
2023-11-20,1.1230670879451266,1.1250119445241618,0.17317367768239222,1,True
2023-11-21,1.1250119445241618,1.1210116141200293,-0.35558114948055497,0,True
2023-11-22,1.1210116141200293,1.1193419623836514,-0.148941519904644,1,True
2023-11-23,1.1193419623836514,1.1193419623836514,0.0,0,False
2023-11-24,1.1193419623836514,1.1193419623836514,0.0,0,False
2023-11-25,1.1193419623836514,1.117012595012829,-0.20810149615601015,1,True
2023-11-26,1.117012595012829,1.117012595012829,0.0,0,False
2023-11-27,1.117012595012829,1.111434691571077,-0.4993590463219233,1,True
2023-11-28,1.111434691571077,1.111434691571077,0.0,0,False
2023-11-29,1.111434691571077,1.1058832945045984,-0.4994802761313366,1,True
2023-11-30,1.1058832945045984,1.1058832945045984,0.0,0,False
2023-12-01,1.1058832945045984,1.1058832945045984,0.0,0,False
2023-12-02,1.1058832945045984,1.1058832945045984,0.0,0,False
2023-12-03,1.1058832945045984,1.1067841171309882,0.08145729579840388,1,True
2023-12-04,1.1067841171309882,1.1172379561772423,0.9445237679550855,4,True
2023-12-05,1.1172379561772423,1.1234037097777432,0.5518746983496525,0,True
2023-12-06,1.1234037097777432,1.1234037097777432,0.0,0,False
2023-12-07,1.1234037097777432,1.1177925940101974,-0.49947456276924207,1,True
2023-12-08,1.1177925940101974,1.1177925940101974,0.0,0,False
2023-12-09,1.1177925940101974,1.1177925940101974,0.0,0,False
2023-12-10,1.1177925940101974,1.1177925940101974,0.0,0,False
2023-12-11,1.1177925940101974,1.133121212452934,1.3713293973208085,4,True
2023-12-12,1.133121212452934,1.133121212452934,0.0,0,False
2023-12-13,1.133121212452934,1.132451419541524,-0.05911043796982263,1,True
2023-12-14,1.132451419541524,1.132451419541524,0.0,0,False
2023-12-15,1.132451419541524,1.132451419541524,0.0,0,False
2023-12-16,1.132451419541524,1.132451419541524,0.0,0,False
2023-12-17,1.132451419541524,1.132451419541524,0.0,0,False
2023-12-18,1.132451419541524,1.1365547640761249,0.3623417714697208,1,True
2023-12-19,1.1365547640761249,1.1336925987475812,-0.2518281933268973,0,True
2023-12-20,1.1336925987475812,1.1336925987475812,0.0,0,False
2023-12-21,1.1336925987475812,1.1336925987475812,0.0,0,False
2023-12-22,1.1336925987475812,1.1336925987475812,0.0,0,False
2023-12-23,1.1336925987475812,1.1336925987475812,0.0,0,False
2023-12-24,1.1336925987475812,1.1320826456317148,-0.14200966978570317,1,True
2023-12-25,1.1320826456317148,1.1356457202792531,0.31473626605680316,0,True
2023-12-26,1.1356457202792531,1.1356457202792531,0.0,0,False
2023-12-27,1.1356457202792531,1.127329432719265,-0.732295945071959,2,True
2023-12-28,1.127329432719265,1.127329432719265,0.0,0,False
2023-12-29,1.127329432719265,1.127329432719265,0.0,0,False
2023-12-30,1.127329432719265,1.127329432719265,0.0,0,False
2023-12-31,1.127329432719265,1.127329432719265,0.0,0,False
