day,start_equity,end_equity,return_pct,entries,active
2021-09-02,1.0,1.0,0.0,0,False
2021-09-03,1.0,1.0,0.0,0,False
2021-09-04,1.0,1.0,0.0,0,False
2021-09-05,1.0,1.0,0.0,0,False
2021-09-06,1.0,1.0,0.0,0,False
2021-09-07,1.0,1.0,0.0,0,False
2021-09-08,1.0,1.0,0.0,0,False
2021-09-09,1.0,1.0,0.0,0,False
2021-09-10,1.0,1.0,0.0,0,False
2021-09-11,1.0,1.0,0.0,0,False
2021-09-12,1.0,1.0,0.0,0,False
2021-09-13,1.0,1.0,0.0,0,False
2021-09-14,1.0,1.0,0.0,0,False
2021-09-15,1.0,1.0,0.0,0,False
2021-09-16,1.0,1.0,0.0,0,False
2021-09-17,1.0,1.0,0.0,0,False
2021-09-18,1.0,1.0,0.0,0,False
2021-09-19,1.0,1.0,0.0,0,False
2021-09-20,1.0,1.0,0.0,0,False
2021-09-21,1.0,1.0,0.0,0,False
2021-09-22,1.0,1.0,0.0,0,False
2021-09-23,1.0,1.0,0.0,0,False
2021-09-24,1.0,1.0,0.0,0,False
2021-09-25,1.0,1.0,0.0,0,False
2021-09-26,1.0,1.0,0.0,0,False
2021-09-27,1.0,1.0,0.0,0,False
2021-09-28,1.0,1.0,0.0,0,False
2021-09-29,1.0,1.0,0.0,0,False
2021-09-30,1.0,1.0,0.0,0,False
2021-10-01,1.0,1.0,0.0,0,False
2021-10-02,1.0,1.0,0.0,0,False
2021-10-03,1.0,1.0,0.0,0,False
2021-10-04,1.0,1.0,0.0,0,False
2021-10-05,1.0,0.9993073753491394,-0.06926246508606182,1,True
2021-10-06,0.9993073753491394,1.0010830235751516,0.17768789361649606,5,True
2021-10-07,1.0010830235751516,0.9890681940111238,-1.2001831297787313,2,True
2021-10-08,0.9890681940111238,0.9883973348109809,-0.0678273959475173,1,True
2021-10-09,0.9883973348109809,0.9902248721049295,0.1848990511794657,4,True
2021-10-10,0.9902248721049295,0.9848080740988481,-0.5470270600825167,1,True
2021-10-11,0.9848080740988481,0.9848080740988481,0.0,0,False
2021-10-12,0.9848080740988481,0.9848080740988481,0.0,0,False
2021-10-13,0.9848080740988481,1.0044137536828732,1.9908122302881637,4,True
2021-10-14,1.0044137536828732,1.023084696985286,1.8588896492060414,1,True
2021-10-15,1.023084696985286,1.021792276360915,-0.1263258680517243,6,True
2021-10-16,1.021792276360915,1.04508957659065,2.2800427022904968,4,True
2021-10-17,1.04508957659065,1.04508957659065,0.0,0,False
2021-10-18,1.04508957659065,1.0465168784314833,0.13657220135039339,2,True
2021-10-19,1.0465168784314833,1.0465168784314833,0.0,0,False
2021-10-20,1.0465168784314833,1.0465168784314833,0.0,0,False
2021-10-21,1.0465168784314833,1.0465168784314833,0.0,0,False
2021-10-22,1.0465168784314833,1.0465168784314833,0.0,0,False
2021-10-23,1.0465168784314833,1.0465168784314833,0.0,0,False
2021-10-24,1.0465168784314833,1.0509841880505348,0.426874110788078,1,True
2021-10-25,1.0509841880505348,1.043254774079256,-0.7354453148925244,3,True
2021-10-26,1.043254774079256,1.043254774079256,0.0,0,False
2021-10-27,1.043254774079256,1.0407387324590884,-0.2411723083067696,7,True
2021-10-28,1.0407387324590884,1.0339265991483129,-0.6545478801081694,9,True
2021-10-29,1.0339265991483129,1.0316178659183417,-0.22329759500074875,3,True
2021-10-30,1.0316178659183417,1.0334241640190867,0.17509372030282133,3,True
2021-10-31,1.0334241640190867,1.0311089352669498,-0.22403470256905367,15,True
2021-11-01,1.0311089352669498,1.0149234836865875,-1.5697130561837302,9,True
2021-11-02,1.0149234836865875,1.02226094113475,0.7229567121168845,3,True
2021-11-03,1.02226094113475,1.01843023835258,-0.3747284698090714,2,True
2021-11-04,1.01843023835258,1.011325170491596,-0.6976489496695715,6,True
2021-11-05,1.011325170491596,0.9969915542959557,-1.4173103383428032,7,True
2021-11-06,0.9969915542959557,0.9951409987195394,-0.1856139671838064,3,True
2021-11-07,0.9951409987195394,0.9951409987195394,0.0,0,False
2021-11-08,0.9951409987195394,0.9951409987195394,0.0,0,False
2021-11-09,0.9951409987195394,1.001600464195351,0.6491005278772777,2,True
2021-11-10,1.001600464195351,1.0352826510839337,3.362836589302276,1,True
2021-11-11,1.0352826510839337,1.0110862861825654,-2.337174768265937,18,True
2021-11-12,1.0110862861825654,0.977512606493452,-3.320555342103737,9,True
2021-11-13,0.977512606493452,0.9776759336000777,0.01670843992607196,1,True
2021-11-14,0.9776759336000777,0.9688369151283004,-0.904084693915852,2,True
2021-11-15,0.9688369151283004,0.9688369151283004,0.0,0,False
2021-11-16,0.9688369151283004,0.9960681366144034,2.8107126246832648,9,True
2021-11-17,0.9960681366144034,0.9856982187261707,-1.0410851935771848,1,True
2021-11-18,0.9856982187261707,0.9742509632011433,-1.1613347074747482,4,True
2021-11-19,0.9742509632011433,0.9857227624781043,1.177499403158655,8,True
2021-11-20,0.9857227624781043,0.9942358892368935,0.8636431137480471,0,True
2021-11-21,0.9942358892368935,0.9874710062260337,-0.680410261195874,3,True
2021-11-22,0.9874710062260337,0.9610761587668928,-2.6729744258535804,11,True
2021-11-23,0.9610761587668928,0.959364930702881,-0.17805332578506583,0,True
2021-11-24,0.959364930702881,0.9463719825707576,-1.3543280264168178,4,True
2021-11-25,0.9463719825707576,0.966233342439772,2.0986842631437908,11,True
2021-11-26,0.966233342439772,0.9236240504422887,-4.409834573695559,16,True
2021-11-27,0.9236240504422887,0.9282805758867252,0.5041580978978111,9,True
2021-11-28,0.9282805758867252,0.8932741734159377,-3.7711014729946424,11,True
2021-11-29,0.8932741734159377,0.8870366512973065,-0.6982763304102413,2,True
2021-11-30,0.8870366512973065,0.8779151610588937,-1.0283104114212738,3,True
2021-12-01,0.8779151610588937,0.8832964305609738,0.6129600832487814,3,True
2021-12-02,0.8832964305609738,0.8857662225664684,0.279610776183703,8,True
2021-12-03,0.8857662225664684,0.8769396242204537,-0.9964929934266453,3,True
2021-12-04,0.8769396242204537,0.8247723403344458,-5.948788542014105,26,True
2021-12-05,0.8247723403344458,0.830595076910934,0.7059810679547196,4,True
2021-12-06,0.830595076910934,0.8184357313755083,-1.4639318090648445,19,True
2021-12-07,0.8184357313755083,0.8187871890671844,0.042942613354068904,1,True
2021-12-08,0.8187871890671844,0.8181351525659175,-0.07963442882022997,4,True
2021-12-09,0.8181351525659175,0.8089583150969907,-1.1216774441417776,4,True
2021-12-10,0.8089583150969907,0.7986567996304574,-1.27342970265385,4,True
2021-12-11,0.7986567996304574,0.7925979480347323,-0.7586301899049297,2,True
2021-12-12,0.7925979480347323,0.7925979480347323,0.0,0,False
2021-12-13,0.7925979480347323,0.787749248954195,-0.6117476196550564,2,True
2021-12-14,0.787749248954195,0.7838239840275291,-0.4982886282502985,1,True
2021-12-15,0.7838239840275291,0.7854036986851863,0.2015394641970758,1,True
2021-12-16,0.7854036986851863,0.785174643113108,-0.029164055690311663,1,True
2021-12-17,0.785174643113108,0.7791101368545442,-0.7723767332219134,5,True
2021-12-18,0.7791101368545442,0.7755335094680872,-0.45906569780964634,3,True
2021-12-19,0.7755335094680872,0.7716836206160878,-0.49641811797919155,1,True
2021-12-20,0.7716836206160878,0.7716836206160878,0.0,0,False
2021-12-21,0.7716836206160878,0.7678421539005517,-0.497803324174384,1,True
2021-12-22,0.7678421539005517,0.762328110186645,-0.7181220366576535,2,True
2021-12-23,0.762328110186645,0.7632790873071907,0.1247464323876013,0,True
2021-12-24,0.7632790873071907,0.7632790873071907,0.0,0,False
2021-12-25,0.7632790873071907,0.7626487592287317,-0.08258159943603793,2,True
2021-12-26,0.7626487592287317,0.7619365226743539,-0.0933898528987398,0,True
2021-12-27,0.7619365226743539,0.7619365226743539,0.0,0,False
2021-12-28,0.7619365226743539,0.760451109627585,-0.1949523356033822,1,True
2021-12-29,0.760451109627585,0.760451109627585,0.0,0,False
2021-12-30,0.760451109627585,0.760451109627585,0.0,0,False
2021-12-31,0.760451109627585,0.760451109627585,0.0,0,False
2022-01-01,0.760451109627585,0.760451109627585,0.0,0,False
2022-01-02,0.760451109627585,0.760451109627585,0.0,0,False
2022-01-03,0.760451109627585,0.760451109627585,0.0,0,False
2022-01-04,0.760451109627585,0.760451109627585,0.0,0,False
2022-01-05,0.760451109627585,0.7622343027002803,0.23449148145349152,1,True
2022-01-06,0.7622343027002803,0.7275611495097402,-4.5488838625744705,15,True
2022-01-07,0.7275611495097402,0.7162050899405265,-1.560839192261143,5,True
2022-01-08,0.7162050899405265,0.7162050899405265,0.0,0,False
2022-01-09,0.7162050899405265,0.7152571649173101,-0.13235385178498316,1,True
2022-01-10,0.7152571649173101,0.7152571649173101,0.0,0,False
2022-01-11,0.7152571649173101,0.7152571649173101,0.0,0,False
2022-01-12,0.7152571649173101,0.7152571649173101,0.0,0,False
2022-01-13,0.7152571649173101,0.7152571649173101,0.0,0,False
2022-01-14,0.7152571649173101,0.7152571649173101,0.0,0,False
2022-01-15,0.7152571649173101,0.7159209658361945,0.09280590974032332,1,True
2022-01-16,0.7159209658361945,0.7153044295545022,-0.08611792517797534,0,True
2022-01-17,0.7153044295545022,0.7201558177792782,0.6782270630977916,1,True
2022-01-18,0.7201558177792782,0.7201558177792782,0.0,0,False
2022-01-19,0.7201558177792782,0.7165686227055781,-0.4981137394351465,1,True
2022-01-20,0.7165686227055781,0.7165686227055781,0.0,0,False
2022-01-21,0.7165686227055781,0.6914854874976483,-3.5004512356712425,9,True
2022-01-22,0.6914854874976483,0.661106037975986,-4.393360391640266,25,True
2022-01-23,0.661106037975986,0.6593548811881643,-0.2648828912806378,0,True
2022-01-24,0.6593548811881643,0.6522963376445455,-1.0705226798198852,6,True
2022-01-25,0.6522963376445455,0.6639822321234579,1.7915008569740376,0,True
2022-01-26,0.6639822321234579,0.6650708628601493,0.16395479939423918,1,True
2022-01-27,0.6650708628601493,0.6630777523565665,-0.29968393067338894,14,True
2022-01-28,0.6630777523565665,0.6592977996663187,-0.5700617577371392,0,True
2022-01-29,0.6592977996663187,0.6592977996663187,0.0,0,False
2022-01-30,0.6592977996663187,0.660526273209373,0.1863305995675857,1,True
2022-01-31,0.660526273209373,0.6582262992088754,-0.3482032575816252,2,True
2022-02-01,0.6582262992088754,0.6549441293747108,-0.49863851354913225,1,True
2022-02-02,0.6549441293747108,0.6571106245461853,0.3307908376158686,1,True
2022-02-03,0.6571106245461853,0.6597001068841012,0.39407098914345795,4,True
2022-02-04,0.6597001068841012,0.662355976080223,0.4025873527087942,1,True
2022-02-05,0.662355976080223,0.662355976080223,0.0,0,False
2022-02-06,0.662355976080223,0.662355976080223,0.0,0,False
2022-02-07,0.662355976080223,0.662355976080223,0.0,0,False
2022-02-08,0.662355976080223,0.6568602839829448,-0.829718806162405,3,True
2022-02-09,0.6568602839829448,0.657496751813503,0.09689546560782691,2,True
2022-02-10,0.657496751813503,0.6699310593964122,1.891158784984559,5,True
2022-02-11,0.6699310593964122,0.6688907144216922,-0.15529134828549118,0,True
2022-02-12,0.6688907144216922,0.6523352981330928,-2.4750554809110925,5,True
2022-02-13,0.6523352981330928,0.6523352981330928,0.0,0,False
2022-02-14,0.6523352981330928,0.6523352981330928,0.0,0,False
2022-02-15,0.6523352981330928,0.6523352981330928,0.0,0,False
2022-02-16,0.6523352981330928,0.6523352981330928,0.0,0,False
2022-02-17,0.6523352981330928,0.6523352981330928,0.0,0,False
2022-02-18,0.6523352981330928,0.6523352981330928,0.0,0,False
2022-02-19,0.6523352981330928,0.6523352981330928,0.0,0,False
2022-02-20,0.6523352981330928,0.6523352981330928,0.0,0,False
2022-02-21,0.6523352981330928,0.6523352981330928,0.0,0,False
2022-02-22,0.6523352981330928,0.6484558110548582,-0.5947075207086372,2,True
2022-02-23,0.6484558110548582,0.6484558110548582,0.0,0,False
2022-02-24,0.6484558110548582,0.629069204293354,-2.9896573414875394,11,True
2022-02-25,0.629069204293354,0.6409329538994573,1.8859212190223351,0,True
2022-02-26,0.6409329538994573,0.6409329538994573,0.0,0,False
2022-02-27,0.6409329538994573,0.6409329538994573,0.0,0,False
2022-02-28,0.6409329538994573,0.6356981999427571,-0.8167397112056274,2,True
2022-03-01,0.6356981999427571,0.6356981999427571,0.0,0,False
2022-03-02,0.6356981999427571,0.6356981999427571,0.0,0,False
2022-03-03,0.6356981999427571,0.6356981999427571,0.0,0,False
2022-03-04,0.6356981999427571,0.6359582107338214,0.04090160882754823,3,True
2022-03-05,0.6359582107338214,0.634945094837837,-0.15930541958336653,3,True
2022-03-06,0.634945094837837,0.631943013415261,-0.4728096093635781,4,True
2022-03-07,0.631943013415261,0.6317233073773489,-0.034766748464343245,0,True
2022-03-08,0.6317233073773489,0.6285816410645473,-0.49731682781256614,1,True
2022-03-09,0.6285816410645473,0.6325493487195599,0.6312159623836688,2,True
2022-03-10,0.6325493487195599,0.629332541647175,-0.5085464207490786,4,True
2022-03-11,0.629332541647175,0.6283710219545598,-0.15278404166079174,2,True
2022-03-12,0.6283710219545598,0.6283710219545598,0.0,0,False
2022-03-13,0.6283710219545598,0.6283710219545598,0.0,0,False
2022-03-14,0.6283710219545598,0.6254524781552571,-0.4644618700309522,1,True
2022-03-15,0.6254524781552571,0.6267264803403592,0.20369288308836886,1,True
2022-03-16,0.6267264803403592,0.6295857598613357,0.45622446324968813,1,True
2022-03-17,0.6295857598613357,0.6265571271474346,-0.4810516544351495,1,True
2022-03-18,0.6265571271474346,0.6262072381540973,-0.055843111214815,0,True
2022-03-19,0.6262072381540973,0.6262072381540973,0.0,0,False
2022-03-20,0.6262072381540973,0.6221766344502823,-0.6436533240491205,4,True
2022-03-21,0.6221766344502823,0.6287014438530362,1.048706917211506,4,True
2022-03-22,0.6287014438530362,0.6287014438530362,0.0,0,False
2022-03-23,0.6287014438530362,0.6280825795290716,-0.09843532729489901,2,True
2022-03-24,0.6280825795290716,0.6266919208332983,-0.22141335249515892,0,True
2022-03-25,0.6266919208332983,0.6266919208332983,0.0,0,False
2022-03-26,0.6266919208332983,0.6284251083006175,0.2765613229885888,1,True
2022-03-27,0.6284251083006175,0.6319700480019592,0.5640989919909467,2,True
2022-03-28,0.6319700480019592,0.630597705911531,-0.21715302723080976,5,True
2022-03-29,0.630597705911531,0.6313203424526743,0.1145954916056624,1,True
2022-03-30,0.6313203424526743,0.6297356112158877,-0.2510185606612869,7,True
2022-03-31,0.6297356112158877,0.6284552926395658,-0.2033104930893037,8,True
2022-04-01,0.6284552926395658,0.6128323045887767,-2.4859346772578284,15,True
2022-04-02,0.6128323045887767,0.6149015926795588,0.3376597603108822,2,True
2022-04-03,0.6149015926795588,0.6110296905637487,-0.6296783358354152,3,True
2022-04-04,0.6110296905637487,0.6037750757562894,-1.1872769718875742,3,True
2022-04-05,0.6037750757562894,0.6005682178104766,-0.5311345357865038,8,True
2022-04-06,0.6005682178104766,0.5910173176914068,-1.590310615152113,16,True
2022-04-07,0.5910173176914068,0.5900129818528894,-0.16993340270305968,3,True
2022-04-08,0.5900129818528894,0.5883680893073799,-0.278789212458308,0,True
2022-04-09,0.5883680893073799,0.5874161428205624,-0.1617943773834063,1,True
2022-04-10,0.5874161428205624,0.5874161428205624,0.0,0,False
2022-04-11,0.5874161428205624,0.5773518003770417,-1.713324117242565,7,True
2022-04-12,0.5773518003770417,0.5767156245226983,-0.11018859799656333,1,True
2022-04-13,0.5767156245226983,0.5778692118674875,0.2000270663282233,2,True
2022-04-14,0.5778692118674875,0.5778692118674875,0.0,0,False
2022-04-15,0.5778692118674875,0.5801301800559995,0.391259499914387,1,True
2022-04-16,0.5801301800559995,0.5801301800559995,0.0,0,False
2022-04-17,0.5801301800559995,0.582539643530548,0.41533151650823275,1,True
2022-04-18,0.582539643530548,0.5869911538789339,0.764155778550446,9,True
2022-04-19,0.5869911538789339,0.5874633559892956,0.08044450197268738,2,True
2022-04-20,0.5874633559892956,0.590888228835068,0.5829934430556794,1,True
2022-04-21,0.590888228835068,0.5880569275922759,-0.47916020401590487,5,True
2022-04-22,0.5880569275922759,0.5829512780795363,-0.8682236826363154,2,True
2022-04-23,0.5829512780795363,0.5769713279577461,-1.0258061602490098,2,True
2022-04-24,0.5769713279577461,0.5769713279577461,0.0,0,False
2022-04-25,0.5769713279577461,0.5774224655220034,0.07819063832064099,3,True
2022-04-26,0.5774224655220034,0.5727260787646288,-0.8133363417249351,2,True
2022-04-27,0.5727260787646288,0.5690584288350192,-0.6403846560507076,1,True
2022-04-28,0.5690584288350192,0.5706616236935269,0.28172763591074457,1,True
2022-04-29,0.5706616236935269,0.5644890764674527,-1.081647506997796,4,True
2022-04-30,0.5644890764674527,0.5668727552003328,0.4222718972344053,5,True
2022-05-01,0.5668727552003328,0.571038890669224,0.7349330922455266,10,True
2022-05-02,0.571038890669224,0.5719913368797871,0.16679182909011825,1,True
2022-05-03,0.5719913368797871,0.5674768445854669,-0.7892588581755011,3,True
2022-05-04,0.5674768445854669,0.5618330384116712,-0.994543870405562,2,True
2022-05-05,0.5618330384116712,0.5618330384116712,0.0,0,False
2022-05-06,0.5618330384116712,0.5353289624129309,-4.717429233721915,13,True
2022-05-07,0.5353289624129309,0.5312990418470291,-0.752793300728094,2,True
2022-05-08,0.5312990418470291,0.5273308143674873,-0.7468915181451319,3,True
2022-05-09,0.5273308143674873,0.5196522223370695,-1.4561242812309305,5,True
2022-05-10,0.5196522223370695,0.5183217685205403,-0.2560277353468532,26,True
2022-05-11,0.5183217685205403,0.5034364360287087,-2.8718324013902174,44,True
2022-05-12,0.5034364360287087,0.4628538998891384,-8.061104289490896,35,True
2022-05-13,0.4628538998891384,0.4843120073327372,4.636043349475605,13,True
2022-05-14,0.4843120073327372,0.4641038331371462,-4.172552794402917,20,True
2022-05-15,0.4641038331371462,0.4720399504233937,1.7099874466889542,4,True
2022-05-16,0.4720399504233937,0.4742175978379023,0.4613269306031009,13,True
2022-05-17,0.4742175978379023,0.47352164420339227,-0.14675828937666946,4,True
2022-05-18,0.47352164420339227,0.46574103829037516,-1.6431362765067403,2,True
2022-05-19,0.46574103829037516,0.4647212062294376,-0.21896976583406502,9,True
2022-05-20,0.4647212062294376,0.4624637181484661,-0.4857725558271464,2,True
2022-05-21,0.4624637181484661,0.4624637181484661,0.0,0,False
2022-05-22,0.4624637181484661,0.4618241120832638,-0.1383040528591173,1,True
2022-05-23,0.4618241120832638,0.46276800910803817,0.20438452650652916,4,True
2022-05-24,0.46276800910803817,0.45005889325906234,-2.746325501944702,19,True
2022-05-25,0.45005889325906234,0.44908827586010136,-0.21566453046452105,1,True
2022-05-26,0.44908827586010136,0.44931371895382344,0.050200173516068425,14,True
2022-05-27,0.44931371895382344,0.4393117909183362,-2.2260455475910157,6,True
2022-05-28,0.4393117909183362,0.4392422608345317,-0.015827047040817277,1,True
2022-05-29,0.4392422608345317,0.44547431207796173,1.4188186791474822,4,True
2022-05-30,0.44547431207796173,0.44547431207796173,0.0,0,False
2022-05-31,0.44547431207796173,0.4415595684663298,-0.8787809993737183,13,True
2022-06-01,0.4415595684663298,0.44320819407028283,0.3733642574385021,6,True
2022-06-02,0.44320819407028283,0.4359719536171721,-1.632695548034746,12,True
2022-06-03,0.4359719536171721,0.4358168897492547,-0.03556739524891439,0,True
2022-06-04,0.4358168897492547,0.4358168897492547,0.0,0,False
2022-06-05,0.4358168897492547,0.4358168897492547,0.0,0,False
2022-06-06,0.4358168897492547,0.43761049755849746,0.41155078002477197,1,True
2022-06-07,0.43761049755849746,0.4290391139344987,-1.9586787044232223,5,True
2022-06-08,0.4290391139344987,0.4308338468823584,0.4183145288086054,9,True
2022-06-09,0.4308338468823584,0.4324423376911686,0.3733436498663423,8,True
2022-06-10,0.4324423376911686,0.43255147252858617,0.02523685307971313,8,True
2022-06-11,0.43255147252858617,0.41648390055620205,-3.7146034617469126,10,True
2022-06-12,0.41648390055620205,0.40320897990987975,-3.187379062814677,19,True
2022-06-13,0.40320897990987975,0.38788976046394297,-3.7993249677526375,19,True
2022-06-14,0.38788976046394297,0.392224906123843,1.1176231243420487,16,True
2022-06-15,0.392224906123843,0.3894737430103398,-0.7014248892788233,12,True
2022-06-16,0.3894737430103398,0.39866969027282195,2.3611212379567315,13,True
2022-06-17,0.39866969027282195,0.3978755175935928,-0.19920568295164198,2,True
2022-06-18,0.3978755175935928,0.3925631366305504,-1.3351866923535294,9,True
2022-06-19,0.3925631366305504,0.3898091025293636,-0.7015518891623995,4,True
2022-06-20,0.3898091025293636,0.39117047299532676,0.3492402966297048,2,True
2022-06-21,0.39117047299532676,0.39470920950397814,0.9046532785447869,1,True
2022-06-22,0.39470920950397814,0.39380717583700064,-0.22853119340972006,9,True
2022-06-23,0.39380717583700064,0.3903621205427169,-0.8748076484288547,2,True
2022-06-24,0.3903621205427169,0.3872438502263892,-0.7988147804895651,2,True
2022-06-25,0.3872438502263892,0.3895113828664602,0.5855567851485333,4,True
2022-06-26,0.3895113828664602,0.3882041782178975,-0.3356011418569671,0,True
2022-06-27,0.3882041782178975,0.38656154193730763,-0.42313719757747226,5,True
2022-06-28,0.38656154193730763,0.3834872031469686,-0.7953038408662017,4,True
2022-06-29,0.3834872031469686,0.3761370317460524,-1.9166666685613731,5,True
2022-06-30,0.3761370317460524,0.3726331644308175,-0.9315401089251218,4,True
2022-07-01,0.3726331644308175,0.3754003702225161,0.7426085640888536,1,True
2022-07-02,0.3754003702225161,0.37617802384283355,0.20715313089769705,2,True
2022-07-03,0.37617802384283355,0.3742743626237776,-0.5060532775437387,3,True
2022-07-04,0.3742743626237776,0.3752376124042706,0.25736461715955006,0,True
2022-07-05,0.3752376124042706,0.37553995702907716,0.08057417881681683,1,True
2022-07-06,0.37553995702907716,0.37828166761927756,0.7300716046010791,0,True
2022-07-07,0.37828166761927756,0.37828166761927756,0.0,0,False
2022-07-08,0.37828166761927756,0.37828166761927756,0.0,0,False
2022-07-09,0.37828166761927756,0.37828166761927756,0.0,0,False
2022-07-10,0.37828166761927756,0.37828166761927756,0.0,0,False
2022-07-11,0.37828166761927756,0.37639928229767583,-0.49761473598457506,1,True
2022-07-12,0.37639928229767583,0.3758551435586348,-0.14456423394842988,2,True
2022-07-13,0.3758551435586348,0.38257213679612345,1.7871228723628674,5,True
2022-07-14,0.38257213679612345,0.39229372930278744,2.5411135761423065,0,True
2022-07-15,0.39229372930278744,0.39229372930278744,0.0,0,False
2022-07-16,0.39229372930278744,0.39229372930278744,0.0,0,False
2022-07-17,0.39229372930278744,0.39229372930278744,0.0,0,False
2022-07-18,0.39229372930278744,0.3924403724043165,0.03738094457683694,1,True
2022-07-19,0.3924403724043165,0.3888002758393266,-0.9275540492148071,4,True
2022-07-20,0.3888002758393266,0.3876490474596342,-0.2960976242126323,3,True
2022-07-21,0.3876490474596342,0.3875188829492864,-0.03357792601343945,8,True
2022-07-22,0.3875188829492864,0.3875188829492864,0.0,0,False
2022-07-23,0.3875188829492864,0.38970003100019174,0.562849488599193,3,True
2022-07-24,0.38970003100019174,0.39231582572432977,0.67123287555928,3,True
2022-07-25,0.39231582572432977,0.39234915591946345,0.00849575595687213,1,True
2022-07-26,0.39234915591946345,0.3916286400135455,-0.18364150783742872,1,True
2022-07-27,0.3916286400135455,0.39278895682498854,0.29627986640683446,1,True
2022-07-28,0.39278895682498854,0.39278895682498854,0.0,0,False
2022-07-29,0.39278895682498854,0.39070031767181973,-0.5317458948061571,6,True
2022-07-30,0.39070031767181973,0.3928251384685603,0.5438492626272717,2,True
2022-07-31,0.3928251384685603,0.38733074084176405,-1.3986878864770014,6,True
2022-08-01,0.38733074084176405,0.3867234012499022,-0.15680128836197404,2,True
2022-08-02,0.3867234012499022,0.3781874909125523,-2.2072391558828675,8,True
2022-08-03,0.3781874909125523,0.38089052394185097,0.7147335896214635,2,True
2022-08-04,0.38089052394185097,0.38014960422735106,-0.19452301066251731,0,True
2022-08-05,0.38014960422735106,0.384760652152523,1.2129561293490854,2,True
2022-08-06,0.384760652152523,0.384760652152523,0.0,0,False
2022-08-07,0.384760652152523,0.3841772301470675,-0.15163245050956453,2,True
2022-08-08,0.3841772301470675,0.3841772301470675,0.0,0,False
2022-08-09,0.3841772301470675,0.3839050111776894,-0.07085765319144732,7,True
2022-08-10,0.3839050111776894,0.3840345645446866,0.0337462036767322,2,True
2022-08-11,0.3840345645446866,0.38523083853150814,0.31150164523336965,3,True
2022-08-12,0.38523083853150814,0.3834482559910223,-0.46273100753849716,5,True
2022-08-13,0.3834482559910223,0.38200577730583524,-0.37618600753808185,0,True
2022-08-14,0.38200577730583524,0.38200577730583524,0.0,0,False
2022-08-15,0.38200577730583524,0.38205874037558163,0.013864468260127438,1,True
2022-08-16,0.38205874037558163,0.3775533388660125,-1.1792431459989872,3,True
2022-08-17,0.3775533388660125,0.37567655321665794,-0.49709152486679953,1,True
2022-08-18,0.37567655321665794,0.3738074130968746,-0.4975397329908371,1,True
2022-08-19,0.3738074130968746,0.36149739260611913,-3.2931450954305275,12,True
2022-08-20,0.36149739260611913,0.36101033547154326,-0.13473323585118102,2,True
2022-08-21,0.36101033547154326,0.36153888630811115,0.14640878241822808,1,True
2022-08-22,0.36153888630811115,0.3614108118886779,-0.03542479779730101,0,True
2022-08-23,0.3614108118886779,0.3614108118886779,0.0,0,False
2022-08-24,0.3614108118886779,0.3614108118886779,0.0,0,False
2022-08-25,0.3614108118886779,0.360043550436044,-0.37831227170233017,1,True
2022-08-26,0.360043550436044,0.3612664448213183,0.3396517959544765,1,True
2022-08-27,0.3612664448213183,0.3540372618507664,-2.001066823166331,7,True
2022-08-28,0.3540372618507664,0.3544221790090974,0.10872221650308767,1,True
2022-08-29,0.3544221790090974,0.3544529848671725,0.00869185392440297,2,True
2022-08-30,0.3544529848671725,0.3526924661582768,-0.4966861005714085,1,True
2022-08-31,0.3526924661582768,0.35203737701031046,-0.1857394786744293,2,True
2022-09-01,0.35203737701031046,0.3490633590798617,-0.8448017525030216,2,True
2022-09-02,0.3490633590798617,0.3490633590798617,0.0,0,False
2022-09-03,0.3490633590798617,0.3490633590798617,0.0,0,False
2022-09-04,0.3490633590798617,0.3490633590798617,0.0,0,False
2022-09-05,0.3490633590798617,0.3490633590798617,0.0,0,False
2022-09-06,0.3490633590798617,0.3473268681438252,-0.49747155949393385,1,True
2022-09-07,0.3473268681438252,0.342161869875846,-1.487071327243361,5,True
2022-09-08,0.342161869875846,0.34174985563094346,-0.12041500856073695,2,True
2022-09-09,0.34174985563094346,0.34174985563094346,0.0,0,False
2022-09-10,0.34174985563094346,0.3423058053550498,0.162677383748977,2,True
2022-09-11,0.3423058053550498,0.3460158658431992,1.0838438700451647,0,True
2022-09-12,0.3460158658431992,0.3460158658431992,0.0,0,False
2022-09-13,0.3460158658431992,0.3393150203808202,-1.9365717366889745,8,True
2022-09-14,0.3393150203808202,0.3443395167117527,1.480776278425111,5,True
2022-09-15,0.3443395167117527,0.34010387254035385,-1.2300778638034027,4,True
2022-09-16,0.34010387254035385,0.3400135310431181,-0.026562913430228097,3,True
2022-09-17,0.3400135310431181,0.33832147223702574,-0.497644549880516,1,True
2022-09-18,0.33832147223702574,0.33832147223702574,0.0,0,False
2022-09-19,0.33832147223702574,0.34335139201601605,1.486727917602093,11,True
2022-09-20,0.34335139201601605,0.343007832193413,-0.10006070474500861,0,True
2022-09-21,0.343007832193413,0.343007832193413,0.0,0,False
2022-09-22,0.343007832193413,0.3453267658921693,0.6760585272725494,2,True
2022-09-23,0.3453267658921693,0.34260565744935717,-0.7879807508641923,3,True
2022-09-24,0.34260565744935717,0.34260565744935717,0.0,0,False
2022-09-25,0.34260565744935717,0.34260565744935717,0.0,0,False
2022-09-26,0.34260565744935717,0.34260565744935717,0.0,0,False
2022-09-27,0.34260565744935717,0.34260565744935717,0.0,0,False
2022-09-28,0.34260565744935717,0.34260565744935717,0.0,0,False
2022-09-29,0.34260565744935717,0.34260565744935717,0.0,0,False
2022-09-30,0.34260565744935717,0.3411636622959964,-0.42089064264034803,1,True
2022-10-01,0.3411636622959964,0.3411636622959964,0.0,0,False
2022-10-02,0.3411636622959964,0.3411636622959964,0.0,0,False
2022-10-03,0.3411636622959964,0.3411636622959964,0.0,0,False
2022-10-04,0.3411636622959964,0.3411636622959964,0.0,0,False
2022-10-05,0.3411636622959964,0.3411636622959964,0.0,0,False
2022-10-06,0.3411636622959964,0.3411636622959964,0.0,0,False
2022-10-07,0.3411636622959964,0.3411636622959964,0.0,0,False
2022-10-08,0.3411636622959964,0.3401929037282869,-0.2845433658368979,1,True
2022-10-09,0.3401929037282869,0.3401929037282869,0.0,0,False
2022-10-10,0.3401929037282869,0.33816509900441233,-0.5960749626612416,2,True
2022-10-11,0.33816509900441233,0.3423216612389595,1.2291517506639371,6,True
2022-10-12,0.3423216612389595,0.340398854000984,-0.5616960466411358,2,True
2022-10-13,0.340398854000984,0.34006494148779715,-0.0980944880577983,1,True
2022-10-14,0.34006494148779715,0.34006494148779715,0.0,0,False
2022-10-15,0.34006494148779715,0.34006494148779715,0.0,0,False
2022-10-16,0.34006494148779715,0.34006494148779715,0.0,0,False
2022-10-17,0.34006494148779715,0.34006494148779715,0.0,0,False
2022-10-18,0.34006494148779715,0.34006494148779715,0.0,0,False
2022-10-19,0.34006494148779715,0.34006494148779715,0.0,0,False
2022-10-20,0.34006494148779715,0.34328078517277355,0.9456557535472365,2,True
2022-10-21,0.34328078517277355,0.3428766395862577,-0.11773032571935627,0,True
2022-10-22,0.3428766395862577,0.3428766395862577,0.0,0,False
2022-10-23,0.3428766395862577,0.3428766395862577,0.0,0,False
2022-10-24,0.3428766395862577,0.3428766395862577,0.0,0,False
2022-10-25,0.3428766395862577,0.34168917408492666,-0.34632441065799435,2,True
2022-10-26,0.34168917408492666,0.34168917408492666,0.0,0,False
2022-10-27,0.34168917408492666,0.34168917408492666,0.0,0,False
2022-10-28,0.34168917408492666,0.340390981274062,-0.37993384318989465,1,True
2022-10-29,0.340390981274062,0.340390981274062,0.0,0,False
2022-10-30,0.340390981274062,0.33635490802336043,-1.1857168587706912,8,True
2022-10-31,0.33635490802336043,0.33782160334411454,0.43605587008477276,4,True
2022-11-01,0.33782160334411454,0.3353785573120815,-0.723176377072754,1,True
2022-11-02,0.3353785573120815,0.3401427368047752,1.4205378933216828,3,True
2022-11-03,0.3401427368047752,0.34715866142397367,2.0626413149680944,8,True
2022-11-04,0.34715866142397367,0.34870217963327144,0.4446146332534484,15,True
2022-11-05,0.34870217963327144,0.34064528809295824,-2.3105366157408547,8,True
2022-11-06,0.34064528809295824,0.3388823511973671,-0.5175286308701454,2,True
2022-11-07,0.3388823511973671,0.3354836813353276,-1.002905536399601,9,True
2022-11-08,0.3354836813353276,0.32656258755736833,-2.6591736869139404,16,True
2022-11-09,0.32656258755736833,0.2960552190286018,-9.34196680549243,36,True
2022-11-10,0.2960552190286018,0.29823979920384025,0.7378961878822254,22,True
2022-11-11,0.29823979920384025,0.3048306450653952,2.2099149339388724,18,True
2022-11-12,0.3048306450653952,0.30013953712839825,-1.538922681474686,12,True
2022-11-13,0.30013953712839825,0.29841764754381583,-0.5736963550542873,3,True
2022-11-14,0.29841764754381583,0.28860915376099316,-3.2868343623620677,12,True
2022-11-15,0.28860915376099316,0.2882290010234037,-0.13171887746300515,3,True
2022-11-16,0.2882290010234037,0.2870396700058538,-0.41263405602038894,2,True
2022-11-17,0.2870396700058538,0.28599200402110286,-0.3649899627913955,3,True
2022-11-18,0.28599200402110286,0.28695001452018093,0.33497807127760293,0,True
2022-11-19,0.28695001452018093,0.2873856424744598,0.15181318426042978,3,True
2022-11-20,0.2873856424744598,0.28623124314280274,-0.40168998065366335,3,True
2022-11-21,0.28623124314280274,0.275219021386982,-3.84731646863814,10,True
2022-11-22,0.275219021386982,0.2812742100193825,2.2001344972033765,5,True
2022-11-23,0.2812742100193825,0.2865352811882131,1.8704420744682038,1,True
2022-11-24,0.2865352811882131,0.2844034927718661,-0.7439881076797272,2,True
2022-11-25,0.2844034927718661,0.28291124251333855,-0.5246947721997852,3,True
2022-11-26,0.28291124251333855,0.28291124251333855,0.0,0,False
2022-11-27,0.28291124251333855,0.28291124251333855,0.0,0,False
2022-11-28,0.28291124251333855,0.27614586979097955,-2.3913410659316736,8,True
2022-11-29,0.27614586979097955,0.27614586979097955,0.0,0,False
2022-11-30,0.27614586979097955,0.27614586979097955,0.0,0,False
2022-12-01,0.27614586979097955,0.27634794441011507,0.07317676678939566,2,True
2022-12-02,0.27634794441011507,0.2763739215163494,0.009400144549576162,2,True
2022-12-03,0.2763739215163494,0.2763739215163494,0.0,0,False
2022-12-04,0.2763739215163494,0.27467189499629835,-0.6158419400472792,3,True
2022-12-05,0.27467189499629835,0.2773288030501113,0.9673024806009956,2,True
2022-12-06,0.2773288030501113,0.27815236902805407,0.2969637372263634,2,True
2022-12-07,0.27815236902805407,0.2780385970507433,-0.040902753303284634,2,True
2022-12-08,0.2780385970507433,0.27408665459190995,-1.4213646956764414,2,True
2022-12-09,0.27408665459190995,0.27408665459190995,0.0,0,False
2022-12-10,0.27408665459190995,0.27408665459190995,0.0,0,False
2022-12-11,0.27408665459190995,0.27408665459190995,0.0,0,False
2022-12-12,0.27408665459190995,0.2734417005633678,-0.23531026328239557,1,True
2022-12-13,0.2734417005633678,0.27384972822890374,0.14921925393795998,1,True
2022-12-14,0.27384972822890374,0.27384972822890374,0.0,0,False
2022-12-15,0.27384972822890374,0.27384972822890374,0.0,0,False
2022-12-16,0.27384972822890374,0.27227157575462874,-0.5762841119038353,5,True
2022-12-17,0.27227157575462874,0.2731248599581781,0.3133945220628931,7,True
2022-12-18,0.2731248599581781,0.2731248599581781,0.0,0,False
2022-12-19,0.2731248599581781,0.27176489336570436,-0.4979285271512701,1,True
2022-12-20,0.27176489336570436,0.27176489336570436,0.0,0,False
2022-12-21,0.27176489336570436,0.27176489336570436,0.0,0,False
2022-12-22,0.27176489336570436,0.27176489336570436,0.0,0,False
2022-12-23,0.27176489336570436,0.27176489336570436,0.0,0,False
2022-12-24,0.27176489336570436,0.27176489336570436,0.0,0,False
2022-12-25,0.27176489336570436,0.27176489336570436,0.0,0,False
2022-12-26,0.27176489336570436,0.27176489336570436,0.0,0,False
2022-12-27,0.27176489336570436,0.27176489336570436,0.0,0,False
2022-12-28,0.27176489336570436,0.27282102445416156,0.38861939648546784,4,True
2022-12-29,0.27282102445416156,0.27183142683774525,-0.3627277693851627,0,True
2022-12-30,0.27183142683774525,0.27565767559011295,1.407581454756368,1,True
2022-12-31,0.27565767559011295,0.27565767559011295,0.0,0,False
2023-01-01,0.27565767559011295,0.27565767559011295,0.0,0,False
2023-01-02,0.27565767559011295,0.27580582053041225,0.05374235996953303,1,True
2023-01-03,0.27580582053041225,0.27584201882655573,0.013124558457056068,0,True
2023-01-04,0.27584201882655573,0.27584201882655573,0.0,0,False
2023-01-05,0.27584201882655573,0.27584201882655573,0.0,0,False
2023-01-06,0.27584201882655573,0.2754026818939023,-0.15927121419803125,1,True
2023-01-07,0.2754026818939023,0.2752123323397486,-0.06911681209663678,0,True
2023-01-08,0.2752123323397486,0.2752123323397486,0.0,0,False
2023-01-09,0.2752123323397486,0.2750999427142379,-0.04083742343784502,1,True
2023-01-10,0.2750999427142379,0.2707012127659976,-1.5989570571483092,7,True
2023-01-11,0.2707012127659976,0.2684990204537254,-0.8135140178244571,3,True
2023-01-12,0.2684990204537254,0.2684990204537254,0.0,0,False
2023-01-13,0.2684990204537254,0.26839217177665114,-0.0397948107571211,1,True
2023-01-14,0.26839217177665114,0.26492278729954377,-1.2926548692316242,6,True
2023-01-15,0.26492278729954377,0.26388303496579746,-0.3924737257768207,4,True
2023-01-16,0.26388303496579746,0.26439770098676324,0.19503566079286383,2,True
2023-01-17,0.26439770098676324,0.26339587781996976,-0.37890766941413023,0,True
2023-01-18,0.26339587781996976,0.26339587781996976,0.0,0,False
2023-01-19,0.26339587781996976,0.2581726389917451,-1.9830374231576742,9,True
2023-01-20,0.2581726389917451,0.2581726389917451,0.0,0,False
2023-01-21,0.2581726389917451,0.2582766815963933,0.040299624721851224,4,True
2023-01-22,0.2582766815963933,0.26039087883384043,0.818578442459228,2,True
2023-01-23,0.26039087883384043,0.25866017274056546,-0.6646569576576278,2,True
2023-01-24,0.25866017274056546,0.25845384458982706,-0.0797680402639167,4,True
2023-01-25,0.25845384458982706,0.25428088438290924,-1.614586238227722,11,True
2023-01-26,0.25428088438290924,0.2541009976544618,-0.07074331555987357,4,True
2023-01-27,0.2541009976544618,0.25330979682247334,-0.3113725799157918,3,True
2023-01-28,0.25330979682247334,0.2528615287240303,-0.1769643748746219,0,True
2023-01-29,0.2528615287240303,0.2518327812789663,-0.40684221528485276,1,True
2023-01-30,0.2518327812789663,0.2513841994070415,-0.17812687833832497,5,True
2023-01-31,0.2513841994070415,0.2524222555353835,0.4129361076752547,6,True
2023-02-01,0.2524222555353835,0.25051837178841474,-0.7542455965028338,2,True
2023-02-02,0.25051837178841474,0.25051837178841474,0.0,0,False
2023-02-03,0.25051837178841474,0.24882599669077413,-0.6755492962687737,4,True
2023-02-04,0.24882599669077413,0.24882599669077413,0.0,0,False
2023-02-05,0.24882599669077413,0.2502455202132577,0.5704884302132118,6,True
2023-02-06,0.2502455202132577,0.24385891789275052,-2.552134525750771,3,True
2023-02-07,0.24385891789275052,0.2434243053079941,-0.17822296125645787,0,True
2023-02-08,0.2434243053079941,0.23992654930444682,-1.4368967795232002,5,True
2023-02-09,0.23992654930444682,0.2346672800450559,-2.1920330512140707,10,True
2023-02-10,0.2346672800450559,0.23130385255144978,-1.4332750151449969,11,True
2023-02-11,0.23130385255144978,0.23251606742865402,0.5240789826164383,4,True
2023-02-12,0.23251606742865402,0.23054036583353005,-0.8497054061565867,2,True
2023-02-13,0.23054036583353005,0.23342480023480083,1.2511624117719888,3,True
2023-02-14,0.23342480023480083,0.23314279252020587,-0.1208130902591753,1,True
2023-02-15,0.23314279252020587,0.23341723275159057,0.11771336716785985,0,True
2023-02-16,0.23341723275159057,0.23341723275159057,0.0,0,False
2023-02-17,0.23341723275159057,0.23372794324094354,0.13311377471587615,1,True
2023-02-18,0.23372794324094354,0.23321199746987242,-0.2207462932830584,1,True
2023-02-19,0.23321199746987242,0.23363221167100084,0.18018549889686764,2,True
2023-02-20,0.23363221167100084,0.23129398221423203,-1.0008163857394337,6,True
2023-02-21,0.23129398221423203,0.22584788729394834,-2.3546202405038574,10,True
2023-02-22,0.22584788729394834,0.22182391818361144,-1.781716516612608,6,True
2023-02-23,0.22182391818361144,0.2248233398945453,1.3521633444645742,2,True
2023-02-24,0.2248233398945453,0.22345999589935822,-0.6064067884707036,1,True
2023-02-25,0.22345999589935822,0.22074090074142844,-1.2168151829531126,3,True
2023-02-26,0.22074090074142844,0.22012340618447981,-0.27973726431058665,2,True
2023-02-27,0.22012340618447981,0.2190245203200208,-0.4992135473035897,1,True
2023-02-28,0.2190245203200208,0.21729748207437097,-0.7885136527756909,3,True
2023-03-01,0.21729748207437097,0.21640330802370422,-0.4114976584775665,1,True
2023-03-02,0.21640330802370422,0.21619748093291402,-0.09511272848363728,1,True
2023-03-03,0.21619748093291402,0.21541542342352865,-0.3617329424980831,9,True
2023-03-04,0.21541542342352865,0.2151497117342515,-0.12334849801109993,0,True
2023-03-05,0.2151497117342515,0.21687692856257385,0.8027976493204747,4,True
2023-03-06,0.21687692856257385,0.21687692856257385,0.0,0,False
2023-03-07,0.21687692856257385,0.21687692856257385,0.0,0,False
2023-03-08,0.21687692856257385,0.21687692856257385,0.0,0,False
2023-03-09,0.21687692856257385,0.21687692856257385,0.0,0,False
2023-03-10,0.21687692856257385,0.21137950585001938,-2.53481213930431,12,True
2023-03-11,0.21137950585001938,0.21184143126348298,0.21852894943910073,7,True
2023-03-12,0.21184143126348298,0.2122665592396449,0.20068216761297553,0,True
2023-03-13,0.2122665592396449,0.2122665592396449,0.0,0,False
2023-03-14,0.2122665592396449,0.21199312402826084,-0.1288169047274912,1,True
2023-03-15,0.21199312402826084,0.21048749644333176,-0.7102247263115813,7,True
2023-03-16,0.21048749644333176,0.2092013201794564,-0.6110463973434288,8,True
2023-03-17,0.2092013201794564,0.20794149644581736,-0.6022063974349345,3,True
2023-03-18,0.20794149644581736,0.21051602810989642,1.238103845592886,3,True
2023-03-19,0.21051602810989642,0.20743587446343495,-1.463144480786771,4,True
2023-03-20,0.20743587446343495,0.20847161466416583,0.4993062089236,6,True
2023-03-21,0.20847161466416583,0.20598666478108238,-1.1919847635307734,4,True
2023-03-22,0.20598666478108238,0.20598666478108238,0.0,0,False
2023-03-23,0.20598666478108238,0.20807636592706677,1.0144837036927923,8,True
2023-03-24,0.20807636592706677,0.2068717009246734,-0.578953307371588,1,True
2023-03-25,0.2068717009246734,0.20588803629966035,-0.4754950148407433,1,True
2023-03-26,0.20588803629966035,0.20588803629966035,0.0,0,False
2023-03-27,0.20588803629966035,0.20486326773210642,-0.4977309930055518,1,True
2023-03-28,0.20486326773210642,0.20902486216527544,2.031400982342535,4,True
2023-03-29,0.20902486216527544,0.2092114827726356,0.08928153590292975,1,True
2023-03-30,0.2092114827726356,0.21125211846936653,0.9753937354139541,3,True
2023-03-31,0.21125211846936653,0.21125211846936653,0.0,0,False
2023-04-01,0.21125211846936653,0.21102560859654482,-0.1072225331811616,1,True
2023-04-02,0.21102560859654482,0.21062292884733028,-0.19082032360556722,0,True
2023-04-03,0.21062292884733028,0.21062292884733028,0.0,0,False
2023-04-04,0.21062292884733028,0.20852811354782888,-0.9945808421550462,2,True
2023-04-05,0.20852811354782888,0.2080007642056405,-0.25289124483803826,2,True
2023-04-06,0.2080007642056405,0.20416663829264725,-1.843322993372587,6,True
2023-04-07,0.20416663829264725,0.20328473397582522,-0.4319531948005828,1,True
2023-04-08,0.20328473397582522,0.20261030688952936,-0.3317647484419872,1,True
2023-04-09,0.20261030688952936,0.20261030688952936,0.0,0,False
2023-04-10,0.20261030688952936,0.20261030688952936,0.0,0,False
2023-04-11,0.20261030688952936,0.20261030688952936,0.0,0,False
2023-04-12,0.20261030688952936,0.20412794976356152,0.7490452471698106,1,True
2023-04-13,0.20412794976356152,0.20417456168725945,0.022834660198123302,0,True
2023-04-14,0.20417456168725945,0.20608326435271282,0.9348386251843532,2,True
2023-04-15,0.20608326435271282,0.20611427318381956,0.015046748800351395,1,True
2023-04-16,0.20611427318381956,0.20563066224892818,-0.23463243346572016,1,True
2023-04-17,0.20563066224892818,0.20460689666073817,-0.4978662116793986,4,True
2023-04-18,0.20460689666073817,0.20460689666073817,0.0,0,False
2023-04-19,0.20460689666073817,0.20167223086679723,-1.4342946605592433,10,True
2023-04-20,0.20167223086679723,0.2001388583812125,-0.7603290145570374,0,True
2023-04-21,0.2001388583812125,0.19970775090439896,-0.21540418502458136,1,True
2023-04-22,0.19970775090439896,0.19903310610384276,-0.3378160324278845,1,True
2023-04-23,0.19903310610384276,0.19903310610384276,0.0,0,False
2023-04-24,0.19903310610384276,0.19903310610384276,0.0,0,False
2023-04-25,0.19903310610384276,0.19903310610384276,0.0,0,False
2023-04-26,0.19903310610384276,0.19903310610384276,0.0,0,False
2023-04-27,0.19903310610384276,0.19761741243077272,-0.7112855246962924,12,True
2023-04-28,0.19761741243077272,0.19761741243077272,0.0,0,False
2023-04-29,0.19761741243077272,0.1966333133422584,-0.4979819725445811,1,True
2023-04-30,0.1966333133422584,0.1966333133422584,0.0,0,False
2023-05-01,0.1966333133422584,0.1966333133422584,0.0,0,False
2023-05-02,0.1966333133422584,0.1966333133422584,0.0,0,False
2023-05-03,0.1966333133422584,0.1966333133422584,0.0,0,False
2023-05-04,0.1966333133422584,0.1966333133422584,0.0,0,False
2023-05-05,0.1966333133422584,0.1966333133422584,0.0,0,False
2023-05-06,0.1966333133422584,0.19467954957211925,-0.9936077142424171,2,True
2023-05-07,0.19467954957211925,0.19467954957211925,0.0,0,False
2023-05-08,0.19467954957211925,0.18982105031641233,-2.4956392524973836,8,True
2023-05-09,0.18982105031641233,0.19011080011000372,0.15264365733327345,6,True
2023-05-10,0.19011080011000372,0.1894973586465358,-0.32267575703903706,2,True
2023-05-11,0.1894973586465358,0.19424949042476286,2.507756209463108,6,True
2023-05-12,0.19424949042476286,0.19343292851251723,-0.4203675955391506,0,True
2023-05-13,0.19343292851251723,0.1931706765849147,-0.13557770624640364,1,True
2023-05-14,0.1931706765849147,0.1931706765849147,0.0,0,False
2023-05-15,0.1931706765849147,0.1931706765849147,0.0,0,False
2023-05-16,0.1931706765849147,0.1931706765849147,0.0,0,False
2023-05-17,0.1931706765849147,0.1931706765849147,0.0,0,False
2023-05-18,0.1931706765849147,0.1928687417593744,-0.15630468913720996,1,True
2023-05-19,0.1928687417593744,0.1928687417593744,0.0,0,False
2023-05-20,0.1928687417593744,0.1928687417593744,0.0,0,False
2023-05-21,0.1928687417593744,0.1928687417593744,0.0,0,False
2023-05-22,0.1928687417593744,0.1923769801396856,-0.2549721718526743,1,True
2023-05-23,0.1923769801396856,0.1923769801396856,0.0,0,False
2023-05-24,0.1923769801396856,0.19141858012554974,-0.4981885116607798,1,True
2023-05-25,0.19141858012554974,0.19092729169949896,-0.2566566034125639,1,True
2023-05-26,0.19092729169949896,0.19147973048765665,0.2893451131267266,1,True
2023-05-27,0.19147973048765665,0.18957422572414942,-0.9951469843070715,3,True
2023-05-28,0.18957422572414942,0.18957422572414942,0.0,0,False
2023-05-29,0.18957422572414942,0.1905072173992347,0.49215111997498173,1,True
2023-05-30,0.1905072173992347,0.1937051544784538,1.678643530085977,5,True
2023-05-31,0.1937051544784538,0.1949664999183917,0.6511677210315092,2,True
2023-06-01,0.1949664999183917,0.1959347728382143,0.49663553493954904,0,True
2023-06-02,0.1959347728382143,0.199306239024038,1.7207084464826217,3,True
2023-06-03,0.199306239024038,0.19560757390094655,-1.8557698651096133,4,True
2023-06-04,0.19560757390094655,0.1935460430030329,-1.0539115928903553,4,True
2023-06-05,0.1935460430030329,0.19265254243873503,-0.4616475493037453,1,True
2023-06-06,0.19265254243873503,0.1851789590690459,-3.879306898877688,12,True
2023-06-07,0.1851789590690459,0.18350368942567166,-0.9046760235592477,2,True
2023-06-08,0.18350368942567166,0.1818696236428315,-0.8904811603267837,4,True
2023-06-09,0.1818696236428315,0.18110391660549915,-0.42101975139954284,1,True
2023-06-10,0.18110391660549915,0.1872889326074013,3.415175175573393,8,True
2023-06-11,0.1872889326074013,0.18707179858647738,-0.11593531870838225,1,True
2023-06-12,0.18707179858647738,0.18707179858647738,0.0,0,False
2023-06-13,0.18707179858647738,0.18595824922302892,-0.5952523960653044,2,True
2023-06-14,0.18595824922302892,0.18595824922302892,0.0,0,False
2023-06-15,0.18595824922302892,0.18620324814956354,0.131749426313843,7,True
2023-06-16,0.18620324814956354,0.18589585828396352,-0.16508297715254194,0,True
2023-06-17,0.18589585828396352,0.18554425273553615,-0.18914114153649741,1,True
2023-06-18,0.18554425273553615,0.18554425273553615,0.0,0,False
2023-06-19,0.18554425273553615,0.18698846573489927,0.7783657957983747,1,True
2023-06-20,0.18698846573489927,0.18691919181876931,-0.03704716002546071,1,True
2023-06-21,0.18691919181876931,0.18691919181876931,0.0,0,False
2023-06-22,0.18691919181876931,0.19240642926690604,2.935620144055062,6,True
2023-06-23,0.19240642926690604,0.19261395008871232,0.10785545087914628,0,True
2023-06-24,0.19261395008871232,0.19238515528106462,-0.1187841314413296,1,True
2023-06-25,0.19238515528106462,0.19037192880195597,-1.0464562487513263,8,True
2023-06-26,0.19037192880195597,0.19037192880195597,0.0,0,False
2023-06-27,0.19037192880195597,0.19037192880195597,0.0,0,False
2023-06-28,0.19037192880195597,0.19037192880195597,0.0,0,False
2023-06-29,0.19037192880195597,0.1906555511213582,0.14898326722176947,2,True
2023-06-30,0.1906555511213582,0.1873261532260279,-1.7462895130764045,10,True
2023-07-01,0.1873261532260279,0.18817453557750027,0.4528904997310734,5,True
2023-07-02,0.18817453557750027,0.18817453557750027,0.0,0,False
2023-07-03,0.18817453557750027,0.18817453557750027,0.0,0,False
2023-07-04,0.18817453557750027,0.18781271188021328,-0.19228090356464556,1,True
2023-07-05,0.18781271188021328,0.18690524248874468,-0.4831778330571024,2,True
2023-07-06,0.18690524248874468,0.1877022027414185,0.4263980196926864,4,True
2023-07-07,0.1877022027414185,0.18748317344812482,-0.11668978312173728,0,True
2023-07-08,0.18748317344812482,0.18748317344812482,0.0,0,False
2023-07-09,0.18748317344812482,0.18748317344812482,0.0,0,False
2023-07-10,0.18748317344812482,0.18738024067194678,-0.054902407658741215,1,True
2023-07-11,0.18738024067194678,0.18738024067194678,0.0,0,False
2023-07-12,0.18738024067194678,0.1871594676679988,-0.11782085622064065,1,True
2023-07-13,0.1871594676679988,0.1871594676679988,0.0,0,False
2023-07-14,0.1871594676679988,0.1862259546654718,-0.4987794708750548,1,True
2023-07-15,0.1862259546654718,0.1863706190153604,0.0776821631273128,7,True
2023-07-16,0.1863706190153604,0.1858869715265859,-0.25950844147523133,2,True
2023-07-17,0.1858869715265859,0.1835143883155579,-1.276357988697796,3,True
2023-07-18,0.1835143883155579,0.1808113377456824,-1.4729365880715273,2,True
2023-07-19,0.1808113377456824,0.18010367755251144,-0.39138043111339726,1,True
2023-07-20,0.18010367755251144,0.17951573190604153,-0.3264484403981638,2,True
2023-07-21,0.17951573190604153,0.17951573190604153,0.0,0,False
2023-07-22,0.17951573190604153,0.17951573190604153,0.0,0,False
2023-07-23,0.17951573190604153,0.17951573190604153,0.0,0,False
2023-07-24,0.17951573190604153,0.1772683941703038,-1.2518890193501164,8,True
2023-07-25,0.1772683941703038,0.17683414252162016,-0.24496845628693142,0,True
2023-07-26,0.17683414252162016,0.17683414252162016,0.0,0,False
2023-07-27,0.17683414252162016,0.17683414252162016,0.0,0,False
2023-07-28,0.17683414252162016,0.17683414252162016,0.0,0,False
2023-07-29,0.17683414252162016,0.17683414252162016,0.0,0,False
2023-07-30,0.17683414252162016,0.17683414252162016,0.0,0,False
2023-07-31,0.17683414252162016,0.17595412690153223,-0.49765028830919267,1,True
2023-08-01,0.17595412690153223,0.1772214785726716,0.7202739108521206,3,True
2023-08-02,0.1772214785726716,0.1770552325373612,-0.09380693392772033,0,True
2023-08-03,0.1770552325373612,0.1770552325373612,0.0,0,False
2023-08-04,0.1770552325373612,0.1770552325373612,0.0,0,False
2023-08-05,0.1770552325373612,0.1770552325373612,0.0,0,False
2023-08-06,0.1770552325373612,0.17735942046561173,0.1718039754551537,1,True
2023-08-07,0.17735942046561173,0.17680521905691882,-0.31247362403304946,3,True
2023-08-08,0.17680521905691882,0.17464126727957355,-1.223918495668741,5,True
2023-08-09,0.17464126727957355,0.1741939459609331,-0.2561372381273186,0,True
2023-08-10,0.1741939459609331,0.1733264672297248,-0.4979959127872635,1,True
2023-08-11,0.1733264672297248,0.1733264672297248,0.0,0,False
2023-08-12,0.1733264672297248,0.1733264672297248,0.0,0,False
2023-08-13,0.1733264672297248,0.17406337897991409,0.42515823576592116,2,True
2023-08-14,0.17406337897991409,0.17291889391169715,-0.6575105429551642,8,True
2023-08-15,0.17291889391169715,0.17156684197114622,-0.7818994847615501,2,True
2023-08-16,0.17156684197114622,0.17391017782444237,1.365844254270443,8,True
2023-08-17,0.17391017782444237,0.17114470690106973,-1.5901719830131555,8,True
2023-08-18,0.17114470690106973,0.18149379507962743,6.0469811576118415,7,True
2023-08-19,0.18149379507962743,0.18236834637286492,0.48186291594916053,3,True
2023-08-20,0.18236834637286492,0.18149780057536744,-0.4773557554322516,1,True
2023-08-21,0.18149780057536744,0.1808353789411118,-0.36497502016866745,1,True
2023-08-22,0.1808353789411118,0.18056063210677734,-0.15193201459982042,4,True
2023-08-23,0.18056063210677734,0.18127776155744607,0.3971682211683092,1,True
2023-08-24,0.18127776155744607,0.18127776155744607,0.0,0,False
2023-08-25,0.18127776155744607,0.18183637674938485,0.3081542860742692,10,True
2023-08-26,0.18183637674938485,0.1822389173271514,0.2213751642892392,2,True
2023-08-27,0.1822389173271514,0.1822389173271514,0.0,0,False
2023-08-28,0.1822389173271514,0.18128191488284315,-0.5251361555173473,2,True
2023-08-29,0.18128191488284315,0.18293174561173914,0.9100911858539451,3,True
2023-08-30,0.18293174561173914,0.18232558508909505,-0.33135884677480965,3,True
2023-08-31,0.18232558508909505,0.182723558341279,0.2182761415461698,3,True
2023-09-01,0.182723558341279,0.18311562519999974,0.2145683141680399,4,True
2023-09-02,0.18311562519999974,0.18654672915846082,1.8737363098936033,7,True
2023-09-03,0.18654672915846082,0.185841776867064,-0.37789581976428455,4,True
2023-09-04,0.185841776867064,0.1843154590079319,-0.8212996479386336,7,True
2023-09-05,0.1843154590079319,0.1853289091655528,0.5498454459955449,2,True
2023-09-06,0.1853289091655528,0.1920193798532551,3.6100523754368785,5,True
2023-09-07,0.1920193798532551,0.1909064817729585,-0.5795759163200631,3,True
2023-09-08,0.1909064817729585,0.19238775215476162,0.7759141376691314,12,True
2023-09-09,0.19238775215476162,0.18931698910635478,-1.5961322974118675,8,True
2023-09-10,0.18931698910635478,0.18593034397936936,-1.7888754427014764,7,True
2023-09-11,0.18593034397936936,0.18518709716117976,-0.39974476585278307,2,True
2023-09-12,0.18518709716117976,0.18435467464812355,-0.44950351607472294,2,True
2023-09-13,0.18435467464812355,0.18405528664291376,-0.16239783763619675,2,True
2023-09-14,0.18405528664291376,0.18335855493513753,-0.3785447951451526,4,True
2023-09-15,0.18335855493513753,0.18262562229178858,-0.39972645051016276,1,True
2023-09-16,0.18262562229178858,0.18557122395622105,1.6129180711160984,8,True
2023-09-17,0.18557122395622105,0.18606990252523847,0.2687262380373534,5,True
2023-09-18,0.18606990252523847,0.1829202674710395,-1.692716023093388,4,True
2023-09-19,0.1829202674710395,0.18445381265311825,0.838368106104781,1,True
2023-09-20,0.18445381265311825,0.18546839927553085,0.5500491466232882,3,True
2023-09-21,0.18546839927553085,0.18837491556049019,1.5671221061445806,2,True
2023-09-22,0.18837491556049019,0.1919800148054792,1.913789441796121,1,True
2023-09-23,0.1919800148054792,0.19102259698597973,-0.49870702451478843,1,True
2023-09-24,0.19102259698597973,0.19084687084290156,-0.0919923327662997,1,True
2023-09-25,0.19084687084290156,0.19008702790725795,-0.3981427268299753,1,True
2023-09-26,0.19008702790725795,0.19035334373707996,0.14010205365089234,1,True
2023-09-27,0.19035334373707996,0.18859311735540238,-0.9247152412036663,1,True
2023-09-28,0.18859311735540238,0.18894720674433818,0.1877530812900874,3,True
2023-09-29,0.18894720674433818,0.18750033845978278,-0.7657526721276842,2,True
2023-09-30,0.18750033845978278,0.18750033845978278,0.0,0,False
2023-10-01,0.18750033845978278,0.18731513202313727,-0.09877658790746757,1,True
2023-10-02,0.18731513202313727,0.1869726716345905,-0.1828257999489713,1,True
2023-10-03,0.1869726716345905,0.18792512775006387,0.5094092666840577,3,True
2023-10-04,0.18792512775006387,0.18503502937696598,-1.5378988471098198,7,True
2023-10-05,0.18503502937696598,0.18381684462880454,-0.6583535843257327,2,True
2023-10-06,0.18381684462880454,0.18381684462880454,0.0,0,False
2023-10-07,0.18381684462880454,0.1829201943410781,-0.48779549531334787,1,True
2023-10-08,0.1829201943410781,0.18246357701318758,-0.24962652676778774,1,True
2023-10-09,0.18246357701318758,0.18024802761437217,-1.2142420065870296,5,True
2023-10-10,0.18024802761437217,0.17898042233275227,-0.7032561179153962,1,True
2023-10-11,0.17898042233275227,0.17898042233275227,0.0,0,False
2023-10-12,0.17898042233275227,0.17898042233275227,0.0,0,False
2023-10-13,0.17898042233275227,0.17898042233275227,0.0,0,False
2023-10-14,0.17898042233275227,0.17898042233275227,0.0,0,False
2023-10-15,0.17898042233275227,0.17899259674177298,0.006802089782809162,1,True
2023-10-16,0.17899259674177298,0.17925898242871868,0.14882497477255452,2,True
2023-10-17,0.17925898242871868,0.1787366390585289,-0.2913903465883383,2,True
2023-10-18,0.1787366390585289,0.17740692159450352,-0.743953489910909,4,True
2023-10-19,0.17740692159450352,0.17426449442311484,-1.7713103542663866,5,True
2023-10-20,0.17426449442311484,0.17426449442311484,0.0,0,False
2023-10-21,0.17426449442311484,0.1750406807568274,0.4454070442071689,2,True
2023-10-22,0.1750406807568274,0.17734409603783774,1.3159314000899647,1,True
2023-10-23,0.17734409603783774,0.17734409603783774,0.0,0,False
2023-10-24,0.17734409603783774,0.17516943727820963,-1.2262369079172108,9,True
2023-10-25,0.17516943727820963,0.1804155354389481,2.994870704760233,9,True
2023-10-26,0.1804155354389481,0.18178305893496913,0.7579854432678834,9,True
2023-10-27,0.18178305893496913,0.18159164525763477,-0.10529786353900006,7,True
2023-10-28,0.18159164525763477,0.18264043195793034,0.5775522870601124,2,True
2023-10-29,0.18264043195793034,0.18264043195793034,0.0,0,False
2023-10-30,0.18264043195793034,0.18190867415786652,-0.40065487812269707,2,True
2023-10-31,0.18190867415786652,0.18064288948143709,-0.6958352493575681,7,True
2023-11-01,0.18064288948143709,0.1820812980085461,0.7962718772037913,5,True
2023-11-02,0.1820812980085461,0.1809869535862466,-0.6010196732275763,6,True
2023-11-03,0.1809869535862466,0.17881020440582746,-1.2027105475212352,2,True
2023-11-04,0.17881020440582746,0.17798835703390256,-0.4596199499104836,4,True
2023-11-05,0.17798835703390256,0.17759924574500605,-0.21861614735979584,7,True
2023-11-06,0.17759924574500605,0.17510550373036518,-1.4041399805387322,6,True
2023-11-07,0.17510550373036518,0.17212320958673213,-1.7031412948763203,5,True
2023-11-08,0.17212320958673213,0.17212320958673213,0.0,0,False
2023-11-09,0.17212320958673213,0.1708883532337084,-0.717425823041884,6,True
2023-11-10,0.1708883532337084,0.16833744693655436,-1.4927326812409492,13,True
2023-11-11,0.16833744693655436,0.16537594517826965,-1.7592649836259522,7,True
2023-11-12,0.16537594517826965,0.16897753584129693,2.1778201534357944,7,True
2023-11-13,0.16897753584129693,0.1671691629539086,-1.0701853819709783,4,True
2023-11-14,0.1671691629539086,0.16696763495787234,-0.12055333201125285,12,True
2023-11-15,0.16696763495787234,0.165803361248788,-0.6973050252392365,3,True
2023-11-16,0.165803361248788,0.1657297273242234,-0.04441039313679562,5,True
2023-11-17,0.1657297273242234,0.16721898347401043,0.8986053219490087,5,True
2023-11-18,0.16721898347401043,0.16517201067850926,-1.2241270416640915,7,True
2023-11-19,0.16517201067850926,0.1629321311862212,-1.3560890147712445,4,True
2023-11-20,0.1629321311862212,0.1628148075178482,-0.07200769272387442,2,True
2023-11-21,0.1628148075178482,0.15850064175373674,-2.649737962954335,6,True
2023-11-22,0.15850064175373674,0.15886286832846,0.22853319123214977,6,True
2023-11-23,0.15886286832846,0.15812865703140075,-0.46216671320652436,3,True
2023-11-24,0.15812865703140075,0.16200497915840717,2.451372319083611,1,True
2023-11-25,0.16200497915840717,0.16294040760730003,0.5774072215263271,6,True
2023-11-26,0.16294040760730003,0.164052878317146,0.6827469785930074,1,True
2023-11-27,0.164052878317146,0.16428774113494957,0.14316287541724648,8,True
2023-11-28,0.16428774113494957,0.16253158816332272,-1.0689494903848629,5,True
2023-11-29,0.16253158816332272,0.1611872905978782,-0.8270992615255102,5,True
2023-11-30,0.1611872905978782,0.1601511290765659,-0.6428307824202228,4,True
2023-12-01,0.1601511290765659,0.1601511290765659,0.0,0,False
2023-12-02,0.1601511290765659,0.161731274899754,0.9866591839216232,1,True
2023-12-03,0.161731274899754,0.16244986460567246,0.4443109141159418,6,True
2023-12-04,0.16244986460567246,0.16760575148464138,3.1738326723042887,8,True
2023-12-05,0.16760575148464138,0.16931153660328394,1.0177366251055364,9,True
2023-12-06,0.16931153660328394,0.16587716702057123,-2.028432114912415,11,True
2023-12-07,0.16587716702057123,0.162979118533063,-1.747105125775894,7,True
2023-12-08,0.162979118533063,0.1625164009896147,-0.28391216470742275,2,True
2023-12-09,0.1625164009896147,0.1625164009896147,0.0,0,False
2023-12-10,0.1625164009896147,0.1619393347263964,-0.35508186232550143,3,True
2023-12-11,0.1619393347263964,0.16418814863032577,1.3886767583236148,8,True
2023-12-12,0.16418814863032577,0.1662354269332118,1.246909914000871,1,True
2023-12-13,0.1662354269332118,0.16515021021032095,-0.6528191631058666,7,True
2023-12-14,0.16515021021032095,0.16799570101088573,1.722971346473634,3,True
2023-12-15,0.16799570101088573,0.1655645868775886,-1.4471287769081687,4,True
2023-12-16,0.1655645868775886,0.16665057704192102,0.6559314312397868,5,True
2023-12-17,0.16665057704192102,0.16418605377811207,-1.4788567237837946,7,True
2023-12-18,0.16418605377811207,0.16417585744348706,-0.006210231862191495,9,True
2023-12-19,0.16417585744348706,0.16352867949105857,-0.3941980035957915,4,True
2023-12-20,0.16352867949105857,0.16279685876584044,-0.44751827477341743,2,True
2023-12-21,0.16279685876584044,0.1611233655877453,-1.027964047206975,3,True
2023-12-22,0.1611233655877453,0.16057373829731722,-0.3411220268538573,2,True
2023-12-23,0.16057373829731722,0.16032491087422607,-0.15496146862472582,3,True
2023-12-24,0.16032491087422607,0.16306844889897004,1.7112362700118844,4,True
2023-12-25,0.16306844889897004,0.16032092833377123,-1.6848879006024275,6,True
2023-12-26,0.16032092833377123,0.15835147089143317,-1.228446880146461,4,True
2023-12-27,0.15835147089143317,0.15650833231249547,-1.163954189097094,13,True
2023-12-28,0.15650833231249547,0.1548992967184377,-1.0280830229824844,9,True
2023-12-29,0.1548992967184377,0.155809205365981,0.5874194827348189,4,True
2023-12-30,0.155809205365981,0.15328837166881235,-1.6178977944515283,5,True
2023-12-31,0.15328837166881235,0.15114883882209235,-1.3957567840452878,3,True
