day,start_equity,end_equity,return_pct,entries,active
2024-01-02,1.0,1.0,0.0,0,False
2024-01-03,1.0,1.0092932468531264,0.929324685312638,4,True
2024-01-04,1.0092932468531264,1.0091592655182418,-0.013274767794435594,1,True
2024-01-05,1.0091592655182418,1.0091592655182418,0.0,0,False
2024-01-06,1.0091592655182418,1.0091592655182418,0.0,0,False
2024-01-07,1.0091592655182418,1.0091592655182418,0.0,0,False
2024-01-08,1.0091592655182418,1.005953314974643,-0.31768529043356697,1,True
2024-01-09,1.005953314974643,1.005953314974643,0.0,0,False
2024-01-10,1.005953314974643,1.0042852151357338,-0.16582278860040045,1,True
2024-01-11,1.0042852151357338,1.0042852151357338,0.0,0,False
2024-01-12,1.0042852151357338,1.0042852151357338,0.0,0,False
2024-01-13,1.0042852151357338,1.0042852151357338,0.0,0,False
2024-01-14,1.0042852151357338,1.0042852151357338,0.0,0,False
2024-01-15,1.0042852151357338,1.0042852151357338,0.0,0,False
2024-01-16,1.0042852151357338,1.0042852151357338,0.0,0,False
2024-01-17,1.0042852151357338,1.0042852151357338,0.0,0,False
2024-01-18,1.0042852151357338,1.0042852151357338,0.0,0,False
2024-01-19,1.0042852151357338,1.0042852151357338,0.0,0,False
2024-01-20,1.0042852151357338,1.0042852151357338,0.0,0,False
2024-01-21,1.0042852151357338,1.0042852151357338,0.0,0,False
2024-01-22,1.0042852151357338,1.0042852151357338,0.0,0,False
2024-01-23,1.0042852151357338,0.9942872659357572,-0.9955288646388394,2,True
2024-01-24,0.9942872659357572,0.9942872659357572,0.0,0,False
2024-01-25,0.9942872659357572,0.9942872659357572,0.0,0,False
2024-01-26,0.9942872659357572,0.9942872659357572,0.0,0,False
2024-01-27,0.9942872659357572,0.9942872659357572,0.0,0,False
2024-01-28,0.9942872659357572,0.9913606835355214,-0.2943397245947277,2,True
2024-01-29,0.9913606835355214,0.9913606835355214,0.0,0,False
2024-01-30,0.9913606835355214,0.9913606835355214,0.0,0,False
2024-01-31,0.9913606835355214,0.9913606835355214,0.0,0,False
2024-02-01,0.9913606835355214,0.9913606835355214,0.0,0,False
2024-02-02,0.9913606835355214,0.9913606835355214,0.0,0,False
2024-02-03,0.9913606835355214,0.9913606835355214,0.0,0,False
2024-02-04,0.9913606835355214,0.9913606835355214,0.0,0,False
2024-02-05,0.9913606835355214,0.9913606835355214,0.0,0,False
2024-02-06,0.9913606835355214,0.9846312545312046,-0.6788073317894217,2,True
2024-02-07,0.9846312545312046,0.9821997298737666,-0.24694774274616194,0,True
2024-02-08,0.9821997298737666,0.9821997298737666,0.0,0,False
2024-02-09,0.9821997298737666,0.9821997298737666,0.0,0,False
2024-02-10,0.9821997298737666,0.9821997298737666,0.0,0,False
2024-02-11,0.9821997298737666,0.9821997298737666,0.0,0,False
2024-02-12,0.9821997298737666,0.9821997298737666,0.0,0,False
2024-02-13,0.9821997298737666,0.9821997298737666,0.0,0,False
2024-02-14,0.9821997298737666,0.9821997298737666,0.0,0,False
2024-02-15,0.9821997298737666,0.9974841997779295,1.5561468242439203,1,True
2024-02-16,0.9974841997779295,0.9937923451104341,-0.3701166061895744,0,True
2024-02-17,0.9937923451104341,0.9937923451104341,0.0,0,False
2024-02-18,0.9937923451104341,0.9937923451104341,0.0,0,False
2024-02-19,0.9937923451104341,0.9937923451104341,0.0,0,False
2024-02-20,0.9937923451104341,0.9937923451104341,0.0,0,False
2024-02-21,0.9937923451104341,1.0077814500099969,1.4076486872122373,5,True
2024-02-22,1.0077814500099969,1.0213885101959697,1.3501995086174556,1,True
2024-02-23,1.0213885101959697,1.0213885101959697,0.0,0,False
2024-02-24,1.0213885101959697,1.0213885101959697,0.0,0,False
2024-02-25,1.0213885101959697,1.0213885101959697,0.0,0,False
2024-02-26,1.0213885101959697,1.0201302140247566,-0.12319466673573753,1,True
2024-02-27,1.0201302140247566,1.018928387375073,-0.11781110226526392,1,True
2024-02-28,1.018928387375073,1.018928387375073,0.0,0,False
2024-02-29,1.018928387375073,1.0264767156753691,0.7408104822500761,2,True
2024-03-01,1.0264767156753691,1.0264767156753691,0.0,0,False
2024-03-02,1.0264767156753691,1.0264767156753691,0.0,0,False
2024-03-03,1.0264767156753691,1.0414789508586992,1.4615270813483017,4,True
2024-03-04,1.0414789508586992,1.0437448747841422,0.217567904140048,0,True
2024-03-05,1.0437448747841422,1.042741015127553,-0.09617864296549428,1,True
2024-03-06,1.042741015127553,1.049878430408614,0.6844859056577945,1,True
2024-03-07,1.049878430408614,1.050373849652095,0.047188248575413816,2,True
2024-03-08,1.050373849652095,1.051300586950924,0.08822928133025432,0,True
2024-03-09,1.051300586950924,1.051300586950924,0.0,0,False
2024-03-10,1.051300586950924,1.051300586950924,0.0,0,False
2024-03-11,1.051300586950924,1.051300586950924,0.0,0,False
2024-03-12,1.051300586950924,1.0522014012771213,0.08568570562772493,1,True
2024-03-13,1.0522014012771213,1.0522014012771213,0.0,0,False
2024-03-14,1.0522014012771213,1.0522014012771213,0.0,0,False
2024-03-15,1.0522014012771213,1.0522014012771213,0.0,0,False
2024-03-16,1.0522014012771213,1.0522014012771213,0.0,0,False
2024-03-17,1.0522014012771213,1.049444308086352,-0.2620309369881779,1,True
2024-03-18,1.049444308086352,1.048700446132657,-0.07088150823852946,1,True
2024-03-19,1.048700446132657,1.0397574125654838,-0.8527729343639434,1,True
2024-03-20,1.0397574125654838,1.0397574125654838,0.0,0,False
2024-03-21,1.0397574125654838,1.0293991411743686,-0.9962200091997775,2,True
2024-03-22,1.0293991411743686,1.0293991411743686,0.0,0,False
2024-03-23,1.0293991411743686,1.0306410304999736,0.12064215676226286,1,True
2024-03-24,1.0306410304999736,1.0306410304999736,0.0,0,False
2024-03-25,1.0306410304999736,1.0306410304999736,0.0,0,False
2024-03-26,1.0306410304999736,1.0341117254905017,0.33675109837656425,1,True
2024-03-27,1.0341117254905017,1.0310063776150884,-0.3002913320550915,2,True
2024-03-28,1.0310063776150884,1.0310063776150884,0.0,0,False
2024-03-29,1.0310063776150884,1.0258579745033596,-0.49935705767776284,1,True
2024-03-30,1.0258579745033596,1.0258579745033596,0.0,0,False
2024-03-31,1.0258579745033596,1.0258579745033596,0.0,0,False
2024-04-01,1.0258579745033596,1.0258579745033596,0.0,0,False
2024-04-02,1.0258579745033596,1.0258579745033596,0.0,0,False
2024-04-03,1.0258579745033596,1.0258579745033596,0.0,0,False
2024-04-04,1.0258579745033596,1.0258579745033596,0.0,0,False
2024-04-05,1.0258579745033596,1.0248071466715476,-0.10243404622561902,2,True
2024-04-06,1.0248071466715476,1.0230354865602032,-0.17287741572632465,0,True
2024-04-07,1.0230354865602032,1.0256940801640881,0.2598730580523734,1,True
2024-04-08,1.0256940801640881,1.0256940801640881,0.0,0,False
2024-04-09,1.0256940801640881,1.0232837094239058,-0.23499899110237532,1,True
2024-04-10,1.0232837094239058,1.0156006424375286,-0.7508247141648217,1,True
2024-04-11,1.0156006424375286,1.0156006424375286,0.0,0,False
2024-04-12,1.0156006424375286,1.0192539490371257,0.3597188153434905,1,True
2024-04-13,1.0192539490371257,1.0081243518820113,-1.0919356423027216,8,True
2024-04-14,1.0081243518820113,0.9951240440005051,-1.2895539977024306,5,True
2024-04-15,0.9951240440005051,0.9968832260439247,0.17678017670514912,1,True
2024-04-16,0.9968832260439247,0.9934112453534321,-0.3482835902727466,0,True
2024-04-17,0.9934112453534321,0.9906806261510291,-0.2748729909365366,1,True
2024-04-18,0.9906806261510291,0.9904741732796173,-0.020839498215885488,0,True
2024-04-19,0.9904741732796173,0.9904741732796173,0.0,0,False
2024-04-20,0.9904741732796173,0.9904741732796173,0.0,0,False
2024-04-21,0.9904741732796173,0.9904741732796173,0.0,0,False
2024-04-22,0.9904741732796173,0.9904741732796173,0.0,0,False
2024-04-23,0.9904741732796173,0.9904741732796173,0.0,0,False
2024-04-24,0.9904741732796173,0.9904741732796173,0.0,0,False
2024-04-25,0.9904741732796173,0.9973777216558947,0.6969942844060828,1,True
2024-04-26,0.9973777216558947,0.9943711039133029,-0.3014522660081176,0,True
2024-04-27,0.9943711039133029,0.9894030773159419,-0.4996149403185046,1,True
2024-04-28,0.9894030773159419,0.9894030773159419,0.0,0,False
2024-04-29,0.9894030773159419,0.9996948516419942,1.0402003553467765,1,True
2024-04-30,0.9996948516419942,1.0000529639172842,0.035822158601872545,0,True
2024-05-01,1.0000529639172842,1.0000529639172842,0.0,0,False
2024-05-02,1.0000529639172842,1.0000529639172842,0.0,0,False
2024-05-03,1.0000529639172842,1.0000529639172842,0.0,0,False
2024-05-04,1.0000529639172842,1.0000529639172842,0.0,0,False
2024-05-05,1.0000529639172842,1.0000529639172842,0.0,0,False
2024-05-06,1.0000529639172842,1.0000529639172842,0.0,0,False
2024-05-07,1.0000529639172842,0.9972616206981246,-0.2791195386517953,1,True
2024-05-08,0.9972616206981246,0.9972684541685192,0.0006852234411436342,0,True
2024-05-09,0.9972684541685192,0.9944940735975015,-0.27819796760049087,1,True
2024-05-10,0.9944940735975015,0.9944940735975015,0.0,0,False
2024-05-11,0.9944940735975015,0.9946801494354436,0.01871060299725169,1,True
2024-05-12,0.9946801494354436,0.9923565934568357,-0.23359830594053,0,True
2024-05-13,0.9923565934568357,0.9958312745169664,0.35014440202656427,1,True
2024-05-14,0.9958312745169664,0.9958312745169664,0.0,0,False
2024-05-15,0.9958312745169664,0.9958312745169664,0.0,0,False
2024-05-16,0.9958312745169664,0.9958312745169664,0.0,0,False
2024-05-17,0.9958312745169664,0.9958312745169664,0.0,0,False
2024-05-18,0.9958312745169664,0.9958312745169664,0.0,0,False
2024-05-19,0.9958312745169664,0.9958312745169664,0.0,0,False
2024-05-20,0.9958312745169664,0.9958312745169664,0.0,0,False
2024-05-21,0.9958312745169664,0.9958312745169664,0.0,0,False
2024-05-22,0.9958312745169664,0.9958312745169664,0.0,0,False
2024-05-23,0.9958312745169664,1.0026421433931525,0.6839380375445403,1,True
2024-05-24,1.0026421433931525,1.0040650113989091,0.14191184912109023,1,True
2024-05-25,1.0040650113989091,1.0040650113989091,0.0,0,False
2024-05-26,1.0040650113989091,1.0040650113989091,0.0,0,False
2024-05-27,1.0040650113989091,1.0040650113989091,0.0,0,False
2024-05-28,1.0040650113989091,1.0040650113989091,0.0,0,False
2024-05-29,1.0040650113989091,1.0040650113989091,0.0,0,False
2024-05-30,1.0040650113989091,1.0040650113989091,0.0,0,False
2024-05-31,1.0040650113989091,1.0040650113989091,0.0,0,False
2024-06-01,1.0040650113989091,1.0040650113989091,0.0,0,False
2024-06-02,1.0040650113989091,1.0040650113989091,0.0,0,False
2024-06-03,1.0040650113989091,0.9952368933502074,-0.8792376936232471,3,True
2024-06-04,0.9952368933502074,0.9962612816591593,0.10292909314320031,1,True
2024-06-05,0.9962612816591593,0.9962612816591593,0.0,0,False
2024-06-06,0.9962612816591593,0.9912862532825104,-0.49936984084772984,1,True
2024-06-07,0.9912862532825104,0.9912862532825104,0.0,0,False
2024-06-08,0.9912862532825104,1.021106793659482,3.008267317157376,5,True
2024-06-09,1.021106793659482,1.021106793659482,0.0,0,False
2024-06-10,1.021106793659482,1.021106793659482,0.0,0,False
2024-06-11,1.021106793659482,1.021106793659482,0.0,0,False
2024-06-12,1.021106793659482,1.021106793659482,0.0,0,False
2024-06-13,1.021106793659482,1.0144050476984536,-0.6563217483854356,2,True
2024-06-14,1.0144050476984536,1.0093408226760046,-0.4992310550838708,1,True
2024-06-15,1.0093408226760046,1.0186352070913733,0.9208370657918241,1,True
2024-06-16,1.0186352070913733,1.0186352070913733,0.0,0,False
2024-06-17,1.0186352070913733,1.0186352070913733,0.0,0,False
2024-06-18,1.0186352070913733,1.0281637601516032,0.935423495466825,4,True
2024-06-19,1.0281637601516032,1.0281637601516032,0.0,0,False
2024-06-20,1.0281637601516032,1.0281637601516032,0.0,0,False
2024-06-21,1.0281637601516032,1.0281637601516032,0.0,0,False
2024-06-22,1.0281637601516032,1.0281637601516032,0.0,0,False
2024-06-23,1.0281637601516032,1.0350938466124644,0.6740255521006988,1,True
2024-06-24,1.0350938466124644,1.0353852243947648,0.02814989029777948,1,True
2024-06-25,1.0353852243947648,1.046206673533677,1.045161634911107,0,True
2024-06-26,1.046206673533677,1.046206673533677,0.0,0,False
2024-06-27,1.046206673533677,1.046463055735561,0.024505884771119923,1,True
2024-06-28,1.046463055735561,1.0447213449521795,-0.16643786647175807,0,True
2024-06-29,1.0447213449521795,1.0343181780321185,-0.9957838968569388,2,True
2024-06-30,1.0343181780321185,1.0343181780321185,0.0,0,False
2024-07-01,1.0343181780321185,1.0343181780321185,0.0,0,False
2024-07-02,1.0343181780321185,1.0343181780321185,0.0,0,False
2024-07-03,1.0343181780321185,1.0343181780321185,0.0,0,False
2024-07-04,1.0343181780321185,1.0343181780321185,0.0,0,False
2024-07-05,1.0343181780321185,1.05423640044021,1.9257345400220727,5,True
2024-07-06,1.05423640044021,1.05423640044021,0.0,0,False
2024-07-07,1.05423640044021,1.0509822681253107,-0.3086719746672184,1,True
2024-07-08,1.0509822681253107,1.0509822681253107,0.0,0,False
2024-07-09,1.0509822681253107,1.0509822681253107,0.0,0,False
2024-07-10,1.0509822681253107,1.0509822681253107,0.0,0,False
2024-07-11,1.0509822681253107,1.0509822681253107,0.0,0,False
2024-07-12,1.0509822681253107,1.0509822681253107,0.0,0,False
2024-07-13,1.0509822681253107,1.0509822681253107,0.0,0,False
2024-07-14,1.0509822681253107,1.0509822681253107,0.0,0,False
2024-07-15,1.0509822681253107,1.0509822681253107,0.0,0,False
2024-07-16,1.0509822681253107,1.049606746053345,-0.13087966502226545,1,True
2024-07-17,1.049606746053345,1.0443661011878773,-0.4992960349362363,1,True
2024-07-18,1.0443661011878773,1.0443661011878773,0.0,0,False
2024-07-19,1.0443661011878773,1.0443661011878773,0.0,0,False
2024-07-20,1.0443661011878773,1.0452543619591634,0.08505262381417467,1,True
2024-07-21,1.0452543619591634,1.0452543619591634,0.0,0,False
2024-07-22,1.0452543619591634,1.0452543619591634,0.0,0,False
2024-07-23,1.0452543619591634,1.0412425807918984,-0.3838090816235096,1,True
2024-07-24,1.0412425807918984,1.0412425807918984,0.0,0,False
2024-07-25,1.0412425807918984,1.0412425807918984,0.0,0,False
2024-07-26,1.0412425807918984,1.0412425807918984,0.0,0,False
2024-07-27,1.0412425807918984,1.0412425807918984,0.0,0,False
2024-07-28,1.0412425807918984,1.0412425807918984,0.0,0,False
2024-07-29,1.0412425807918984,1.0412425807918984,0.0,0,False
2024-07-30,1.0412425807918984,1.0412425807918984,0.0,0,False
2024-07-31,1.0412425807918984,1.0360439803271535,-0.49926890819151915,1,True
2024-08-01,1.0360439803271535,1.0360439803271535,0.0,0,False
2024-08-02,1.0360439803271535,1.0360439803271535,0.0,0,False
2024-08-03,1.0360439803271535,1.0308723542102598,-0.4991705193114093,1,True
2024-08-04,1.0308723542102598,1.0308723542102598,0.0,0,False
2024-08-05,1.0308723542102598,1.0118542501238055,-1.8448553798907419,4,True
2024-08-06,1.0118542501238055,1.0118542501238055,0.0,0,False
2024-08-07,1.0118542501238055,1.0118542501238055,0.0,0,False
2024-08-08,1.0118542501238055,1.0118542501238055,0.0,0,False
2024-08-09,1.0118542501238055,1.0118542501238055,0.0,0,False
2024-08-10,1.0118542501238055,1.0118542501238055,0.0,0,False
2024-08-11,1.0118542501238055,1.0118542501238055,0.0,0,False
2024-08-12,1.0118542501238055,1.0118542501238055,0.0,0,False
2024-08-13,1.0118542501238055,1.0118542501238055,0.0,0,False
2024-08-14,1.0118542501238055,1.0118542501238055,0.0,0,False
2024-08-15,1.0118542501238055,1.0118542501238055,0.0,0,False
2024-08-16,1.0118542501238055,1.0118542501238055,0.0,0,False
2024-08-17,1.0118542501238055,1.0118542501238055,0.0,0,False
2024-08-18,1.0118542501238055,1.0118542501238055,0.0,0,False
2024-08-19,1.0118542501238055,1.0118542501238055,0.0,0,False
2024-08-20,1.0118542501238055,1.0118542501238055,0.0,0,False
2024-08-21,1.0118542501238055,1.0118542501238055,0.0,0,False
2024-08-22,1.0118542501238055,1.0118542501238055,0.0,0,False
2024-08-23,1.0118542501238055,1.0118542501238055,0.0,0,False
2024-08-24,1.0118542501238055,1.0118542501238055,0.0,0,False
2024-08-25,1.0118542501238055,1.0118542501238055,0.0,0,False
2024-08-26,1.0118542501238055,1.0118542501238055,0.0,0,False
2024-08-27,1.0118542501238055,1.0118542501238055,0.0,0,False
2024-08-28,1.0118542501238055,1.0118542501238055,0.0,0,False
2024-08-29,1.0118542501238055,1.0068046718244865,-0.49904206052414635,1,True
2024-08-30,1.0068046718244865,1.0068046718244865,0.0,0,False
2024-08-31,1.0068046718244865,1.0068046718244865,0.0,0,False
2024-09-01,1.0068046718244865,1.0017871492010322,-0.4983610787544168,1,True
2024-09-02,1.0017871492010322,1.0017871492010322,0.0,0,False
2024-09-03,1.0017871492010322,1.0017871492010322,0.0,0,False
2024-09-04,1.0017871492010322,1.0017871492010322,0.0,0,False
2024-09-05,1.0017871492010322,1.0017871492010322,0.0,0,False
2024-09-06,1.0017871492010322,1.0017871492010322,0.0,0,False
2024-09-07,1.0017871492010322,1.0017871492010322,0.0,0,False
2024-09-08,1.0017871492010322,1.0017871492010322,0.0,0,False
2024-09-09,1.0017871492010322,1.0017871492010322,0.0,0,False
2024-09-10,1.0017871492010322,1.0017871492010322,0.0,0,False
2024-09-11,1.0017871492010322,1.0017871492010322,0.0,0,False
2024-09-12,1.0017871492010322,1.0017871492010322,0.0,0,False
2024-09-13,1.0017871492010322,1.0017871492010322,0.0,0,False
2024-09-14,1.0017871492010322,1.0017871492010322,0.0,0,False
2024-09-15,1.0017871492010322,1.0017871492010322,0.0,0,False
2024-09-16,1.0017871492010322,1.0017871492010322,0.0,0,False
2024-09-17,1.0017871492010322,1.0017871492010322,0.0,0,False
2024-09-18,1.0017871492010322,1.0017871492010322,0.0,0,False
2024-09-19,1.0017871492010322,1.0011725864015488,-0.06134664434190862,1,True
2024-09-20,1.0011725864015488,1.0037070037020883,0.2531448957915128,1,True
2024-09-21,1.0037070037020883,0.9977339143121101,-0.5951028903800615,1,True
2024-09-22,0.9977339143121101,1.0083215807476424,1.061171348759049,1,True
2024-09-23,1.0083215807476424,1.0043265878757806,-0.3962022581029845,0,True
2024-09-24,1.0043265878757806,1.0043265878757806,0.0,0,False
2024-09-25,1.0043265878757806,1.0043265878757806,0.0,0,False
2024-09-26,1.0043265878757806,1.0043265878757806,0.0,0,False
2024-09-27,1.0043265878757806,1.0043265878757806,0.0,0,False
2024-09-28,1.0043265878757806,1.0043265878757806,0.0,0,False
2024-09-29,1.0043265878757806,1.0043265878757806,0.0,0,False
2024-09-30,1.0043265878757806,1.0043265878757806,0.0,0,False
2024-10-01,1.0043265878757806,1.0043265878757806,0.0,0,False
2024-10-02,1.0043265878757806,1.0043265878757806,0.0,0,False
2024-10-03,1.0043265878757806,1.0101953726135025,0.5843502311468907,1,True
2024-10-04,1.0101953726135025,1.0082802336490881,-0.18958104702653245,0,True
2024-10-05,1.0082802336490881,1.0082802336490881,0.0,0,False
2024-10-06,1.0082802336490881,1.0082802336490881,0.0,0,False
2024-10-07,1.0082802336490881,1.0082802336490881,0.0,0,False
2024-10-08,1.0082802336490881,1.0082802336490881,0.0,0,False
2024-10-09,1.0082802336490881,1.0082802336490881,0.0,0,False
2024-10-10,1.0082802336490881,1.0082802336490881,0.0,0,False
2024-10-11,1.0082802336490881,1.0071825581859641,-0.10886610948935838,1,True
2024-10-12,1.0071825581859641,1.0078865688178702,0.06989900948781713,0,True
2024-10-13,1.0078865688178702,1.0078865688178702,0.0,0,False
2024-10-14,1.0078865688178702,1.0078865688178702,0.0,0,False
2024-10-15,1.0078865688178702,1.0078865688178702,0.0,0,False
2024-10-16,1.0078865688178702,1.0078865688178702,0.0,0,False
2024-10-17,1.0078865688178702,1.0078865688178702,0.0,0,False
2024-10-18,1.0078865688178702,1.00826284438581,0.037333126522476334,1,True
2024-10-19,1.00826284438581,1.0043369075758446,-0.3893763250154114,1,True
2024-10-20,1.0043369075758446,1.0043369075758446,0.0,0,False
2024-10-21,1.0043369075758446,1.0140417579589571,0.9662943092011878,1,True
2024-10-22,1.0140417579589571,1.0140417579589571,0.0,0,False
2024-10-23,1.0140417579589571,1.0089781658103203,-0.4993474981571544,1,True
2024-10-24,1.0089781658103203,1.0039402151131998,-0.4993121623275698,1,True
2024-10-25,1.0039402151131998,1.0065939365030132,0.26433061947959136,1,True
2024-10-26,1.0065939365030132,1.0160484893145776,0.9392618481699033,2,True
2024-10-27,1.0160484893145776,1.0160484893145776,0.0,0,False
2024-10-28,1.0160484893145776,1.0160484893145776,0.0,0,False
2024-10-29,1.0160484893145776,1.0160484893145776,0.0,0,False
2024-10-30,1.0160484893145776,1.0160484893145776,0.0,0,False
2024-10-31,1.0160484893145776,1.0160484893145776,0.0,0,False
2024-11-01,1.0160484893145776,1.0160484893145776,0.0,0,False
2024-11-02,1.0160484893145776,1.0160484893145776,0.0,0,False
2024-11-03,1.0160484893145776,1.0160484893145776,0.0,0,False
2024-11-04,1.0160484893145776,1.0160484893145776,0.0,0,False
2024-11-05,1.0160484893145776,1.0160484893145776,0.0,0,False
2024-11-06,1.0160484893145776,1.0160484893145776,0.0,0,False
2024-11-07,1.0160484893145776,1.0160484893145776,0.0,0,False
2024-11-08,1.0160484893145776,1.0160484893145776,0.0,0,False
2024-11-09,1.0160484893145776,1.0143423140626113,-0.1679226208108675,1,True
2024-11-10,1.0143423140626113,1.016904061477624,0.2525525534621931,0,True
2024-11-11,1.016904061477624,1.0158217296818812,-0.1064340124839247,1,True
2024-11-12,1.0158217296818812,1.0170453086927622,0.12045213989113623,0,True
2024-11-13,1.0170453086927622,1.0170453086927622,0.0,0,False
2024-11-14,1.0170453086927622,1.0170453086927622,0.0,0,False
2024-11-15,1.0170453086927622,1.0170453086927622,0.0,0,False
2024-11-16,1.0170453086927622,1.0170453086927622,0.0,0,False
2024-11-17,1.0170453086927622,1.0170453086927622,0.0,0,False
2024-11-18,1.0170453086927622,1.0170453086927622,0.0,0,False
2024-11-19,1.0170453086927622,1.0170453086927622,0.0,0,False
2024-11-20,1.0170453086927622,1.0170453086927622,0.0,0,False
2024-11-21,1.0170453086927622,1.0170453086927622,0.0,0,False
2024-11-22,1.0170453086927622,1.0170453086927622,0.0,0,False
2024-11-23,1.0170453086927622,1.0205283407881602,0.34246577469345674,1,True
2024-11-24,1.0205283407881602,1.0320263678051502,1.1266739547977744,4,True
2024-11-25,1.0320263678051502,1.0320435597351638,0.0016658421286397385,1,True
2024-11-26,1.0320435597351638,1.0320435597351638,0.0,0,False
2024-11-27,1.0320435597351638,1.0320435597351638,0.0,0,False
2024-11-28,1.0320435597351638,1.0320435597351638,0.0,0,False
2024-11-29,1.0320435597351638,1.0320435597351638,0.0,0,False
2024-11-30,1.0320435597351638,1.0320435597351638,0.0,0,False
2024-12-01,1.0320435597351638,1.0320435597351638,0.0,0,False
2024-12-02,1.0320435597351638,1.0320435597351638,0.0,0,False
2024-12-03,1.0320435597351638,1.0320435597351638,0.0,0,False
2024-12-04,1.0320435597351638,1.0320435597351638,0.0,0,False
2024-12-05,1.0320435597351638,1.0360691353094866,0.39005868854564696,1,True
2024-12-06,1.0360691353094866,1.0360691353094866,0.0,0,False
2024-12-07,1.0360691353094866,1.0360691353094866,0.0,0,False
2024-12-08,1.0360691353094866,1.0360691353094866,0.0,0,False
2024-12-09,1.0360691353094866,1.0339090519026843,-0.20848834630683433,1,True
2024-12-10,1.0339090519026843,1.0339090519026843,0.0,0,False
2024-12-11,1.0339090519026843,1.0339090519026843,0.0,0,False
2024-12-12,1.0339090519026843,1.0339090519026843,0.0,0,False
2024-12-13,1.0339090519026843,1.0339090519026843,0.0,0,False
2024-12-14,1.0339090519026843,1.0339090519026843,0.0,0,False
2024-12-15,1.0339090519026843,1.027375143292889,-0.6319616408978157,2,True
2024-12-16,1.027375143292889,1.0243753631688655,-0.2919848843538131,0,True
2024-12-17,1.0243753631688655,1.0243753631688655,0.0,0,False
2024-12-18,1.0243753631688655,1.0243753631688655,0.0,0,False
2024-12-19,1.0243753631688655,1.0243753631688655,0.0,0,False
2024-12-20,1.0243753631688655,1.0263264284226459,0.1904638986772289,2,True
2024-12-21,1.0263264284226459,1.0263264284226459,0.0,0,False
2024-12-22,1.0263264284226459,1.0263264284226459,0.0,0,False
2024-12-23,1.0263264284226459,1.0263264284226459,0.0,0,False
2024-12-24,1.0263264284226459,1.0263264284226459,0.0,0,False
2024-12-25,1.0263264284226459,1.0332405128403825,0.6736730367903343,1,True
2024-12-26,1.0332405128403825,1.0321762374431307,-0.10300364571711462,0,True
2024-12-27,1.0321762374431307,1.0321762374431307,0.0,0,False
2024-12-28,1.0321762374431307,1.0321762374431307,0.0,0,False
2024-12-29,1.0321762374431307,1.0321762374431307,0.0,0,False
2024-12-30,1.0321762374431307,1.0321762374431307,0.0,0,False
2024-12-31,1.0321762374431307,1.0321762374431307,0.0,0,False
