day,start_equity,end_equity,return_pct,entries,active
2024-01-02,1.0,1.0,0.0,0,False
2024-01-03,1.0,1.0051857611110393,0.51857611110393,3,True
2024-01-04,1.0051857611110393,1.0072211380248393,0.20248763885695187,0,True
2024-01-05,1.0072211380248393,1.0072211380248393,0.0,0,False
2024-01-06,1.0072211380248393,1.0072211380248393,0.0,0,False
2024-01-07,1.0072211380248393,1.0072211380248393,0.0,0,False
2024-01-08,1.0072211380248393,1.0072211380248393,0.0,0,False
2024-01-09,1.0072211380248393,1.0072211380248393,0.0,0,False
2024-01-10,1.0072211380248393,1.0072211380248393,0.0,0,False
2024-01-11,1.0072211380248393,1.0072211380248393,0.0,0,False
2024-01-12,1.0072211380248393,1.0072211380248393,0.0,0,False
2024-01-13,1.0072211380248393,1.0072211380248393,0.0,0,False
2024-01-14,1.0072211380248393,1.0072211380248393,0.0,0,False
2024-01-15,1.0072211380248393,1.0072211380248393,0.0,0,False
2024-01-16,1.0072211380248393,1.0072211380248393,0.0,0,False
2024-01-17,1.0072211380248393,1.0072211380248393,0.0,0,False
2024-01-18,1.0072211380248393,1.0072211380248393,0.0,0,False
2024-01-19,1.0072211380248393,1.0072211380248393,0.0,0,False
2024-01-20,1.0072211380248393,1.0072211380248393,0.0,0,False
2024-01-21,1.0072211380248393,1.0072211380248393,0.0,0,False
2024-01-22,1.0072211380248393,1.0072211380248393,0.0,0,False
2024-01-23,1.0072211380248393,0.9971898162574625,-0.9959403539770983,2,True
2024-01-24,0.9971898162574625,0.9971898162574625,0.0,0,False
2024-01-25,0.9971898162574625,0.9971898162574625,0.0,0,False
2024-01-26,0.9971898162574625,0.9971898162574625,0.0,0,False
2024-01-27,0.9971898162574625,0.9971898162574625,0.0,0,False
2024-01-28,0.9971898162574625,0.9962795142797645,-0.09128673025508016,1,True
2024-01-29,0.9962795142797645,0.9962795142797645,0.0,0,False
2024-01-30,0.9962795142797645,0.9962795142797645,0.0,0,False
2024-01-31,0.9962795142797645,0.9962795142797645,0.0,0,False
2024-02-01,0.9962795142797645,0.9962795142797645,0.0,0,False
2024-02-02,0.9962795142797645,0.9962795142797645,0.0,0,False
2024-02-03,0.9962795142797645,0.9962795142797645,0.0,0,False
2024-02-04,0.9962795142797645,0.9962795142797645,0.0,0,False
2024-02-05,0.9962795142797645,0.9962795142797645,0.0,0,False
2024-02-06,0.9962795142797645,0.9913058575078851,-0.49922302933980145,1,True
2024-02-07,0.9913058575078851,0.9913058575078851,0.0,0,False
2024-02-08,0.9913058575078851,0.9913058575078851,0.0,0,False
2024-02-09,0.9913058575078851,0.9913058575078851,0.0,0,False
2024-02-10,0.9913058575078851,0.9913058575078851,0.0,0,False
2024-02-11,0.9913058575078851,0.9913058575078851,0.0,0,False
2024-02-12,0.9913058575078851,0.9913058575078851,0.0,0,False
2024-02-13,0.9913058575078851,0.9913058575078851,0.0,0,False
2024-02-14,0.9913058575078851,0.9913058575078851,0.0,0,False
2024-02-15,0.9913058575078851,0.9913058575078851,0.0,0,False
2024-02-16,0.9913058575078851,0.9913058575078851,0.0,0,False
2024-02-17,0.9913058575078851,0.9913058575078851,0.0,0,False
2024-02-18,0.9913058575078851,0.9913058575078851,0.0,0,False
2024-02-19,0.9913058575078851,0.9913058575078851,0.0,0,False
2024-02-20,0.9913058575078851,0.9913058575078851,0.0,0,False
2024-02-21,0.9913058575078851,0.9964500275309833,0.518928641865446,1,True
2024-02-22,0.9964500275309833,0.9964500275309833,0.0,0,False
2024-02-23,0.9964500275309833,0.9964500275309833,0.0,0,False
2024-02-24,0.9964500275309833,0.9964500275309833,0.0,0,False
2024-02-25,0.9964500275309833,0.9964500275309833,0.0,0,False
2024-02-26,0.9964500275309833,0.9964500275309833,0.0,0,False
2024-02-27,0.9964500275309833,0.9956548352097906,-0.07980252889983053,1,True
2024-02-28,0.9956548352097906,0.9956548352097906,0.0,0,False
2024-02-29,0.9956548352097906,0.9956548352097906,0.0,0,False
2024-03-01,0.9956548352097906,0.9956548352097906,0.0,0,False
2024-03-02,0.9956548352097906,0.9956548352097906,0.0,0,False
2024-03-03,0.9956548352097906,1.0076535203214279,1.2051048905024508,4,True
2024-03-04,1.0076535203214279,1.0098450288754486,0.21748631943663277,0,True
2024-03-05,1.0098450288754486,1.0096458633144634,-0.01972238861313036,1,True
2024-03-06,1.0096458633144634,1.0096458633144634,0.0,0,False
2024-03-07,1.0096458633144634,1.0096458633144634,0.0,0,False
2024-03-08,1.0096458633144634,1.0096458633144634,0.0,0,False
2024-03-09,1.0096458633144634,1.0096458633144634,0.0,0,False
2024-03-10,1.0096458633144634,1.0096458633144634,0.0,0,False
2024-03-11,1.0096458633144634,1.0096458633144634,0.0,0,False
2024-03-12,1.0096458633144634,1.0096458633144634,0.0,0,False
2024-03-13,1.0096458633144634,1.0096458633144634,0.0,0,False
2024-03-14,1.0096458633144634,1.0096458633144634,0.0,0,False
2024-03-15,1.0096458633144634,1.0096458633144634,0.0,0,False
2024-03-16,1.0096458633144634,1.0096458633144634,0.0,0,False
2024-03-17,1.0096458633144634,1.0096458633144634,0.0,0,False
2024-03-18,1.0096458633144634,1.0096458633144634,0.0,0,False
2024-03-19,1.0096458633144634,1.0096458633144634,0.0,0,False
2024-03-20,1.0096458633144634,1.0096458633144634,0.0,0,False
2024-03-21,1.0096458633144634,1.0096458633144634,0.0,0,False
2024-03-22,1.0096458633144634,1.0096458633144634,0.0,0,False
2024-03-23,1.0096458633144634,1.0096458633144634,0.0,0,False
2024-03-24,1.0096458633144634,1.0096458633144634,0.0,0,False
2024-03-25,1.0096458633144634,1.0096458633144634,0.0,0,False
2024-03-26,1.0096458633144634,1.0096458633144634,0.0,0,False
2024-03-27,1.0096458633144634,1.004598659830412,-0.4998983967985038,1,True
2024-03-28,1.004598659830412,1.004598659830412,0.0,0,False
2024-03-29,1.004598659830412,0.9995796612049879,-0.4996023612326317,1,True
2024-03-30,0.9995796612049879,0.9995796612049879,0.0,0,False
2024-03-31,0.9995796612049879,0.9995796612049879,0.0,0,False
2024-04-01,0.9995796612049879,0.9995796612049879,0.0,0,False
2024-04-02,0.9995796612049879,0.9995796612049879,0.0,0,False
2024-04-03,0.9995796612049879,0.9995796612049879,0.0,0,False
2024-04-04,0.9995796612049879,0.9995796612049879,0.0,0,False
2024-04-05,0.9995796612049879,0.9995203739601425,-0.005931217605403827,1,True
2024-04-06,0.9995203739601425,0.999376608813858,-0.014383413287999414,0,True
2024-04-07,0.999376608813858,0.999376608813858,0.0,0,False
2024-04-08,0.999376608813858,0.999376608813858,0.0,0,False
2024-04-09,0.999376608813858,0.999376608813858,0.0,0,False
2024-04-10,0.999376608813858,0.9943866314276157,-0.4993090034561498,1,True
2024-04-11,0.9943866314276157,0.9943866314276157,0.0,0,False
2024-04-12,0.9943866314276157,0.9968627349980496,0.24900813146280232,1,True
2024-04-13,0.9968627349980496,0.9769723002433746,-1.9953032705865903,4,True
2024-04-14,0.9769723002433746,0.9769723002433746,0.0,0,False
2024-04-15,0.9769723002433746,0.9769723002433746,0.0,0,False
2024-04-16,0.9769723002433746,0.9769723002433746,0.0,0,False
2024-04-17,0.9769723002433746,0.9769723002433746,0.0,0,False
2024-04-18,0.9769723002433746,0.9769723002433746,0.0,0,False
2024-04-19,0.9769723002433746,0.9769723002433746,0.0,0,False
2024-04-20,0.9769723002433746,0.9769723002433746,0.0,0,False
2024-04-21,0.9769723002433746,0.9769723002433746,0.0,0,False
2024-04-22,0.9769723002433746,0.9769723002433746,0.0,0,False
2024-04-23,0.9769723002433746,0.9769723002433746,0.0,0,False
2024-04-24,0.9769723002433746,0.9769723002433746,0.0,0,False
2024-04-25,0.9769723002433746,0.9769723002433746,0.0,0,False
2024-04-26,0.9769723002433746,0.9769723002433746,0.0,0,False
2024-04-27,0.9769723002433746,0.9769723002433746,0.0,0,False
2024-04-28,0.9769723002433746,0.9769723002433746,0.0,0,False
2024-04-29,0.9769723002433746,0.985084570597853,0.8303480408254682,1,True
2024-04-30,0.985084570597853,0.9862297405111755,0.11625092377880453,0,True
2024-05-01,0.9862297405111755,0.9862297405111755,0.0,0,False
2024-05-02,0.9862297405111755,0.9862297405111755,0.0,0,False
2024-05-03,0.9862297405111755,0.9862297405111755,0.0,0,False
2024-05-04,0.9862297405111755,0.9862297405111755,0.0,0,False
2024-05-05,0.9862297405111755,0.9862297405111755,0.0,0,False
2024-05-06,0.9862297405111755,0.9862297405111755,0.0,0,False
2024-05-07,0.9862297405111755,0.9862297405111755,0.0,0,False
2024-05-08,0.9862297405111755,0.9862297405111755,0.0,0,False
2024-05-09,0.9862297405111755,0.9842012494862918,-0.20568138858114704,1,True
2024-05-10,0.9842012494862918,0.9842012494862918,0.0,0,False
2024-05-11,0.9842012494862918,0.9844665088297789,0.02695173813542784,1,True
2024-05-12,0.9844665088297789,0.980399496709344,-0.413118382794897,0,True
2024-05-13,0.980399496709344,0.980399496709344,0.0,0,False
2024-05-14,0.980399496709344,0.980399496709344,0.0,0,False
2024-05-15,0.980399496709344,0.980399496709344,0.0,0,False
2024-05-16,0.980399496709344,0.980399496709344,0.0,0,False
2024-05-17,0.980399496709344,0.980399496709344,0.0,0,False
2024-05-18,0.980399496709344,0.980399496709344,0.0,0,False
2024-05-19,0.980399496709344,0.980399496709344,0.0,0,False
2024-05-20,0.980399496709344,0.980399496709344,0.0,0,False
2024-05-21,0.980399496709344,0.980399496709344,0.0,0,False
2024-05-22,0.980399496709344,0.980399496709344,0.0,0,False
2024-05-23,0.980399496709344,0.980399496709344,0.0,0,False
2024-05-24,0.980399496709344,0.9826519919278426,0.2297527922096032,1,True
2024-05-25,0.9826519919278426,0.9826519919278426,0.0,0,False
2024-05-26,0.9826519919278426,0.9826519919278426,0.0,0,False
2024-05-27,0.9826519919278426,0.9826519919278426,0.0,0,False
2024-05-28,0.9826519919278426,0.9826519919278426,0.0,0,False
2024-05-29,0.9826519919278426,0.9826519919278426,0.0,0,False
2024-05-30,0.9826519919278426,0.9826519919278426,0.0,0,False
2024-05-31,0.9826519919278426,0.9826519919278426,0.0,0,False
2024-06-01,0.9826519919278426,0.9826519919278426,0.0,0,False
2024-06-02,0.9826519919278426,0.9826519919278426,0.0,0,False
2024-06-03,0.9826519919278426,0.9837526183173664,0.11200571500034062,1,True
2024-06-04,0.9837526183173664,0.9846255853980352,0.08873847595567419,1,True
2024-06-05,0.9846255853980352,0.9846255853980352,0.0,0,False
2024-06-06,0.9846255853980352,0.9846255853980352,0.0,0,False
2024-06-07,0.9846255853980352,0.9846255853980352,0.0,0,False
2024-06-08,0.9846255853980352,1.0094983914290474,2.526118191511073,4,True
2024-06-09,1.0094983914290474,1.0094983914290474,0.0,0,False
2024-06-10,1.0094983914290474,1.0094983914290474,0.0,0,False
2024-06-11,1.0094983914290474,1.0094983914290474,0.0,0,False
2024-06-12,1.0094983914290474,1.0094983914290474,0.0,0,False
2024-06-13,1.0094983914290474,1.0094983914290474,0.0,0,False
2024-06-14,1.0094983914290474,1.0091951360381204,-0.030040205462611436,1,True
2024-06-15,1.0091951360381204,1.018458999440213,0.9179457045800365,1,True
2024-06-16,1.018458999440213,1.018458999440213,0.0,0,False
2024-06-17,1.018458999440213,1.018458999440213,0.0,0,False
2024-06-18,1.018458999440213,1.0245306299918575,0.5961585645550604,4,True
2024-06-19,1.0245306299918575,1.0245306299918575,0.0,0,False
2024-06-20,1.0245306299918575,1.0245306299918575,0.0,0,False
2024-06-21,1.0245306299918575,1.0245306299918575,0.0,0,False
2024-06-22,1.0245306299918575,1.0245306299918575,0.0,0,False
2024-06-23,1.0245306299918575,1.030416489004403,0.5744932206265263,1,True
2024-06-24,1.030416489004403,1.030416489004403,0.0,0,False
2024-06-25,1.030416489004403,1.030416489004403,0.0,0,False
2024-06-26,1.030416489004403,1.030416489004403,0.0,0,False
2024-06-27,1.030416489004403,1.030416489004403,0.0,0,False
2024-06-28,1.030416489004403,1.030416489004403,0.0,0,False
2024-06-29,1.030416489004403,1.020151490108121,-0.9961990132941412,2,True
2024-06-30,1.020151490108121,1.020151490108121,0.0,0,False
2024-07-01,1.020151490108121,1.020151490108121,0.0,0,False
2024-07-02,1.020151490108121,1.020151490108121,0.0,0,False
2024-07-03,1.020151490108121,1.020151490108121,0.0,0,False
2024-07-04,1.020151490108121,1.020151490108121,0.0,0,False
2024-07-05,1.020151490108121,1.020151490108121,0.0,0,False
2024-07-06,1.020151490108121,1.020151490108121,0.0,0,False
2024-07-07,1.020151490108121,1.020151490108121,0.0,0,False
2024-07-08,1.020151490108121,1.020151490108121,0.0,0,False
2024-07-09,1.020151490108121,1.020151490108121,0.0,0,False
2024-07-10,1.020151490108121,1.020151490108121,0.0,0,False
2024-07-11,1.020151490108121,1.020151490108121,0.0,0,False
2024-07-12,1.020151490108121,1.020151490108121,0.0,0,False
2024-07-13,1.020151490108121,1.020151490108121,0.0,0,False
2024-07-14,1.020151490108121,1.020151490108121,0.0,0,False
2024-07-15,1.020151490108121,1.020151490108121,0.0,0,False
2024-07-16,1.020151490108121,1.0182171579068116,-0.18961225073585997,1,True
2024-07-17,1.0182171579068116,1.0182171579068116,0.0,0,False
2024-07-18,1.0182171579068116,1.0182171579068116,0.0,0,False
2024-07-19,1.0182171579068116,1.0182171579068116,0.0,0,False
2024-07-20,1.0182171579068116,1.0193355473112424,0.1098380041768321,1,True
2024-07-21,1.0193355473112424,1.0193355473112424,0.0,0,False
2024-07-22,1.0193355473112424,1.0193355473112424,0.0,0,False
2024-07-23,1.0193355473112424,1.0142394504203631,-0.499943017225446,1,True
2024-07-24,1.0142394504203631,1.0142394504203631,0.0,0,False
2024-07-25,1.0142394504203631,1.0142394504203631,0.0,0,False
2024-07-26,1.0142394504203631,1.0142394504203631,0.0,0,False
2024-07-27,1.0142394504203631,1.0142394504203631,0.0,0,False
2024-07-28,1.0142394504203631,1.0142394504203631,0.0,0,False
2024-07-29,1.0142394504203631,1.0142394504203631,0.0,0,False
2024-07-30,1.0142394504203631,1.0142394504203631,0.0,0,False
2024-07-31,1.0142394504203631,1.0091728988748567,-0.49954195169656934,1,True
2024-08-01,1.0091728988748567,1.0091728988748567,0.0,0,False
2024-08-02,1.0091728988748567,1.0091728988748567,0.0,0,False
2024-08-03,1.0091728988748567,1.0041331053624005,-0.4993984200403312,1,True
2024-08-04,1.0041331053624005,1.0041331053624005,0.0,0,False
2024-08-05,1.0041331053624005,1.0041331053624005,0.0,0,False
2024-08-06,1.0041331053624005,1.0041331053624005,0.0,0,False
2024-08-07,1.0041331053624005,1.0041331053624005,0.0,0,False
2024-08-08,1.0041331053624005,1.0041331053624005,0.0,0,False
2024-08-09,1.0041331053624005,1.0041331053624005,0.0,0,False
2024-08-10,1.0041331053624005,1.0041331053624005,0.0,0,False
2024-08-11,1.0041331053624005,1.0041331053624005,0.0,0,False
2024-08-12,1.0041331053624005,1.0041331053624005,0.0,0,False
2024-08-13,1.0041331053624005,1.0041331053624005,0.0,0,False
2024-08-14,1.0041331053624005,1.0041331053624005,0.0,0,False
2024-08-15,1.0041331053624005,1.0041331053624005,0.0,0,False
2024-08-16,1.0041331053624005,1.0041331053624005,0.0,0,False
2024-08-17,1.0041331053624005,1.0041331053624005,0.0,0,False
2024-08-18,1.0041331053624005,1.0041331053624005,0.0,0,False
2024-08-19,1.0041331053624005,1.0041331053624005,0.0,0,False
2024-08-20,1.0041331053624005,1.0041331053624005,0.0,0,False
2024-08-21,1.0041331053624005,1.0041331053624005,0.0,0,False
2024-08-22,1.0041331053624005,1.0041331053624005,0.0,0,False
2024-08-23,1.0041331053624005,1.0041331053624005,0.0,0,False
2024-08-24,1.0041331053624005,1.0041331053624005,0.0,0,False
2024-08-25,1.0041331053624005,1.0041331053624005,0.0,0,False
2024-08-26,1.0041331053624005,1.0041331053624005,0.0,0,False
2024-08-27,1.0041331053624005,1.0041331053624005,0.0,0,False
2024-08-28,1.0041331053624005,1.0041331053624005,0.0,0,False
2024-08-29,1.0041331053624005,0.9991198431400163,-0.4992627168262542,1,True
2024-08-30,0.9991198431400163,0.9991198431400163,0.0,0,False
2024-08-31,0.9991198431400163,0.9991198431400163,0.0,0,False
2024-09-01,0.9991198431400163,0.996175217023412,-0.29472201326219416,1,True
2024-09-02,0.996175217023412,0.9979351116556897,0.17666516915932906,0,True
2024-09-03,0.9979351116556897,0.9979351116556897,0.0,0,False
2024-09-04,0.9979351116556897,0.9979351116556897,0.0,0,False
2024-09-05,0.9979351116556897,0.9979351116556897,0.0,0,False
2024-09-06,0.9979351116556897,0.9979351116556897,0.0,0,False
2024-09-07,0.9979351116556897,0.9979351116556897,0.0,0,False
2024-09-08,0.9979351116556897,0.9979351116556897,0.0,0,False
2024-09-09,0.9979351116556897,0.9979351116556897,0.0,0,False
2024-09-10,0.9979351116556897,0.9979351116556897,0.0,0,False
2024-09-11,0.9979351116556897,0.9979351116556897,0.0,0,False
2024-09-12,0.9979351116556897,0.9979351116556897,0.0,0,False
2024-09-13,0.9979351116556897,0.9979351116556897,0.0,0,False
2024-09-14,0.9979351116556897,0.9979351116556897,0.0,0,False
2024-09-15,0.9979351116556897,0.9979351116556897,0.0,0,False
2024-09-16,0.9979351116556897,0.9979351116556897,0.0,0,False
2024-09-17,0.9979351116556897,0.9979351116556897,0.0,0,False
2024-09-18,0.9979351116556897,0.9979351116556897,0.0,0,False
2024-09-19,0.9979351116556897,0.9979351116556897,0.0,0,False
2024-09-20,0.9979351116556897,0.9979351116556897,0.0,0,False
2024-09-21,0.9979351116556897,0.9979351116556897,0.0,0,False
2024-09-22,0.9979351116556897,0.9979351116556897,0.0,0,False
2024-09-23,0.9979351116556897,0.9979351116556897,0.0,0,False
2024-09-24,0.9979351116556897,0.9979351116556897,0.0,0,False
2024-09-25,0.9979351116556897,0.9979351116556897,0.0,0,False
2024-09-26,0.9979351116556897,0.9979351116556897,0.0,0,False
2024-09-27,0.9979351116556897,0.9979351116556897,0.0,0,False
2024-09-28,0.9979351116556897,0.9979351116556897,0.0,0,False
2024-09-29,0.9979351116556897,0.9979351116556897,0.0,0,False
2024-09-30,0.9979351116556897,0.9979351116556897,0.0,0,False
2024-10-01,0.9979351116556897,0.9979351116556897,0.0,0,False
2024-10-02,0.9979351116556897,0.9979351116556897,0.0,0,False
2024-10-03,0.9979351116556897,0.9979351116556897,0.0,0,False
2024-10-04,0.9979351116556897,0.9979351116556897,0.0,0,False
2024-10-05,0.9979351116556897,0.9979351116556897,0.0,0,False
2024-10-06,0.9979351116556897,0.9979351116556897,0.0,0,False
2024-10-07,0.9979351116556897,0.9979351116556897,0.0,0,False
2024-10-08,0.9979351116556897,0.9979351116556897,0.0,0,False
2024-10-09,0.9979351116556897,0.9979351116556897,0.0,0,False
2024-10-10,0.9979351116556897,0.9979351116556897,0.0,0,False
2024-10-11,0.9979351116556897,0.9979351116556897,0.0,0,False
2024-10-12,0.9979351116556897,0.9979351116556897,0.0,0,False
2024-10-13,0.9979351116556897,0.9979351116556897,0.0,0,False
2024-10-14,0.9979351116556897,0.9979351116556897,0.0,0,False
2024-10-15,0.9979351116556897,0.9979351116556897,0.0,0,False
2024-10-16,0.9979351116556897,0.9979351116556897,0.0,0,False
2024-10-17,0.9979351116556897,0.9979351116556897,0.0,0,False
2024-10-18,0.9979351116556897,0.9979351116556897,0.0,0,False
2024-10-19,0.9979351116556897,0.9979351116556897,0.0,0,False
2024-10-20,0.9979351116556897,0.9979351116556897,0.0,0,False
2024-10-21,0.9979351116556897,0.9979351116556897,0.0,0,False
2024-10-22,0.9979351116556897,0.9979351116556897,0.0,0,False
2024-10-23,0.9979351116556897,0.9979351116556897,0.0,0,False
2024-10-24,0.9979351116556897,0.9979351116556897,0.0,0,False
2024-10-25,0.9979351116556897,0.9979351116556897,0.0,0,False
2024-10-26,0.9979351116556897,0.9979351116556897,0.0,0,False
2024-10-27,0.9979351116556897,0.9979351116556897,0.0,0,False
2024-10-28,0.9979351116556897,0.9979351116556897,0.0,0,False
2024-10-29,0.9979351116556897,0.9979351116556897,0.0,0,False
2024-10-30,0.9979351116556897,0.9979351116556897,0.0,0,False
2024-10-31,0.9979351116556897,0.9979351116556897,0.0,0,False
2024-11-01,0.9979351116556897,0.9979351116556897,0.0,0,False
2024-11-02,0.9979351116556897,0.9979351116556897,0.0,0,False
2024-11-03,0.9979351116556897,0.9979351116556897,0.0,0,False
2024-11-04,0.9979351116556897,0.9979351116556897,0.0,0,False
2024-11-05,0.9979351116556897,0.9979351116556897,0.0,0,False
2024-11-06,0.9979351116556897,0.9979351116556897,0.0,0,False
2024-11-07,0.9979351116556897,0.9979351116556897,0.0,0,False
2024-11-08,0.9979351116556897,0.9979351116556897,0.0,0,False
2024-11-09,0.9979351116556897,0.9967438810517363,-0.11936954517784981,1,True
2024-11-10,0.9967438810517363,0.9987167759481624,0.19793398624574632,0,True
2024-11-11,0.9987167759481624,0.9987167759481624,0.0,0,False
2024-11-12,0.9987167759481624,0.9987167759481624,0.0,0,False
2024-11-13,0.9987167759481624,0.9987167759481624,0.0,0,False
2024-11-14,0.9987167759481624,0.9987167759481624,0.0,0,False
2024-11-15,0.9987167759481624,0.9987167759481624,0.0,0,False
2024-11-16,0.9987167759481624,0.9987167759481624,0.0,0,False
2024-11-17,0.9987167759481624,0.9987167759481624,0.0,0,False
2024-11-18,0.9987167759481624,0.9987167759481624,0.0,0,False
2024-11-19,0.9987167759481624,0.9987167759481624,0.0,0,False
2024-11-20,0.9987167759481624,0.9987167759481624,0.0,0,False
2024-11-21,0.9987167759481624,0.9987167759481624,0.0,0,False
2024-11-22,0.9987167759481624,0.9987167759481624,0.0,0,False
2024-11-23,0.9987167759481624,0.9987167759481624,0.0,0,False
2024-11-24,0.9987167759481624,1.0050582868318783,0.634965891876127,2,True
2024-11-25,1.0050582868318783,1.0050582868318783,0.0,0,False
2024-11-26,1.0050582868318783,1.0050582868318783,0.0,0,False
2024-11-27,1.0050582868318783,1.0050582868318783,0.0,0,False
2024-11-28,1.0050582868318783,1.0050582868318783,0.0,0,False
2024-11-29,1.0050582868318783,1.0050582868318783,0.0,0,False
2024-11-30,1.0050582868318783,1.0050582868318783,0.0,0,False
2024-12-01,1.0050582868318783,1.0050582868318783,0.0,0,False
2024-12-02,1.0050582868318783,1.0050582868318783,0.0,0,False
2024-12-03,1.0050582868318783,1.0050582868318783,0.0,0,False
2024-12-04,1.0050582868318783,1.0050582868318783,0.0,0,False
2024-12-05,1.0050582868318783,1.0050582868318783,0.0,0,False
2024-12-06,1.0050582868318783,1.0050582868318783,0.0,0,False
2024-12-07,1.0050582868318783,1.0050582868318783,0.0,0,False
2024-12-08,1.0050582868318783,1.0050582868318783,0.0,0,False
2024-12-09,1.0050582868318783,1.0050582868318783,0.0,0,False
2024-12-10,1.0050582868318783,1.0050582868318783,0.0,0,False
2024-12-11,1.0050582868318783,1.0050582868318783,0.0,0,False
2024-12-12,1.0050582868318783,1.0050582868318783,0.0,0,False
2024-12-13,1.0050582868318783,1.0050582868318783,0.0,0,False
2024-12-14,1.0050582868318783,1.0050582868318783,0.0,0,False
2024-12-15,1.0050582868318783,1.0000407168409693,-0.49923174174556495,1,True
2024-12-16,1.0000407168409693,1.0000407168409693,0.0,0,False
2024-12-17,1.0000407168409693,1.0000407168409693,0.0,0,False
2024-12-18,1.0000407168409693,1.0000407168409693,0.0,0,False
2024-12-19,1.0000407168409693,1.0000407168409693,0.0,0,False
2024-12-20,1.0000407168409693,1.0002934352429083,0.025270811246302927,1,True
2024-12-21,1.0002934352429083,1.0002934352429083,0.0,0,False
2024-12-22,1.0002934352429083,1.0002934352429083,0.0,0,False
2024-12-23,1.0002934352429083,1.0002934352429083,0.0,0,False
2024-12-24,1.0002934352429083,1.0002934352429083,0.0,0,False
2024-12-25,1.0002934352429083,1.0002934352429083,0.0,0,False
2024-12-26,1.0002934352429083,1.0002934352429083,0.0,0,False
2024-12-27,1.0002934352429083,1.0002934352429083,0.0,0,False
2024-12-28,1.0002934352429083,1.0002934352429083,0.0,0,False
2024-12-29,1.0002934352429083,1.0002934352429083,0.0,0,False
2024-12-30,1.0002934352429083,1.0002934352429083,0.0,0,False
2024-12-31,1.0002934352429083,1.0002934352429083,0.0,0,False
