day,start_equity,end_equity,return_pct,entries,active
2021-09-02,1.0,1.0,0.0,0,False
2021-09-03,1.0,1.0,0.0,0,False
2021-09-04,1.0,1.0,0.0,0,False
2021-09-05,1.0,1.0,0.0,0,False
2021-09-06,1.0,1.0,0.0,0,False
2021-09-07,1.0,1.0,0.0,0,False
2021-09-08,1.0,1.0,0.0,0,False
2021-09-09,1.0,1.0,0.0,0,False
2021-09-10,1.0,1.0,0.0,0,False
2021-09-11,1.0,1.0,0.0,0,False
2021-09-12,1.0,1.0,0.0,0,False
2021-09-13,1.0,1.0,0.0,0,False
2021-09-14,1.0,1.0,0.0,0,False
2021-09-15,1.0,1.0,0.0,0,False
2021-09-16,1.0,1.0,0.0,0,False
2021-09-17,1.0,1.0,0.0,0,False
2021-09-18,1.0,1.0,0.0,0,False
2021-09-19,1.0,1.0,0.0,0,False
2021-09-20,1.0,1.0,0.0,0,False
2021-09-21,1.0,1.0,0.0,0,False
2021-09-22,1.0,1.0,0.0,0,False
2021-09-23,1.0,1.0,0.0,0,False
2021-09-24,1.0,1.0,0.0,0,False
2021-09-25,1.0,1.0,0.0,0,False
2021-09-26,1.0,1.0,0.0,0,False
2021-09-27,1.0,1.0,0.0,0,False
2021-09-28,1.0,1.0,0.0,0,False
2021-09-29,1.0,1.0,0.0,0,False
2021-09-30,1.0,1.0,0.0,0,False
2021-10-01,1.0,1.0,0.0,0,False
2021-10-02,1.0,1.0,0.0,0,False
2021-10-03,1.0,1.0,0.0,0,False
2021-10-04,1.0,1.0,0.0,0,False
2021-10-05,1.0,0.9995269898820623,-0.04730101179376556,1,True
2021-10-06,0.9995269898820623,1.0021051966880898,0.25794269010501747,3,True
2021-10-07,1.0021051966880898,0.992771942817426,-0.9313646812240672,2,True
2021-10-08,0.992771942817426,0.9923132336408039,-0.04620488924377275,1,True
2021-10-09,0.9923132336408039,0.9939500505579365,0.16494962091022636,3,True
2021-10-10,0.9939500505579365,0.9879444828266941,-0.6042122265471295,1,True
2021-10-11,0.9879444828266941,0.9879444828266941,0.0,0,False
2021-10-12,0.9879444828266941,0.9879444828266941,0.0,0,False
2021-10-13,0.9879444828266941,1.0036148950915493,1.5861632447219387,4,True
2021-10-14,1.0036148950915493,1.013871619237482,1.0219780710804427,0,True
2021-10-15,1.013871619237482,1.014914866652332,0.10289738809678983,4,True
2021-10-16,1.014914866652332,1.02956072138049,1.4430623897023986,2,True
2021-10-17,1.02956072138049,1.02956072138049,0.0,0,False
2021-10-18,1.02956072138049,1.0322736174947245,0.2635003509649181,1,True
2021-10-19,1.0322736174947245,1.0322736174947245,0.0,0,False
2021-10-20,1.0322736174947245,1.0322736174947245,0.0,0,False
2021-10-21,1.0322736174947245,1.0322736174947245,0.0,0,False
2021-10-22,1.0322736174947245,1.0322736174947245,0.0,0,False
2021-10-23,1.0322736174947245,1.0322736174947245,0.0,0,False
2021-10-24,1.0322736174947245,1.0322736174947245,0.0,0,False
2021-10-25,1.0322736174947245,1.0452814432573099,1.2601141346763045,2,True
2021-10-26,1.0452814432573099,1.0459470317669861,0.06367553102273327,0,True
2021-10-27,1.0459470317669861,1.0493444510229046,0.3248175244762619,7,True
2021-10-28,1.0493444510229046,1.0461415760951558,-0.30522627004190284,3,True
2021-10-29,1.0461415760951558,1.0402100684102977,-0.5669890022914625,0,True
2021-10-30,1.0402100684102977,1.0418599293738025,0.15860844012269837,1,True
2021-10-31,1.0418599293738025,1.0360591633680434,-0.5567702377464068,1,True
2021-11-01,1.0360591633680434,1.0458370791042986,0.9437603644630643,2,True
2021-11-02,1.0458370791042986,1.0417163137368708,-0.3940159944373911,1,True
2021-11-03,1.0417163137368708,1.041091620385215,-0.05996770362699522,1,True
2021-11-04,1.041091620385215,1.064162611424619,2.216038491489103,1,True
2021-11-05,1.064162611424619,1.0465776206724293,-1.6524721469633463,3,True
2021-11-06,1.0465776206724293,1.0393399833846797,-0.691552842788612,2,True
2021-11-07,1.0393399833846797,1.0393399833846797,0.0,0,False
2021-11-08,1.0393399833846797,1.0393399833846797,0.0,0,False
2021-11-09,1.0393399833846797,1.0393399833846797,0.0,0,False
2021-11-10,1.0393399833846797,1.0393399833846797,0.0,0,False
2021-11-11,1.0393399833846797,1.0180684120693295,-2.046642259068865,8,True
2021-11-12,1.0180684120693295,1.0150548323081594,-0.296009553527421,1,True
2021-11-13,1.0150548323081594,1.0143590977922188,-0.06854156975525383,1,True
2021-11-14,1.0143590977922188,1.0143590977922188,0.0,0,False
2021-11-15,1.0143590977922188,1.0143590977922188,0.0,0,False
2021-11-16,1.0143590977922188,1.0402774388681864,2.5551445373122483,7,True
2021-11-17,1.0402774388681864,1.0291324844991951,-1.0713444272248074,0,True
2021-11-18,1.0291324844991951,1.018300148554657,-1.0525696261360795,4,True
2021-11-19,1.018300148554657,1.0346076881217574,1.6014472344177522,5,True
2021-11-20,1.0346076881217574,1.0336687765463448,-0.09075049278989278,0,True
2021-11-21,1.0336687765463448,1.0312255544445188,-0.23636411946089675,1,True
2021-11-22,1.0312255544445188,1.0188630748382306,-1.1988143188468081,5,True
2021-11-23,1.0188630748382306,1.0163796095653945,-0.2437486777337905,0,True
2021-11-24,1.0163796095653945,1.0120024212065444,-0.43066471598360856,2,True
2021-11-25,1.0120024212065444,1.0062338946828753,-0.5700111385891438,5,True
2021-11-26,1.0062338946828753,0.9773086259336874,-2.874606878384267,6,True
2021-11-27,0.9773086259336874,0.9773086259336874,0.0,0,False
2021-11-28,0.9773086259336874,0.9710759448201401,-0.6377392921906089,7,True
2021-11-29,0.9710759448201401,0.9630245543157242,-0.8291205798437562,1,True
2021-11-30,0.9630245543157242,0.952318490689037,-1.1117124250579868,2,True
2021-12-01,0.952318490689037,0.9548584690054845,0.2667152156848207,3,True
2021-12-02,0.9548584690054845,0.9545462838201839,-0.03269439350794823,5,True
2021-12-03,0.9545462838201839,0.9517233018420249,-0.2957407122115785,2,True
2021-12-04,0.9517233018420249,0.9307345557803915,-2.2053411974899073,12,True
2021-12-05,0.9307345557803915,0.932653104368187,0.20613273418077505,3,True
2021-12-06,0.932653104368187,0.9299962772668046,-0.2848676629004898,15,True
2021-12-07,0.9299962772668046,0.9437055272713608,1.4741188045232612,0,True
2021-12-08,0.9437055272713608,0.9452704071131874,0.16582289671984718,2,True
2021-12-09,0.9452704071131874,0.9429340004880383,-0.24716807038150934,2,True
2021-12-10,0.9429340004880383,0.9359005597605222,-0.7459101828840353,4,True
2021-12-11,0.9359005597605222,0.9325265870938156,-0.36050546519278415,2,True
2021-12-12,0.9325265870938156,0.9325265870938156,0.0,0,False
2021-12-13,0.9325265870938156,0.9295954490835131,-0.3143221920821948,2,True
2021-12-14,0.9295954490835131,0.9288991700238854,-0.07490129822753655,1,True
2021-12-15,0.9288991700238854,0.9290014586102978,0.011011807278249464,1,True
2021-12-16,0.9290014586102978,0.9290014586102978,0.0,0,False
2021-12-17,0.9290014586102978,0.9270733683205047,-0.20754437702147355,5,True
2021-12-18,0.9270733683205047,0.9268771929182636,-0.02116072027787963,1,True
2021-12-19,0.9268771929182636,0.9244171251949982,-0.26541463551605915,1,True
2021-12-20,0.9244171251949982,0.9244171251949982,0.0,0,False
2021-12-21,0.9244171251949982,0.922816626615854,-0.17313597244389412,1,True
2021-12-22,0.922816626615854,0.9225444316241835,-0.029496108307958124,0,True
2021-12-23,0.9225444316241835,0.9225444316241835,0.0,0,False
2021-12-24,0.9225444316241835,0.9225444316241835,0.0,0,False
2021-12-25,0.9225444316241835,0.9245585125005117,0.21831803513054915,2,True
2021-12-26,0.9245585125005117,0.9239046236220044,-0.0707244451991218,0,True
2021-12-27,0.9239046236220044,0.9239046236220044,0.0,0,False
2021-12-28,0.9239046236220044,0.9225012824698331,-0.15189242658725233,1,True
2021-12-29,0.9225012824698331,0.9225012824698331,0.0,0,False
2021-12-30,0.9225012824698331,0.9225012824698331,0.0,0,False
2021-12-31,0.9225012824698331,0.9225012824698331,0.0,0,False
2022-01-01,0.9225012824698331,0.9225012824698331,0.0,0,False
2022-01-02,0.9225012824698331,0.9225012824698331,0.0,0,False
2022-01-03,0.9225012824698331,0.9225012824698331,0.0,0,False
2022-01-04,0.9225012824698331,0.9225012824698331,0.0,0,False
2022-01-05,0.9225012824698331,0.9225934378301531,0.009989727068271392,1,True
2022-01-06,0.9225934378301531,0.9102510276084388,-1.3377951452529735,8,True
2022-01-07,0.9102510276084388,0.9050078020169877,-0.5760197387776556,5,True
2022-01-08,0.9050078020169877,0.9050078020169877,0.0,0,False
2022-01-09,0.9050078020169877,0.9050078020169877,0.0,0,False
2022-01-10,0.9050078020169877,0.9050078020169877,0.0,0,False
2022-01-11,0.9050078020169877,0.9050078020169877,0.0,0,False
2022-01-12,0.9050078020169877,0.9050078020169877,0.0,0,False
2022-01-13,0.9050078020169877,0.9050078020169877,0.0,0,False
2022-01-14,0.9050078020169877,0.9050078020169877,0.0,0,False
2022-01-15,0.9050078020169877,0.9050078020169877,0.0,0,False
2022-01-16,0.9050078020169877,0.9050078020169877,0.0,0,False
2022-01-17,0.9050078020169877,0.9050078020169877,0.0,0,False
2022-01-18,0.9050078020169877,0.9050078020169877,0.0,0,False
2022-01-19,0.9050078020169877,0.9050078020169877,0.0,0,False
2022-01-20,0.9050078020169877,0.9050078020169877,0.0,0,False
2022-01-21,0.9050078020169877,0.9050078020169877,0.0,0,False
2022-01-22,0.9050078020169877,0.9050078020169877,0.0,0,False
2022-01-23,0.9050078020169877,0.9050078020169877,0.0,0,False
2022-01-24,0.9050078020169877,0.9050078020169877,0.0,0,False
2022-01-25,0.9050078020169877,0.9050078020169877,0.0,0,False
2022-01-26,0.9050078020169877,0.9050078020169877,0.0,0,False
2022-01-27,0.9050078020169877,0.9050078020169877,0.0,0,False
2022-01-28,0.9050078020169877,0.9050078020169877,0.0,0,False
2022-01-29,0.9050078020169877,0.9050078020169877,0.0,0,False
2022-01-30,0.9050078020169877,0.9050078020169877,0.0,0,False
2022-01-31,0.9050078020169877,0.9050078020169877,0.0,0,False
2022-02-01,0.9050078020169877,0.9050078020169877,0.0,0,False
2022-02-02,0.9050078020169877,0.9050078020169877,0.0,0,False
2022-02-03,0.9050078020169877,0.9050078020169877,0.0,0,False
2022-02-04,0.9050078020169877,0.9050078020169877,0.0,0,False
2022-02-05,0.9050078020169877,0.9050078020169877,0.0,0,False
2022-02-06,0.9050078020169877,0.9050078020169877,0.0,0,False
2022-02-07,0.9050078020169877,0.9050078020169877,0.0,0,False
2022-02-08,0.9050078020169877,0.9050078020169877,0.0,0,False
2022-02-09,0.9050078020169877,0.9050078020169877,0.0,0,False
2022-02-10,0.9050078020169877,0.9050078020169877,0.0,0,False
2022-02-11,0.9050078020169877,0.9050078020169877,0.0,0,False
2022-02-12,0.9050078020169877,0.9050078020169877,0.0,0,False
2022-02-13,0.9050078020169877,0.9050078020169877,0.0,0,False
2022-02-14,0.9050078020169877,0.9050078020169877,0.0,0,False
2022-02-15,0.9050078020169877,0.9050078020169877,0.0,0,False
2022-02-16,0.9050078020169877,0.9050078020169877,0.0,0,False
2022-02-17,0.9050078020169877,0.9050078020169877,0.0,0,False
2022-02-18,0.9050078020169877,0.9050078020169877,0.0,0,False
2022-02-19,0.9050078020169877,0.9050078020169877,0.0,0,False
2022-02-20,0.9050078020169877,0.9050078020169877,0.0,0,False
2022-02-21,0.9050078020169877,0.9050078020169877,0.0,0,False
2022-02-22,0.9050078020169877,0.9050078020169877,0.0,0,False
2022-02-23,0.9050078020169877,0.9050078020169877,0.0,0,False
2022-02-24,0.9050078020169877,0.9050078020169877,0.0,0,False
2022-02-25,0.9050078020169877,0.9050078020169877,0.0,0,False
2022-02-26,0.9050078020169877,0.9050078020169877,0.0,0,False
2022-02-27,0.9050078020169877,0.9050078020169877,0.0,0,False
2022-02-28,0.9050078020169877,0.9050078020169877,0.0,0,False
2022-03-01,0.9050078020169877,0.9050078020169877,0.0,0,False
2022-03-02,0.9050078020169877,0.9050078020169877,0.0,0,False
2022-03-03,0.9050078020169877,0.9050078020169877,0.0,0,False
2022-03-04,0.9050078020169877,0.9050078020169877,0.0,0,False
2022-03-05,0.9050078020169877,0.9050078020169877,0.0,0,False
2022-03-06,0.9050078020169877,0.9050078020169877,0.0,0,False
2022-03-07,0.9050078020169877,0.9050078020169877,0.0,0,False
2022-03-08,0.9050078020169877,0.9050078020169877,0.0,0,False
2022-03-09,0.9050078020169877,0.9050078020169877,0.0,0,False
2022-03-10,0.9050078020169877,0.9050078020169877,0.0,0,False
2022-03-11,0.9050078020169877,0.9050078020169877,0.0,0,False
2022-03-12,0.9050078020169877,0.9050078020169877,0.0,0,False
2022-03-13,0.9050078020169877,0.9050078020169877,0.0,0,False
2022-03-14,0.9050078020169877,0.9050078020169877,0.0,0,False
2022-03-15,0.9050078020169877,0.9050078020169877,0.0,0,False
2022-03-16,0.9050078020169877,0.9050078020169877,0.0,0,False
2022-03-17,0.9050078020169877,0.9050078020169877,0.0,0,False
2022-03-18,0.9050078020169877,0.9050078020169877,0.0,0,False
2022-03-19,0.9050078020169877,0.9050078020169877,0.0,0,False
2022-03-20,0.9050078020169877,0.9050078020169877,0.0,0,False
2022-03-21,0.9050078020169877,0.9050078020169877,0.0,0,False
2022-03-22,0.9050078020169877,0.9050078020169877,0.0,0,False
2022-03-23,0.9050078020169877,0.9050078020169877,0.0,0,False
2022-03-24,0.9050078020169877,0.9050078020169877,0.0,0,False
2022-03-25,0.9050078020169877,0.9050078020169877,0.0,0,False
2022-03-26,0.9050078020169877,0.9050078020169877,0.0,0,False
2022-03-27,0.9050078020169877,0.9050078020169877,0.0,0,False
2022-03-28,0.9050078020169877,0.9050078020169877,0.0,0,False
2022-03-29,0.9050078020169877,0.9050078020169877,0.0,0,False
2022-03-30,0.9050078020169877,0.9050078020169877,0.0,0,False
2022-03-31,0.9050078020169877,0.9050078020169877,0.0,0,False
2022-04-01,0.9050078020169877,0.9050078020169877,0.0,0,False
2022-04-02,0.9050078020169877,0.9050078020169877,0.0,0,False
2022-04-03,0.9050078020169877,0.9050078020169877,0.0,0,False
2022-04-04,0.9050078020169877,0.9050078020169877,0.0,0,False
2022-04-05,0.9050078020169877,0.9050078020169877,0.0,0,False
2022-04-06,0.9050078020169877,0.9050078020169877,0.0,0,False
2022-04-07,0.9050078020169877,0.9050078020169877,0.0,0,False
2022-04-08,0.9050078020169877,0.9050078020169877,0.0,0,False
2022-04-09,0.9050078020169877,0.9050078020169877,0.0,0,False
2022-04-10,0.9050078020169877,0.9050078020169877,0.0,0,False
2022-04-11,0.9050078020169877,0.9050078020169877,0.0,0,False
2022-04-12,0.9050078020169877,0.9050078020169877,0.0,0,False
2022-04-13,0.9050078020169877,0.9050078020169877,0.0,0,False
2022-04-14,0.9050078020169877,0.9050078020169877,0.0,0,False
2022-04-15,0.9050078020169877,0.9050078020169877,0.0,0,False
2022-04-16,0.9050078020169877,0.9050078020169877,0.0,0,False
2022-04-17,0.9050078020169877,0.9050078020169877,0.0,0,False
2022-04-18,0.9050078020169877,0.9050078020169877,0.0,0,False
2022-04-19,0.9050078020169877,0.9050078020169877,0.0,0,False
2022-04-20,0.9050078020169877,0.9050078020169877,0.0,0,False
2022-04-21,0.9050078020169877,0.9050078020169877,0.0,0,False
2022-04-22,0.9050078020169877,0.9050078020169877,0.0,0,False
2022-04-23,0.9050078020169877,0.9050078020169877,0.0,0,False
2022-04-24,0.9050078020169877,0.9050078020169877,0.0,0,False
2022-04-25,0.9050078020169877,0.9050078020169877,0.0,0,False
2022-04-26,0.9050078020169877,0.9050078020169877,0.0,0,False
2022-04-27,0.9050078020169877,0.9050078020169877,0.0,0,False
2022-04-28,0.9050078020169877,0.9050078020169877,0.0,0,False
2022-04-29,0.9050078020169877,0.9050078020169877,0.0,0,False
2022-04-30,0.9050078020169877,0.9050078020169877,0.0,0,False
2022-05-01,0.9050078020169877,0.9050078020169877,0.0,0,False
2022-05-02,0.9050078020169877,0.9050078020169877,0.0,0,False
2022-05-03,0.9050078020169877,0.9050078020169877,0.0,0,False
2022-05-04,0.9050078020169877,0.9050078020169877,0.0,0,False
2022-05-05,0.9050078020169877,0.9050078020169877,0.0,0,False
2022-05-06,0.9050078020169877,0.9050078020169877,0.0,0,False
2022-05-07,0.9050078020169877,0.9050078020169877,0.0,0,False
2022-05-08,0.9050078020169877,0.9050078020169877,0.0,0,False
2022-05-09,0.9050078020169877,0.9050078020169877,0.0,0,False
2022-05-10,0.9050078020169877,0.9050078020169877,0.0,0,False
2022-05-11,0.9050078020169877,0.9050078020169877,0.0,0,False
2022-05-12,0.9050078020169877,0.9050078020169877,0.0,0,False
2022-05-13,0.9050078020169877,0.9050078020169877,0.0,0,False
2022-05-14,0.9050078020169877,0.9050078020169877,0.0,0,False
2022-05-15,0.9050078020169877,0.9050078020169877,0.0,0,False
2022-05-16,0.9050078020169877,0.9050078020169877,0.0,0,False
2022-05-17,0.9050078020169877,0.9050078020169877,0.0,0,False
2022-05-18,0.9050078020169877,0.9050078020169877,0.0,0,False
2022-05-19,0.9050078020169877,0.9050078020169877,0.0,0,False
2022-05-20,0.9050078020169877,0.9050078020169877,0.0,0,False
2022-05-21,0.9050078020169877,0.9050078020169877,0.0,0,False
2022-05-22,0.9050078020169877,0.9050078020169877,0.0,0,False
2022-05-23,0.9050078020169877,0.9050078020169877,0.0,0,False
2022-05-24,0.9050078020169877,0.9050078020169877,0.0,0,False
2022-05-25,0.9050078020169877,0.9050078020169877,0.0,0,False
2022-05-26,0.9050078020169877,0.9050078020169877,0.0,0,False
2022-05-27,0.9050078020169877,0.9050078020169877,0.0,0,False
2022-05-28,0.9050078020169877,0.9050078020169877,0.0,0,False
2022-05-29,0.9050078020169877,0.9050078020169877,0.0,0,False
2022-05-30,0.9050078020169877,0.9050078020169877,0.0,0,False
2022-05-31,0.9050078020169877,0.9050078020169877,0.0,0,False
2022-06-01,0.9050078020169877,0.9050078020169877,0.0,0,False
2022-06-02,0.9050078020169877,0.9050078020169877,0.0,0,False
2022-06-03,0.9050078020169877,0.9050078020169877,0.0,0,False
2022-06-04,0.9050078020169877,0.9050078020169877,0.0,0,False
2022-06-05,0.9050078020169877,0.9050078020169877,0.0,0,False
2022-06-06,0.9050078020169877,0.9050078020169877,0.0,0,False
2022-06-07,0.9050078020169877,0.9050078020169877,0.0,0,False
2022-06-08,0.9050078020169877,0.9050078020169877,0.0,0,False
2022-06-09,0.9050078020169877,0.9050078020169877,0.0,0,False
2022-06-10,0.9050078020169877,0.9050078020169877,0.0,0,False
2022-06-11,0.9050078020169877,0.9050078020169877,0.0,0,False
2022-06-12,0.9050078020169877,0.9050078020169877,0.0,0,False
2022-06-13,0.9050078020169877,0.9050078020169877,0.0,0,False
2022-06-14,0.9050078020169877,0.9050078020169877,0.0,0,False
2022-06-15,0.9050078020169877,0.9050078020169877,0.0,0,False
2022-06-16,0.9050078020169877,0.9050078020169877,0.0,0,False
2022-06-17,0.9050078020169877,0.9050078020169877,0.0,0,False
2022-06-18,0.9050078020169877,0.9050078020169877,0.0,0,False
2022-06-19,0.9050078020169877,0.9050078020169877,0.0,0,False
2022-06-20,0.9050078020169877,0.9050078020169877,0.0,0,False
2022-06-21,0.9050078020169877,0.9050078020169877,0.0,0,False
2022-06-22,0.9050078020169877,0.9050078020169877,0.0,0,False
2022-06-23,0.9050078020169877,0.9050078020169877,0.0,0,False
2022-06-24,0.9050078020169877,0.9050078020169877,0.0,0,False
2022-06-25,0.9050078020169877,0.9050078020169877,0.0,0,False
2022-06-26,0.9050078020169877,0.9050078020169877,0.0,0,False
2022-06-27,0.9050078020169877,0.9050078020169877,0.0,0,False
2022-06-28,0.9050078020169877,0.9050078020169877,0.0,0,False
2022-06-29,0.9050078020169877,0.9050078020169877,0.0,0,False
2022-06-30,0.9050078020169877,0.9050078020169877,0.0,0,False
2022-07-01,0.9050078020169877,0.9050078020169877,0.0,0,False
2022-07-02,0.9050078020169877,0.9050078020169877,0.0,0,False
2022-07-03,0.9050078020169877,0.9050078020169877,0.0,0,False
2022-07-04,0.9050078020169877,0.9050078020169877,0.0,0,False
2022-07-05,0.9050078020169877,0.9050078020169877,0.0,0,False
2022-07-06,0.9050078020169877,0.9050078020169877,0.0,0,False
2022-07-07,0.9050078020169877,0.9050078020169877,0.0,0,False
2022-07-08,0.9050078020169877,0.9050078020169877,0.0,0,False
2022-07-09,0.9050078020169877,0.9050078020169877,0.0,0,False
2022-07-10,0.9050078020169877,0.9050078020169877,0.0,0,False
2022-07-11,0.9050078020169877,0.9050078020169877,0.0,0,False
2022-07-12,0.9050078020169877,0.9050078020169877,0.0,0,False
2022-07-13,0.9050078020169877,0.9050078020169877,0.0,0,False
2022-07-14,0.9050078020169877,0.9050078020169877,0.0,0,False
2022-07-15,0.9050078020169877,0.9050078020169877,0.0,0,False
2022-07-16,0.9050078020169877,0.9050078020169877,0.0,0,False
2022-07-17,0.9050078020169877,0.9050078020169877,0.0,0,False
2022-07-18,0.9050078020169877,0.9050078020169877,0.0,0,False
2022-07-19,0.9050078020169877,0.9050078020169877,0.0,0,False
2022-07-20,0.9050078020169877,0.9050078020169877,0.0,0,False
2022-07-21,0.9050078020169877,0.9050078020169877,0.0,0,False
2022-07-22,0.9050078020169877,0.9050078020169877,0.0,0,False
2022-07-23,0.9050078020169877,0.9050078020169877,0.0,0,False
2022-07-24,0.9050078020169877,0.9050078020169877,0.0,0,False
2022-07-25,0.9050078020169877,0.9050078020169877,0.0,0,False
2022-07-26,0.9050078020169877,0.9050078020169877,0.0,0,False
2022-07-27,0.9050078020169877,0.9050078020169877,0.0,0,False
2022-07-28,0.9050078020169877,0.9050078020169877,0.0,0,False
2022-07-29,0.9050078020169877,0.9050078020169877,0.0,0,False
2022-07-30,0.9050078020169877,0.9050078020169877,0.0,0,False
2022-07-31,0.9050078020169877,0.9050078020169877,0.0,0,False
2022-08-01,0.9050078020169877,0.9050078020169877,0.0,0,False
2022-08-02,0.9050078020169877,0.9050078020169877,0.0,0,False
2022-08-03,0.9050078020169877,0.9050078020169877,0.0,0,False
2022-08-04,0.9050078020169877,0.9050078020169877,0.0,0,False
2022-08-05,0.9050078020169877,0.9050078020169877,0.0,0,False
2022-08-06,0.9050078020169877,0.9050078020169877,0.0,0,False
2022-08-07,0.9050078020169877,0.9050078020169877,0.0,0,False
2022-08-08,0.9050078020169877,0.9050078020169877,0.0,0,False
2022-08-09,0.9050078020169877,0.9050078020169877,0.0,0,False
2022-08-10,0.9050078020169877,0.9050078020169877,0.0,0,False
2022-08-11,0.9050078020169877,0.9050078020169877,0.0,0,False
2022-08-12,0.9050078020169877,0.9050078020169877,0.0,0,False
2022-08-13,0.9050078020169877,0.9050078020169877,0.0,0,False
2022-08-14,0.9050078020169877,0.9050078020169877,0.0,0,False
2022-08-15,0.9050078020169877,0.9050078020169877,0.0,0,False
2022-08-16,0.9050078020169877,0.9050078020169877,0.0,0,False
2022-08-17,0.9050078020169877,0.9050078020169877,0.0,0,False
2022-08-18,0.9050078020169877,0.9050078020169877,0.0,0,False
2022-08-19,0.9050078020169877,0.9050078020169877,0.0,0,False
2022-08-20,0.9050078020169877,0.9050078020169877,0.0,0,False
2022-08-21,0.9050078020169877,0.9050078020169877,0.0,0,False
2022-08-22,0.9050078020169877,0.9050078020169877,0.0,0,False
2022-08-23,0.9050078020169877,0.9050078020169877,0.0,0,False
2022-08-24,0.9050078020169877,0.9050078020169877,0.0,0,False
2022-08-25,0.9050078020169877,0.9050078020169877,0.0,0,False
2022-08-26,0.9050078020169877,0.9050078020169877,0.0,0,False
2022-08-27,0.9050078020169877,0.9050078020169877,0.0,0,False
2022-08-28,0.9050078020169877,0.9050078020169877,0.0,0,False
2022-08-29,0.9050078020169877,0.9050078020169877,0.0,0,False
2022-08-30,0.9050078020169877,0.9050078020169877,0.0,0,False
2022-08-31,0.9050078020169877,0.9050078020169877,0.0,0,False
2022-09-01,0.9050078020169877,0.9050078020169877,0.0,0,False
2022-09-02,0.9050078020169877,0.9050078020169877,0.0,0,False
2022-09-03,0.9050078020169877,0.9050078020169877,0.0,0,False
2022-09-04,0.9050078020169877,0.9050078020169877,0.0,0,False
2022-09-05,0.9050078020169877,0.9050078020169877,0.0,0,False
2022-09-06,0.9050078020169877,0.9050078020169877,0.0,0,False
2022-09-07,0.9050078020169877,0.9050078020169877,0.0,0,False
2022-09-08,0.9050078020169877,0.9050078020169877,0.0,0,False
2022-09-09,0.9050078020169877,0.9050078020169877,0.0,0,False
2022-09-10,0.9050078020169877,0.9050078020169877,0.0,0,False
2022-09-11,0.9050078020169877,0.9050078020169877,0.0,0,False
2022-09-12,0.9050078020169877,0.9050078020169877,0.0,0,False
2022-09-13,0.9050078020169877,0.9050078020169877,0.0,0,False
2022-09-14,0.9050078020169877,0.9050078020169877,0.0,0,False
2022-09-15,0.9050078020169877,0.9050078020169877,0.0,0,False
2022-09-16,0.9050078020169877,0.9050078020169877,0.0,0,False
2022-09-17,0.9050078020169877,0.9050078020169877,0.0,0,False
2022-09-18,0.9050078020169877,0.9050078020169877,0.0,0,False
2022-09-19,0.9050078020169877,0.9050078020169877,0.0,0,False
2022-09-20,0.9050078020169877,0.9050078020169877,0.0,0,False
2022-09-21,0.9050078020169877,0.9050078020169877,0.0,0,False
2022-09-22,0.9050078020169877,0.9050078020169877,0.0,0,False
2022-09-23,0.9050078020169877,0.9050078020169877,0.0,0,False
2022-09-24,0.9050078020169877,0.9050078020169877,0.0,0,False
2022-09-25,0.9050078020169877,0.9050078020169877,0.0,0,False
2022-09-26,0.9050078020169877,0.9050078020169877,0.0,0,False
2022-09-27,0.9050078020169877,0.9050078020169877,0.0,0,False
2022-09-28,0.9050078020169877,0.9050078020169877,0.0,0,False
2022-09-29,0.9050078020169877,0.9050078020169877,0.0,0,False
2022-09-30,0.9050078020169877,0.9050078020169877,0.0,0,False
2022-10-01,0.9050078020169877,0.9050078020169877,0.0,0,False
2022-10-02,0.9050078020169877,0.9050078020169877,0.0,0,False
2022-10-03,0.9050078020169877,0.9050078020169877,0.0,0,False
2022-10-04,0.9050078020169877,0.9050078020169877,0.0,0,False
2022-10-05,0.9050078020169877,0.9050078020169877,0.0,0,False
2022-10-06,0.9050078020169877,0.9050078020169877,0.0,0,False
2022-10-07,0.9050078020169877,0.9050078020169877,0.0,0,False
2022-10-08,0.9050078020169877,0.9050078020169877,0.0,0,False
2022-10-09,0.9050078020169877,0.9050078020169877,0.0,0,False
2022-10-10,0.9050078020169877,0.9050078020169877,0.0,0,False
2022-10-11,0.9050078020169877,0.9050078020169877,0.0,0,False
2022-10-12,0.9050078020169877,0.9050078020169877,0.0,0,False
2022-10-13,0.9050078020169877,0.9050078020169877,0.0,0,False
2022-10-14,0.9050078020169877,0.9050078020169877,0.0,0,False
2022-10-15,0.9050078020169877,0.9050078020169877,0.0,0,False
2022-10-16,0.9050078020169877,0.9050078020169877,0.0,0,False
2022-10-17,0.9050078020169877,0.9050078020169877,0.0,0,False
2022-10-18,0.9050078020169877,0.9050078020169877,0.0,0,False
2022-10-19,0.9050078020169877,0.9050078020169877,0.0,0,False
2022-10-20,0.9050078020169877,0.9050078020169877,0.0,0,False
2022-10-21,0.9050078020169877,0.9050078020169877,0.0,0,False
2022-10-22,0.9050078020169877,0.9050078020169877,0.0,0,False
2022-10-23,0.9050078020169877,0.9050078020169877,0.0,0,False
2022-10-24,0.9050078020169877,0.9050078020169877,0.0,0,False
2022-10-25,0.9050078020169877,0.9050078020169877,0.0,0,False
2022-10-26,0.9050078020169877,0.9050078020169877,0.0,0,False
2022-10-27,0.9050078020169877,0.9050078020169877,0.0,0,False
2022-10-28,0.9050078020169877,0.9050078020169877,0.0,0,False
2022-10-29,0.9050078020169877,0.9050078020169877,0.0,0,False
2022-10-30,0.9050078020169877,0.9050078020169877,0.0,0,False
2022-10-31,0.9050078020169877,0.9050078020169877,0.0,0,False
2022-11-01,0.9050078020169877,0.9050078020169877,0.0,0,False
2022-11-02,0.9050078020169877,0.9050078020169877,0.0,0,False
2022-11-03,0.9050078020169877,0.9050078020169877,0.0,0,False
2022-11-04,0.9050078020169877,0.9050078020169877,0.0,0,False
2022-11-05,0.9050078020169877,0.9050078020169877,0.0,0,False
2022-11-06,0.9050078020169877,0.9050078020169877,0.0,0,False
2022-11-07,0.9050078020169877,0.9050078020169877,0.0,0,False
2022-11-08,0.9050078020169877,0.9050078020169877,0.0,0,False
2022-11-09,0.9050078020169877,0.9050078020169877,0.0,0,False
2022-11-10,0.9050078020169877,0.9050078020169877,0.0,0,False
2022-11-11,0.9050078020169877,0.9050078020169877,0.0,0,False
2022-11-12,0.9050078020169877,0.9050078020169877,0.0,0,False
2022-11-13,0.9050078020169877,0.9050078020169877,0.0,0,False
2022-11-14,0.9050078020169877,0.9050078020169877,0.0,0,False
2022-11-15,0.9050078020169877,0.9050078020169877,0.0,0,False
2022-11-16,0.9050078020169877,0.9050078020169877,0.0,0,False
2022-11-17,0.9050078020169877,0.9050078020169877,0.0,0,False
2022-11-18,0.9050078020169877,0.9050078020169877,0.0,0,False
2022-11-19,0.9050078020169877,0.9050078020169877,0.0,0,False
2022-11-20,0.9050078020169877,0.9050078020169877,0.0,0,False
2022-11-21,0.9050078020169877,0.9050078020169877,0.0,0,False
2022-11-22,0.9050078020169877,0.9050078020169877,0.0,0,False
2022-11-23,0.9050078020169877,0.9050078020169877,0.0,0,False
2022-11-24,0.9050078020169877,0.9050078020169877,0.0,0,False
2022-11-25,0.9050078020169877,0.9050078020169877,0.0,0,False
2022-11-26,0.9050078020169877,0.9050078020169877,0.0,0,False
2022-11-27,0.9050078020169877,0.9050078020169877,0.0,0,False
2022-11-28,0.9050078020169877,0.9050078020169877,0.0,0,False
2022-11-29,0.9050078020169877,0.9050078020169877,0.0,0,False
2022-11-30,0.9050078020169877,0.9050078020169877,0.0,0,False
2022-12-01,0.9050078020169877,0.9050078020169877,0.0,0,False
2022-12-02,0.9050078020169877,0.9050078020169877,0.0,0,False
2022-12-03,0.9050078020169877,0.9050078020169877,0.0,0,False
2022-12-04,0.9050078020169877,0.9050078020169877,0.0,0,False
2022-12-05,0.9050078020169877,0.9050078020169877,0.0,0,False
2022-12-06,0.9050078020169877,0.9050078020169877,0.0,0,False
2022-12-07,0.9050078020169877,0.9050078020169877,0.0,0,False
2022-12-08,0.9050078020169877,0.9050078020169877,0.0,0,False
2022-12-09,0.9050078020169877,0.9050078020169877,0.0,0,False
2022-12-10,0.9050078020169877,0.9050078020169877,0.0,0,False
2022-12-11,0.9050078020169877,0.9050078020169877,0.0,0,False
2022-12-12,0.9050078020169877,0.9050078020169877,0.0,0,False
2022-12-13,0.9050078020169877,0.9050078020169877,0.0,0,False
2022-12-14,0.9050078020169877,0.9050078020169877,0.0,0,False
2022-12-15,0.9050078020169877,0.9050078020169877,0.0,0,False
2022-12-16,0.9050078020169877,0.9050078020169877,0.0,0,False
2022-12-17,0.9050078020169877,0.9050078020169877,0.0,0,False
2022-12-18,0.9050078020169877,0.9050078020169877,0.0,0,False
2022-12-19,0.9050078020169877,0.9050078020169877,0.0,0,False
2022-12-20,0.9050078020169877,0.9050078020169877,0.0,0,False
2022-12-21,0.9050078020169877,0.9050078020169877,0.0,0,False
2022-12-22,0.9050078020169877,0.9050078020169877,0.0,0,False
2022-12-23,0.9050078020169877,0.9050078020169877,0.0,0,False
2022-12-24,0.9050078020169877,0.9050078020169877,0.0,0,False
2022-12-25,0.9050078020169877,0.9050078020169877,0.0,0,False
2022-12-26,0.9050078020169877,0.9050078020169877,0.0,0,False
2022-12-27,0.9050078020169877,0.9050078020169877,0.0,0,False
2022-12-28,0.9050078020169877,0.9050078020169877,0.0,0,False
2022-12-29,0.9050078020169877,0.9050078020169877,0.0,0,False
2022-12-30,0.9050078020169877,0.9050078020169877,0.0,0,False
2022-12-31,0.9050078020169877,0.9050078020169877,0.0,0,False
2023-01-01,0.9050078020169877,0.9050078020169877,0.0,0,False
2023-01-02,0.9050078020169877,0.9050078020169877,0.0,0,False
2023-01-03,0.9050078020169877,0.9050078020169877,0.0,0,False
2023-01-04,0.9050078020169877,0.9050078020169877,0.0,0,False
2023-01-05,0.9050078020169877,0.9050078020169877,0.0,0,False
2023-01-06,0.9050078020169877,0.9050078020169877,0.0,0,False
2023-01-07,0.9050078020169877,0.9050078020169877,0.0,0,False
2023-01-08,0.9050078020169877,0.9050078020169877,0.0,0,False
2023-01-09,0.9050078020169877,0.9050078020169877,0.0,0,False
2023-01-10,0.9050078020169877,0.9050078020169877,0.0,0,False
2023-01-11,0.9050078020169877,0.9050078020169877,0.0,0,False
2023-01-12,0.9050078020169877,0.9050078020169877,0.0,0,False
2023-01-13,0.9050078020169877,0.9050078020169877,0.0,0,False
2023-01-14,0.9050078020169877,0.9050078020169877,0.0,0,False
2023-01-15,0.9050078020169877,0.9050078020169877,0.0,0,False
2023-01-16,0.9050078020169877,0.9050078020169877,0.0,0,False
2023-01-17,0.9050078020169877,0.9050078020169877,0.0,0,False
2023-01-18,0.9050078020169877,0.9050078020169877,0.0,0,False
2023-01-19,0.9050078020169877,0.9050078020169877,0.0,0,False
2023-01-20,0.9050078020169877,0.9050078020169877,0.0,0,False
2023-01-21,0.9050078020169877,0.9050078020169877,0.0,0,False
2023-01-22,0.9050078020169877,0.9050078020169877,0.0,0,False
2023-01-23,0.9050078020169877,0.9050078020169877,0.0,0,False
2023-01-24,0.9050078020169877,0.9050078020169877,0.0,0,False
2023-01-25,0.9050078020169877,0.9050078020169877,0.0,0,False
2023-01-26,0.9050078020169877,0.9050078020169877,0.0,0,False
2023-01-27,0.9050078020169877,0.9050078020169877,0.0,0,False
2023-01-28,0.9050078020169877,0.9050078020169877,0.0,0,False
2023-01-29,0.9050078020169877,0.9050078020169877,0.0,0,False
2023-01-30,0.9050078020169877,0.9050078020169877,0.0,0,False
2023-01-31,0.9050078020169877,0.9050078020169877,0.0,0,False
2023-02-01,0.9050078020169877,0.9050078020169877,0.0,0,False
2023-02-02,0.9050078020169877,0.9050078020169877,0.0,0,False
2023-02-03,0.9050078020169877,0.9050078020169877,0.0,0,False
2023-02-04,0.9050078020169877,0.9050078020169877,0.0,0,False
2023-02-05,0.9050078020169877,0.9050078020169877,0.0,0,False
2023-02-06,0.9050078020169877,0.9050078020169877,0.0,0,False
2023-02-07,0.9050078020169877,0.9050078020169877,0.0,0,False
2023-02-08,0.9050078020169877,0.9050078020169877,0.0,0,False
2023-02-09,0.9050078020169877,0.9050078020169877,0.0,0,False
2023-02-10,0.9050078020169877,0.9050078020169877,0.0,0,False
2023-02-11,0.9050078020169877,0.9050078020169877,0.0,0,False
2023-02-12,0.9050078020169877,0.9050078020169877,0.0,0,False
2023-02-13,0.9050078020169877,0.9050078020169877,0.0,0,False
2023-02-14,0.9050078020169877,0.9050078020169877,0.0,0,False
2023-02-15,0.9050078020169877,0.9050078020169877,0.0,0,False
2023-02-16,0.9050078020169877,0.9050078020169877,0.0,0,False
2023-02-17,0.9050078020169877,0.9050078020169877,0.0,0,False
2023-02-18,0.9050078020169877,0.9050078020169877,0.0,0,False
2023-02-19,0.9050078020169877,0.9050078020169877,0.0,0,False
2023-02-20,0.9050078020169877,0.9050078020169877,0.0,0,False
2023-02-21,0.9050078020169877,0.9050078020169877,0.0,0,False
2023-02-22,0.9050078020169877,0.9050078020169877,0.0,0,False
2023-02-23,0.9050078020169877,0.9050078020169877,0.0,0,False
2023-02-24,0.9050078020169877,0.9050078020169877,0.0,0,False
2023-02-25,0.9050078020169877,0.9050078020169877,0.0,0,False
2023-02-26,0.9050078020169877,0.9050078020169877,0.0,0,False
2023-02-27,0.9050078020169877,0.9050078020169877,0.0,0,False
2023-02-28,0.9050078020169877,0.9050078020169877,0.0,0,False
2023-03-01,0.9050078020169877,0.9050078020169877,0.0,0,False
2023-03-02,0.9050078020169877,0.9050078020169877,0.0,0,False
2023-03-03,0.9050078020169877,0.9050078020169877,0.0,0,False
2023-03-04,0.9050078020169877,0.9050078020169877,0.0,0,False
2023-03-05,0.9050078020169877,0.9050078020169877,0.0,0,False
2023-03-06,0.9050078020169877,0.9050078020169877,0.0,0,False
2023-03-07,0.9050078020169877,0.9050078020169877,0.0,0,False
2023-03-08,0.9050078020169877,0.9050078020169877,0.0,0,False
2023-03-09,0.9050078020169877,0.9050078020169877,0.0,0,False
2023-03-10,0.9050078020169877,0.9050078020169877,0.0,0,False
2023-03-11,0.9050078020169877,0.9050078020169877,0.0,0,False
2023-03-12,0.9050078020169877,0.9050078020169877,0.0,0,False
2023-03-13,0.9050078020169877,0.9050078020169877,0.0,0,False
2023-03-14,0.9050078020169877,0.9050078020169877,0.0,0,False
2023-03-15,0.9050078020169877,0.9050078020169877,0.0,0,False
2023-03-16,0.9050078020169877,0.9050078020169877,0.0,0,False
2023-03-17,0.9050078020169877,0.9050078020169877,0.0,0,False
2023-03-18,0.9050078020169877,0.9050078020169877,0.0,0,False
2023-03-19,0.9050078020169877,0.9050078020169877,0.0,0,False
2023-03-20,0.9050078020169877,0.9050078020169877,0.0,0,False
2023-03-21,0.9050078020169877,0.9050078020169877,0.0,0,False
2023-03-22,0.9050078020169877,0.9050078020169877,0.0,0,False
2023-03-23,0.9050078020169877,0.9050078020169877,0.0,0,False
2023-03-24,0.9050078020169877,0.9050078020169877,0.0,0,False
2023-03-25,0.9050078020169877,0.9050078020169877,0.0,0,False
2023-03-26,0.9050078020169877,0.9050078020169877,0.0,0,False
2023-03-27,0.9050078020169877,0.9050078020169877,0.0,0,False
2023-03-28,0.9050078020169877,0.9050078020169877,0.0,0,False
2023-03-29,0.9050078020169877,0.9050078020169877,0.0,0,False
2023-03-30,0.9050078020169877,0.9050078020169877,0.0,0,False
2023-03-31,0.9050078020169877,0.9050078020169877,0.0,0,False
2023-04-01,0.9050078020169877,0.9050078020169877,0.0,0,False
2023-04-02,0.9050078020169877,0.9050078020169877,0.0,0,False
2023-04-03,0.9050078020169877,0.9050078020169877,0.0,0,False
2023-04-04,0.9050078020169877,0.9050078020169877,0.0,0,False
2023-04-05,0.9050078020169877,0.9050078020169877,0.0,0,False
2023-04-06,0.9050078020169877,0.9050078020169877,0.0,0,False
2023-04-07,0.9050078020169877,0.9050078020169877,0.0,0,False
2023-04-08,0.9050078020169877,0.9050078020169877,0.0,0,False
2023-04-09,0.9050078020169877,0.9050078020169877,0.0,0,False
2023-04-10,0.9050078020169877,0.9050078020169877,0.0,0,False
2023-04-11,0.9050078020169877,0.9050078020169877,0.0,0,False
2023-04-12,0.9050078020169877,0.9050078020169877,0.0,0,False
2023-04-13,0.9050078020169877,0.9050078020169877,0.0,0,False
2023-04-14,0.9050078020169877,0.9050078020169877,0.0,0,False
2023-04-15,0.9050078020169877,0.9050078020169877,0.0,0,False
2023-04-16,0.9050078020169877,0.9050078020169877,0.0,0,False
2023-04-17,0.9050078020169877,0.9050078020169877,0.0,0,False
2023-04-18,0.9050078020169877,0.9050078020169877,0.0,0,False
2023-04-19,0.9050078020169877,0.9050078020169877,0.0,0,False
2023-04-20,0.9050078020169877,0.9050078020169877,0.0,0,False
2023-04-21,0.9050078020169877,0.9050078020169877,0.0,0,False
2023-04-22,0.9050078020169877,0.9050078020169877,0.0,0,False
2023-04-23,0.9050078020169877,0.9050078020169877,0.0,0,False
2023-04-24,0.9050078020169877,0.9050078020169877,0.0,0,False
2023-04-25,0.9050078020169877,0.9050078020169877,0.0,0,False
2023-04-26,0.9050078020169877,0.9050078020169877,0.0,0,False
2023-04-27,0.9050078020169877,0.9050078020169877,0.0,0,False
2023-04-28,0.9050078020169877,0.9050078020169877,0.0,0,False
2023-04-29,0.9050078020169877,0.9050078020169877,0.0,0,False
2023-04-30,0.9050078020169877,0.9050078020169877,0.0,0,False
2023-05-01,0.9050078020169877,0.9050078020169877,0.0,0,False
2023-05-02,0.9050078020169877,0.9050078020169877,0.0,0,False
2023-05-03,0.9050078020169877,0.9050078020169877,0.0,0,False
2023-05-04,0.9050078020169877,0.9050078020169877,0.0,0,False
2023-05-05,0.9050078020169877,0.9050078020169877,0.0,0,False
2023-05-06,0.9050078020169877,0.9050078020169877,0.0,0,False
2023-05-07,0.9050078020169877,0.9050078020169877,0.0,0,False
2023-05-08,0.9050078020169877,0.9050078020169877,0.0,0,False
2023-05-09,0.9050078020169877,0.9050078020169877,0.0,0,False
2023-05-10,0.9050078020169877,0.9050078020169877,0.0,0,False
2023-05-11,0.9050078020169877,0.9050078020169877,0.0,0,False
2023-05-12,0.9050078020169877,0.9050078020169877,0.0,0,False
2023-05-13,0.9050078020169877,0.9050078020169877,0.0,0,False
2023-05-14,0.9050078020169877,0.9050078020169877,0.0,0,False
2023-05-15,0.9050078020169877,0.9050078020169877,0.0,0,False
2023-05-16,0.9050078020169877,0.9050078020169877,0.0,0,False
2023-05-17,0.9050078020169877,0.9050078020169877,0.0,0,False
2023-05-18,0.9050078020169877,0.9050078020169877,0.0,0,False
2023-05-19,0.9050078020169877,0.9050078020169877,0.0,0,False
2023-05-20,0.9050078020169877,0.9050078020169877,0.0,0,False
2023-05-21,0.9050078020169877,0.9050078020169877,0.0,0,False
2023-05-22,0.9050078020169877,0.9050078020169877,0.0,0,False
2023-05-23,0.9050078020169877,0.9050078020169877,0.0,0,False
2023-05-24,0.9050078020169877,0.9050078020169877,0.0,0,False
2023-05-25,0.9050078020169877,0.9050078020169877,0.0,0,False
2023-05-26,0.9050078020169877,0.9050078020169877,0.0,0,False
2023-05-27,0.9050078020169877,0.9050078020169877,0.0,0,False
2023-05-28,0.9050078020169877,0.9050078020169877,0.0,0,False
2023-05-29,0.9050078020169877,0.9050078020169877,0.0,0,False
2023-05-30,0.9050078020169877,0.9050078020169877,0.0,0,False
2023-05-31,0.9050078020169877,0.9050078020169877,0.0,0,False
2023-06-01,0.9050078020169877,0.9050078020169877,0.0,0,False
2023-06-02,0.9050078020169877,0.9050078020169877,0.0,0,False
2023-06-03,0.9050078020169877,0.9050078020169877,0.0,0,False
2023-06-04,0.9050078020169877,0.9050078020169877,0.0,0,False
2023-06-05,0.9050078020169877,0.9050078020169877,0.0,0,False
2023-06-06,0.9050078020169877,0.9050078020169877,0.0,0,False
2023-06-07,0.9050078020169877,0.9050078020169877,0.0,0,False
2023-06-08,0.9050078020169877,0.9050078020169877,0.0,0,False
2023-06-09,0.9050078020169877,0.9050078020169877,0.0,0,False
2023-06-10,0.9050078020169877,0.9050078020169877,0.0,0,False
2023-06-11,0.9050078020169877,0.9050078020169877,0.0,0,False
2023-06-12,0.9050078020169877,0.9050078020169877,0.0,0,False
2023-06-13,0.9050078020169877,0.9050078020169877,0.0,0,False
2023-06-14,0.9050078020169877,0.9050078020169877,0.0,0,False
2023-06-15,0.9050078020169877,0.9050078020169877,0.0,0,False
2023-06-16,0.9050078020169877,0.9050078020169877,0.0,0,False
2023-06-17,0.9050078020169877,0.9050078020169877,0.0,0,False
2023-06-18,0.9050078020169877,0.9050078020169877,0.0,0,False
2023-06-19,0.9050078020169877,0.9050078020169877,0.0,0,False
2023-06-20,0.9050078020169877,0.9050078020169877,0.0,0,False
2023-06-21,0.9050078020169877,0.9050078020169877,0.0,0,False
2023-06-22,0.9050078020169877,0.9050078020169877,0.0,0,False
2023-06-23,0.9050078020169877,0.9050078020169877,0.0,0,False
2023-06-24,0.9050078020169877,0.9050078020169877,0.0,0,False
2023-06-25,0.9050078020169877,0.9050078020169877,0.0,0,False
2023-06-26,0.9050078020169877,0.9050078020169877,0.0,0,False
2023-06-27,0.9050078020169877,0.9050078020169877,0.0,0,False
2023-06-28,0.9050078020169877,0.9050078020169877,0.0,0,False
2023-06-29,0.9050078020169877,0.9050078020169877,0.0,0,False
2023-06-30,0.9050078020169877,0.9050078020169877,0.0,0,False
2023-07-01,0.9050078020169877,0.9050078020169877,0.0,0,False
2023-07-02,0.9050078020169877,0.9050078020169877,0.0,0,False
2023-07-03,0.9050078020169877,0.9050078020169877,0.0,0,False
2023-07-04,0.9050078020169877,0.9050078020169877,0.0,0,False
2023-07-05,0.9050078020169877,0.9050078020169877,0.0,0,False
2023-07-06,0.9050078020169877,0.9050078020169877,0.0,0,False
2023-07-07,0.9050078020169877,0.9050078020169877,0.0,0,False
2023-07-08,0.9050078020169877,0.9050078020169877,0.0,0,False
2023-07-09,0.9050078020169877,0.9050078020169877,0.0,0,False
2023-07-10,0.9050078020169877,0.9050078020169877,0.0,0,False
2023-07-11,0.9050078020169877,0.9050078020169877,0.0,0,False
2023-07-12,0.9050078020169877,0.9050078020169877,0.0,0,False
2023-07-13,0.9050078020169877,0.9050078020169877,0.0,0,False
2023-07-14,0.9050078020169877,0.9050078020169877,0.0,0,False
2023-07-15,0.9050078020169877,0.9050078020169877,0.0,0,False
2023-07-16,0.9050078020169877,0.9050078020169877,0.0,0,False
2023-07-17,0.9050078020169877,0.9050078020169877,0.0,0,False
2023-07-18,0.9050078020169877,0.9050078020169877,0.0,0,False
2023-07-19,0.9050078020169877,0.9050078020169877,0.0,0,False
2023-07-20,0.9050078020169877,0.9050078020169877,0.0,0,False
2023-07-21,0.9050078020169877,0.9050078020169877,0.0,0,False
2023-07-22,0.9050078020169877,0.9050078020169877,0.0,0,False
2023-07-23,0.9050078020169877,0.9050078020169877,0.0,0,False
2023-07-24,0.9050078020169877,0.9050078020169877,0.0,0,False
2023-07-25,0.9050078020169877,0.9050078020169877,0.0,0,False
2023-07-26,0.9050078020169877,0.9050078020169877,0.0,0,False
2023-07-27,0.9050078020169877,0.9050078020169877,0.0,0,False
2023-07-28,0.9050078020169877,0.9050078020169877,0.0,0,False
2023-07-29,0.9050078020169877,0.9050078020169877,0.0,0,False
2023-07-30,0.9050078020169877,0.9050078020169877,0.0,0,False
2023-07-31,0.9050078020169877,0.9050078020169877,0.0,0,False
2023-08-01,0.9050078020169877,0.9050078020169877,0.0,0,False
2023-08-02,0.9050078020169877,0.9050078020169877,0.0,0,False
2023-08-03,0.9050078020169877,0.9050078020169877,0.0,0,False
2023-08-04,0.9050078020169877,0.9050078020169877,0.0,0,False
2023-08-05,0.9050078020169877,0.9050078020169877,0.0,0,False
2023-08-06,0.9050078020169877,0.9050078020169877,0.0,0,False
2023-08-07,0.9050078020169877,0.9050078020169877,0.0,0,False
2023-08-08,0.9050078020169877,0.9050078020169877,0.0,0,False
2023-08-09,0.9050078020169877,0.9050078020169877,0.0,0,False
2023-08-10,0.9050078020169877,0.9050078020169877,0.0,0,False
2023-08-11,0.9050078020169877,0.9050078020169877,0.0,0,False
2023-08-12,0.9050078020169877,0.9050078020169877,0.0,0,False
2023-08-13,0.9050078020169877,0.9050078020169877,0.0,0,False
2023-08-14,0.9050078020169877,0.9050078020169877,0.0,0,False
2023-08-15,0.9050078020169877,0.9050078020169877,0.0,0,False
2023-08-16,0.9050078020169877,0.9050078020169877,0.0,0,False
2023-08-17,0.9050078020169877,0.9050078020169877,0.0,0,False
2023-08-18,0.9050078020169877,0.9050078020169877,0.0,0,False
2023-08-19,0.9050078020169877,0.9050078020169877,0.0,0,False
2023-08-20,0.9050078020169877,0.9050078020169877,0.0,0,False
2023-08-21,0.9050078020169877,0.9050078020169877,0.0,0,False
2023-08-22,0.9050078020169877,0.9050078020169877,0.0,0,False
2023-08-23,0.9050078020169877,0.9050078020169877,0.0,0,False
2023-08-24,0.9050078020169877,0.9050078020169877,0.0,0,False
2023-08-25,0.9050078020169877,0.9050078020169877,0.0,0,False
2023-08-26,0.9050078020169877,0.9050078020169877,0.0,0,False
2023-08-27,0.9050078020169877,0.9050078020169877,0.0,0,False
2023-08-28,0.9050078020169877,0.9050078020169877,0.0,0,False
2023-08-29,0.9050078020169877,0.9050078020169877,0.0,0,False
2023-08-30,0.9050078020169877,0.9050078020169877,0.0,0,False
2023-08-31,0.9050078020169877,0.9050078020169877,0.0,0,False
2023-09-01,0.9050078020169877,0.9050078020169877,0.0,0,False
2023-09-02,0.9050078020169877,0.9050078020169877,0.0,0,False
2023-09-03,0.9050078020169877,0.9050078020169877,0.0,0,False
2023-09-04,0.9050078020169877,0.9050078020169877,0.0,0,False
2023-09-05,0.9050078020169877,0.9050078020169877,0.0,0,False
2023-09-06,0.9050078020169877,0.9050078020169877,0.0,0,False
2023-09-07,0.9050078020169877,0.9050078020169877,0.0,0,False
2023-09-08,0.9050078020169877,0.9050078020169877,0.0,0,False
2023-09-09,0.9050078020169877,0.9050078020169877,0.0,0,False
2023-09-10,0.9050078020169877,0.9050078020169877,0.0,0,False
2023-09-11,0.9050078020169877,0.9050078020169877,0.0,0,False
2023-09-12,0.9050078020169877,0.9050078020169877,0.0,0,False
2023-09-13,0.9050078020169877,0.9050078020169877,0.0,0,False
2023-09-14,0.9050078020169877,0.9050078020169877,0.0,0,False
2023-09-15,0.9050078020169877,0.9050078020169877,0.0,0,False
2023-09-16,0.9050078020169877,0.9050078020169877,0.0,0,False
2023-09-17,0.9050078020169877,0.9050078020169877,0.0,0,False
2023-09-18,0.9050078020169877,0.9050078020169877,0.0,0,False
2023-09-19,0.9050078020169877,0.9050078020169877,0.0,0,False
2023-09-20,0.9050078020169877,0.9050078020169877,0.0,0,False
2023-09-21,0.9050078020169877,0.9050078020169877,0.0,0,False
2023-09-22,0.9050078020169877,0.9050078020169877,0.0,0,False
2023-09-23,0.9050078020169877,0.9050078020169877,0.0,0,False
2023-09-24,0.9050078020169877,0.9050078020169877,0.0,0,False
2023-09-25,0.9050078020169877,0.9050078020169877,0.0,0,False
2023-09-26,0.9050078020169877,0.9050078020169877,0.0,0,False
2023-09-27,0.9050078020169877,0.9050078020169877,0.0,0,False
2023-09-28,0.9050078020169877,0.9050078020169877,0.0,0,False
2023-09-29,0.9050078020169877,0.9050078020169877,0.0,0,False
2023-09-30,0.9050078020169877,0.9050078020169877,0.0,0,False
2023-10-01,0.9050078020169877,0.9050078020169877,0.0,0,False
2023-10-02,0.9050078020169877,0.9050078020169877,0.0,0,False
2023-10-03,0.9050078020169877,0.9050078020169877,0.0,0,False
2023-10-04,0.9050078020169877,0.9050078020169877,0.0,0,False
2023-10-05,0.9050078020169877,0.9050078020169877,0.0,0,False
2023-10-06,0.9050078020169877,0.9050078020169877,0.0,0,False
2023-10-07,0.9050078020169877,0.9050078020169877,0.0,0,False
2023-10-08,0.9050078020169877,0.9050078020169877,0.0,0,False
2023-10-09,0.9050078020169877,0.9050078020169877,0.0,0,False
2023-10-10,0.9050078020169877,0.9050078020169877,0.0,0,False
2023-10-11,0.9050078020169877,0.9050078020169877,0.0,0,False
2023-10-12,0.9050078020169877,0.9050078020169877,0.0,0,False
2023-10-13,0.9050078020169877,0.9050078020169877,0.0,0,False
2023-10-14,0.9050078020169877,0.9050078020169877,0.0,0,False
2023-10-15,0.9050078020169877,0.9050078020169877,0.0,0,False
2023-10-16,0.9050078020169877,0.9050078020169877,0.0,0,False
2023-10-17,0.9050078020169877,0.9050078020169877,0.0,0,False
2023-10-18,0.9050078020169877,0.9050078020169877,0.0,0,False
2023-10-19,0.9050078020169877,0.9050078020169877,0.0,0,False
2023-10-20,0.9050078020169877,0.9050078020169877,0.0,0,False
2023-10-21,0.9050078020169877,0.9050078020169877,0.0,0,False
2023-10-22,0.9050078020169877,0.9050078020169877,0.0,0,False
2023-10-23,0.9050078020169877,0.9050078020169877,0.0,0,False
2023-10-24,0.9050078020169877,0.9050078020169877,0.0,0,False
2023-10-25,0.9050078020169877,0.9050078020169877,0.0,0,False
2023-10-26,0.9050078020169877,0.9050078020169877,0.0,0,False
2023-10-27,0.9050078020169877,0.9050078020169877,0.0,0,False
2023-10-28,0.9050078020169877,0.9050078020169877,0.0,0,False
2023-10-29,0.9050078020169877,0.9050078020169877,0.0,0,False
2023-10-30,0.9050078020169877,0.9050078020169877,0.0,0,False
2023-10-31,0.9050078020169877,0.9050078020169877,0.0,0,False
2023-11-01,0.9050078020169877,0.9050078020169877,0.0,0,False
2023-11-02,0.9050078020169877,0.9050078020169877,0.0,0,False
2023-11-03,0.9050078020169877,0.9050078020169877,0.0,0,False
2023-11-04,0.9050078020169877,0.9050078020169877,0.0,0,False
2023-11-05,0.9050078020169877,0.9050078020169877,0.0,0,False
2023-11-06,0.9050078020169877,0.9050078020169877,0.0,0,False
2023-11-07,0.9050078020169877,0.9050078020169877,0.0,0,False
2023-11-08,0.9050078020169877,0.9050078020169877,0.0,0,False
2023-11-09,0.9050078020169877,0.9050078020169877,0.0,0,False
2023-11-10,0.9050078020169877,0.9050078020169877,0.0,0,False
2023-11-11,0.9050078020169877,0.9050078020169877,0.0,0,False
2023-11-12,0.9050078020169877,0.9050078020169877,0.0,0,False
2023-11-13,0.9050078020169877,0.9050078020169877,0.0,0,False
2023-11-14,0.9050078020169877,0.9050078020169877,0.0,0,False
2023-11-15,0.9050078020169877,0.9050078020169877,0.0,0,False
2023-11-16,0.9050078020169877,0.9050078020169877,0.0,0,False
2023-11-17,0.9050078020169877,0.9050078020169877,0.0,0,False
2023-11-18,0.9050078020169877,0.9050078020169877,0.0,0,False
2023-11-19,0.9050078020169877,0.9050078020169877,0.0,0,False
2023-11-20,0.9050078020169877,0.9050078020169877,0.0,0,False
2023-11-21,0.9050078020169877,0.9050078020169877,0.0,0,False
2023-11-22,0.9050078020169877,0.9050078020169877,0.0,0,False
2023-11-23,0.9050078020169877,0.9050078020169877,0.0,0,False
2023-11-24,0.9050078020169877,0.9050078020169877,0.0,0,False
2023-11-25,0.9050078020169877,0.9050078020169877,0.0,0,False
2023-11-26,0.9050078020169877,0.9050078020169877,0.0,0,False
2023-11-27,0.9050078020169877,0.9050078020169877,0.0,0,False
2023-11-28,0.9050078020169877,0.9050078020169877,0.0,0,False
2023-11-29,0.9050078020169877,0.9050078020169877,0.0,0,False
2023-11-30,0.9050078020169877,0.9050078020169877,0.0,0,False
2023-12-01,0.9050078020169877,0.9050078020169877,0.0,0,False
2023-12-02,0.9050078020169877,0.9050078020169877,0.0,0,False
2023-12-03,0.9050078020169877,0.9050078020169877,0.0,0,False
2023-12-04,0.9050078020169877,0.9050078020169877,0.0,0,False
2023-12-05,0.9050078020169877,0.9050078020169877,0.0,0,False
2023-12-06,0.9050078020169877,0.9050078020169877,0.0,0,False
2023-12-07,0.9050078020169877,0.9050078020169877,0.0,0,False
2023-12-08,0.9050078020169877,0.9050078020169877,0.0,0,False
2023-12-09,0.9050078020169877,0.9050078020169877,0.0,0,False
2023-12-10,0.9050078020169877,0.9050078020169877,0.0,0,False
2023-12-11,0.9050078020169877,0.9050078020169877,0.0,0,False
2023-12-12,0.9050078020169877,0.9050078020169877,0.0,0,False
2023-12-13,0.9050078020169877,0.9050078020169877,0.0,0,False
2023-12-14,0.9050078020169877,0.9050078020169877,0.0,0,False
2023-12-15,0.9050078020169877,0.9050078020169877,0.0,0,False
2023-12-16,0.9050078020169877,0.9050078020169877,0.0,0,False
2023-12-17,0.9050078020169877,0.9050078020169877,0.0,0,False
2023-12-18,0.9050078020169877,0.9050078020169877,0.0,0,False
2023-12-19,0.9050078020169877,0.9050078020169877,0.0,0,False
2023-12-20,0.9050078020169877,0.9050078020169877,0.0,0,False
2023-12-21,0.9050078020169877,0.9050078020169877,0.0,0,False
2023-12-22,0.9050078020169877,0.9050078020169877,0.0,0,False
2023-12-23,0.9050078020169877,0.9050078020169877,0.0,0,False
2023-12-24,0.9050078020169877,0.9050078020169877,0.0,0,False
2023-12-25,0.9050078020169877,0.9050078020169877,0.0,0,False
2023-12-26,0.9050078020169877,0.9050078020169877,0.0,0,False
2023-12-27,0.9050078020169877,0.9050078020169877,0.0,0,False
2023-12-28,0.9050078020169877,0.9050078020169877,0.0,0,False
2023-12-29,0.9050078020169877,0.9050078020169877,0.0,0,False
2023-12-30,0.9050078020169877,0.9050078020169877,0.0,0,False
2023-12-31,0.9050078020169877,0.9050078020169877,0.0,0,False
