day,start_equity,end_equity,return_pct,entries,active
2024-01-02,1.0032761764537503,0.9919630700785369,-1.1276163673298312,1,True
2024-01-03,0.9919630700785369,0.9858546677728227,-0.6157892859086522,11,True
2024-01-04,0.9858546677728227,1.0182973051332194,3.2908133846633714,3,True
2024-01-05,1.0182973051332194,1.008586547566986,-0.9536269532759878,8,True
2024-01-06,1.008586547566986,1.0020928271106369,-0.6438436514956458,7,True
2024-01-07,1.0020928271106369,1.006073953281117,0.397281176231834,8,True
2024-01-08,1.006073953281117,0.9782398283460787,-2.7666082442809103,12,True
2024-01-09,0.9782398283460787,0.9758430618692818,-0.24500806523581886,5,True
2024-01-10,0.9758430618692818,0.9594488363484851,-1.6800063618214067,7,True
2024-01-11,0.9594488363484851,0.9791289767370129,2.0511922723704057,6,True
2024-01-12,0.9791289767370129,0.9671515219666006,-1.2232765095286702,6,True
2024-01-13,0.9671515219666006,0.9673931603677041,0.024984544367168127,8,True
2024-01-14,0.9673931603677041,0.9666445859873442,-0.07738057400317189,1,True
2024-01-15,0.9666445859873442,0.9771201167787646,1.0837003530848488,5,True
2024-01-16,0.9771201167787646,0.9745985873280175,-0.2580572651661006,1,True
2024-01-17,0.9745985873280175,0.9821960314438802,0.7795459807398375,0,True
2024-01-18,0.9821960314438802,0.9809091227207871,-0.13102361258793271,1,True
2024-01-19,0.9809091227207871,0.97241777696233,-0.8656607999428467,1,True
2024-01-20,0.97241777696233,1.0087978045834518,3.7411931870236836,11,True
2024-01-21,1.0087978045834518,1.0053482789310673,-0.3419442069274581,3,True
2024-01-22,1.0053482789310673,0.9796097291393452,-2.560162515928166,4,True
2024-01-23,0.9796097291393452,0.9518047265475833,-2.838375504517554,11,True
2024-01-24,0.9518047265475833,0.9510124973712489,-0.08323442343136644,1,True
2024-01-25,0.9510124973712489,0.94128927507053,-1.0224074160534724,3,True
2024-01-26,0.94128927507053,0.9368588022385956,-0.4706813249946262,0,True
2024-01-27,0.9368588022385956,0.9368588022385956,0.0,0,False
2024-01-28,0.9368588022385956,0.9340520760790298,-0.2995890258872702,1,True
2024-01-29,0.9340520760790298,0.9321816300904966,-0.20025071796693217,0,True
2024-01-30,0.9321816300904966,0.9321816300904966,0.0,0,False
2024-01-31,0.9321816300904966,0.9275376716887509,-0.4981817117866716,1,True
2024-02-01,0.9275376716887509,0.9275376716887509,0.0,0,False
2024-02-02,0.9275376716887509,0.9265574013058627,-0.10568523660104967,3,True
2024-02-03,0.9265574013058627,0.9274513133896001,0.09647670856414159,1,True
2024-02-04,0.9274513133896001,0.9234855773074451,-0.42759506886256293,1,True
2024-02-05,0.9234855773074451,0.9234855773074451,0.0,0,False
2024-02-06,0.9234855773074451,0.9164845192362603,-0.7581123347478069,2,True
2024-02-07,0.9164845192362603,0.9087216128360319,-0.8470308267397142,5,True
2024-02-08,0.9087216128360319,0.9314207921208888,2.497924442890165,1,True
2024-02-09,0.9314207921208888,0.9314207921208888,0.0,0,False
2024-02-10,0.9314207921208888,0.9253794118568078,-0.6486198628145812,2,True
2024-02-11,0.9253794118568078,0.9228059647829302,-0.27809642627707465,0,True
2024-02-12,0.9228059647829302,0.9290526824884152,0.6769264551681253,3,True
2024-02-13,0.9290526824884152,0.9291507931585485,0.01056029135726444,0,True
2024-02-14,0.9291507931585485,0.9310977591626106,0.20954252188103428,2,True
2024-02-15,0.9310977591626106,0.946277904756735,1.6303492780153084,7,True
2024-02-16,0.946277904756735,0.9523032516351931,0.6367417909865614,7,True
2024-02-17,0.9523032516351931,0.9391808855564742,-1.377960860281291,6,True
2024-02-18,0.9391808855564742,0.9380499208568771,-0.12042032764827404,4,True
2024-02-19,0.9380499208568771,0.9283716178779043,-1.031747113216741,6,True
2024-02-20,0.9283716178779043,0.9086346183517013,-2.125980495969748,12,True
2024-02-21,0.9086346183517013,0.8954024338831301,-1.4562712229229113,9,True
2024-02-22,0.8954024338831301,0.9294158280602423,3.798671177339208,5,True
2024-02-23,0.9294158280602423,0.9138912867275286,-1.6703547393973728,7,True
2024-02-24,0.9138912867275286,0.9235641494394475,1.0584259695215703,9,True
2024-02-25,0.9235641494394475,0.9191080824115281,-0.48248592484063657,7,True
2024-02-26,0.9191080824115281,0.9277938885739999,0.9450255447305267,7,True
2024-02-27,0.9277938885739999,0.9124427110425931,-1.6545892056910705,7,True
2024-02-28,0.9124427110425931,0.9077302165708035,-0.5164701755801082,7,True
2024-02-29,0.9077302165708035,0.8972521136327702,-1.1543190638312328,16,True
2024-03-01,0.8972521136327702,0.914479226854076,1.919985805500879,9,True
2024-03-02,0.914479226854076,0.909872282878834,-0.5037778705034635,9,True
2024-03-03,0.909872282878834,0.9342446947191791,2.6786629617105095,12,True
2024-03-04,0.9342446947191791,0.9431344186798398,0.951541283660462,4,True
2024-03-05,0.9431344186798398,0.9688928893087104,2.731155826645182,16,True
2024-03-06,0.9688928893087104,0.9409012734584185,-2.8890309918843116,18,True
2024-03-07,0.9409012734584185,0.9348012835794892,-0.6483134895234888,6,True
2024-03-08,0.9348012835794892,0.9364666992554652,0.1781571875467458,6,True
2024-03-09,0.9364666992554652,0.9490504881241917,1.3437518791358238,7,True
2024-03-10,0.9490504881241917,0.9303862638612737,-1.966620795887064,9,True
2024-03-11,0.9303862638612737,0.9368190884016034,0.6914143931610051,10,True
2024-03-12,0.9368190884016034,0.9532418105658276,1.7530302667342568,8,True
2024-03-13,0.9532418105658276,0.961443036306506,0.8603510305334128,9,True
2024-03-14,0.961443036306506,0.966034164825796,0.4775247566332519,6,True
2024-03-15,0.966034164825796,0.9338340963957985,-3.333222530054525,16,True
2024-03-16,0.9338340963957985,0.9360972429410879,0.24234995852305818,4,True
2024-03-17,0.9360972429410879,0.9099691146594314,-2.7911767157400735,9,True
2024-03-18,0.9099691146594314,0.9401512929388071,3.316835461022394,5,True
2024-03-19,0.9401512929388071,0.9056756038609566,-3.6670362883917673,18,True
2024-03-20,0.9056756038609566,0.8825307224560701,-2.5555376898989235,7,True
2024-03-21,0.8825307224560701,0.898041037914843,1.7574816450137698,5,True
2024-03-22,0.898041037914843,0.8984585754005763,0.046494254505646815,10,True
2024-03-23,0.8984585754005763,0.9152049761840572,1.863903494494945,6,True
2024-03-24,0.9152049761840572,0.9084560689486416,-0.7374202950201525,6,True
2024-03-25,0.9084560689486416,0.9391872547389484,3.382792722808503,4,True
2024-03-26,0.9391872547389484,0.9618879710946296,2.41705966953214,9,True
2024-03-27,0.9618879710946296,0.9539179797983662,-0.8285779150760675,10,True
2024-03-28,0.9539179797983662,0.9398987403727365,-1.4696483054646992,5,True
2024-03-29,0.9398987403727365,0.9165157598392744,-2.4878191159389274,7,True
2024-03-30,0.9165157598392744,0.9088737176646365,-0.8338145953952769,3,True
2024-03-31,0.9088737176646365,0.9055829518069203,-0.362070746876908,1,True
2024-04-01,0.9055829518069203,0.8981859268161675,-0.8168246736528606,6,True
2024-04-02,0.8981859268161675,0.873589119659391,-2.7384983913036454,9,True
2024-04-03,0.873589119659391,0.8597235317289403,-1.5871978735102377,5,True
2024-04-04,0.8597235317289403,0.8557863203903963,-0.45796249529499455,3,True
2024-04-05,0.8557863203903963,0.8299747650981364,-3.016121510388836,5,True
2024-04-06,0.8299747650981364,0.8173870836421147,-1.5166342382148645,3,True
2024-04-07,0.8173870836421147,0.8315701948729844,1.735176823161022,4,True
2024-04-08,0.8315701948729844,0.8232991375820766,-0.9946312821097592,2,True
2024-04-09,0.8232991375820766,0.8144240807920211,-1.0779868926038771,3,True
2024-04-10,0.8144240807920211,0.805511007558065,-1.0944019760918855,6,True
2024-04-11,0.805511007558065,0.8089043645014803,0.42126760672114294,1,True
2024-04-12,0.8089043645014803,0.8095522615022631,0.08009562430562056,9,True
2024-04-13,0.8095522615022631,0.7946966788951279,-1.8350368856444366,11,True
2024-04-14,0.7946966788951279,0.7708891206756363,-2.995804418434378,15,True
2024-04-15,0.7708891206756363,0.7903511152884427,2.524616587629258,3,True
2024-04-16,0.7903511152884427,0.7823395513103127,-1.0136714965229277,1,True
2024-04-17,0.7823395513103127,0.7832275484742068,0.11350533951746122,2,True
2024-04-18,0.7832275484742068,0.7899235088170079,0.8549189001134216,1,True
2024-04-19,0.7899235088170079,0.794942985943004,0.6354383772567251,10,True
2024-04-20,0.794942985943004,0.794942985943004,0.0,0,False
2024-04-21,0.794942985943004,0.794942985943004,0.0,0,False
2024-04-22,0.794942985943004,0.794942985943004,0.0,0,False
2024-04-23,0.794942985943004,0.7922951247187886,-0.3330881926172924,4,True
2024-04-24,0.7922951247187886,0.7856443713127338,-0.8394287934581635,6,True
2024-04-25,0.7856443713127338,0.7755771742893934,-1.2813936420773997,3,True
2024-04-26,0.7755771742893934,0.7784253334022417,0.36723090973607153,2,True
2024-04-27,0.7784253334022417,0.7765217686250117,-0.24454044537710606,6,True
2024-04-28,0.7765217686250117,0.7815165190015742,0.6432209087205321,3,True
2024-04-29,0.7815165190015742,0.7870040612475966,0.7021658675920195,3,True
2024-04-30,0.7870040612475966,0.7791947390715837,-0.9922848636426673,2,True
2024-05-01,0.7791947390715837,0.7692521886243616,-1.2760032824488343,6,True
2024-05-02,0.7692521886243616,0.768332791908465,-0.1195182450557275,4,True
2024-05-03,0.768332791908465,0.7691230180448297,0.10284946115626248,3,True
2024-05-04,0.7691230180448297,0.7702115875187391,0.14153385718147504,0,True
2024-05-05,0.7702115875187391,0.7663770683379991,-0.49785269955402445,1,True
2024-05-06,0.7663770683379991,0.7625554679888557,-0.49865797229960984,1,True
2024-05-07,0.7625554679888557,0.764039581489271,0.19462367823936955,4,True
2024-05-08,0.764039581489271,0.7671155589395975,0.402593991836242,3,True
2024-05-09,0.7671155589395975,0.7668883086748728,-0.02962399368340307,10,True
2024-05-10,0.7668883086748728,0.761862994096321,-0.6552863724360591,4,True
2024-05-11,0.761862994096321,0.7486614718218695,-1.732794790762926,4,True
2024-05-12,0.7486614718218695,0.7441103156817788,-0.6079057506479524,0,True
2024-05-13,0.7441103156817788,0.7498171102358794,0.7669285633907563,5,True
2024-05-14,0.7498171102358794,0.7364155501819973,-1.7873105149155855,4,True
2024-05-15,0.7364155501819973,0.7238162118352917,-1.7109006380421898,3,True
2024-05-16,0.7238162118352917,0.7066532581429852,-2.3711756398476447,4,True
2024-05-17,0.7066532581429852,0.7055464564893983,-0.15662584737746732,1,True
2024-05-18,0.7055464564893983,0.7111190781455924,0.7898305781198101,2,True
2024-05-19,0.7111190781455924,0.7102175704229325,-0.12677310317854573,0,True
2024-05-20,0.7102175704229325,0.7128457646946432,0.3700548087180566,2,True
2024-05-21,0.7128457646946432,0.7083443143570473,-0.6314760584323897,2,True
2024-05-22,0.7083443143570473,0.7133442975557411,0.7058690381714028,1,True
2024-05-23,0.7133442975557411,0.7093270313835011,-0.5631594989972122,5,True
2024-05-24,0.7093270313835011,0.7098971294979213,0.08037168882570889,5,True
2024-05-25,0.7098971294979213,0.709987417915106,0.012718521238230807,3,True
2024-05-26,0.709987417915106,0.7219713202936253,1.68790348619281,3,True
2024-05-27,0.7219713202936253,0.7141942096381368,-1.0772049300137754,5,True
2024-05-28,0.7141942096381368,0.7156359397190457,0.2018680719407362,2,True
2024-05-29,0.7156359397190457,0.7088661821480805,-0.9459778632167293,4,True
2024-05-30,0.7088661821480805,0.6869854206829326,-3.0867266652279235,6,True
2024-05-31,0.6869854206829326,0.6777878917285028,-1.3388244753850032,3,True
2024-06-01,0.6777878917285028,0.6687190586840784,-1.338004581536112,3,True
2024-06-02,0.6687190586840784,0.6708771600160152,0.32272167271312213,4,True
2024-06-03,0.6708771600160152,0.6584441570116478,-1.8532458317809697,10,True
2024-06-04,0.6584441570116478,0.6531633968990063,-0.8020057671417891,9,True
2024-06-05,0.6531633968990063,0.6546243366788952,0.22367141006751634,0,True
2024-06-06,0.6546243366788952,0.6493914567014439,-0.799371438587082,3,True
2024-06-07,0.6493914567014439,0.6485587524562234,-0.12822839546584586,0,True
2024-06-08,0.6485587524562234,0.6602415677868648,1.8013503458855773,13,True
2024-06-09,0.6602415677868648,0.6594019392820194,-0.12716989444634397,3,True
2024-06-10,0.6594019392820194,0.6594019392820194,0.0,0,False
2024-06-11,0.6594019392820194,0.6468186061901212,-1.9082948263087318,4,True
2024-06-12,0.6468186061901212,0.6422390284833985,-0.7080157656096597,4,True
2024-06-13,0.6422390284833985,0.6449757014816868,0.4261144024134911,3,True
2024-06-14,0.6449757014816868,0.6280204801240848,-2.628815522608241,6,True
2024-06-15,0.6280204801240848,0.6345005145910183,1.0318189727910099,5,True
2024-06-16,0.6345005145910183,0.6355448874701729,0.16459764100078544,0,True
2024-06-17,0.6355448874701729,0.6229014421512455,-1.9893866771952817,4,True
2024-06-18,0.6229014421512455,0.6277103509010555,0.7720175977120824,6,True
2024-06-19,0.6277103509010555,0.6380545812453434,1.6479305032072622,2,True
2024-06-20,0.6380545812453434,0.6426558551376527,0.72114111042485,1,True
2024-06-21,0.6426558551376527,0.6394555015038925,-0.49798871482694684,1,True
2024-06-22,0.6394555015038925,0.6334500037840836,-0.9391580345598727,3,True
2024-06-23,0.6334500037840836,0.6356311322799828,0.3443252794805618,2,True
2024-06-24,0.6356311322799828,0.6415700922056577,0.9343406299770374,2,True
2024-06-25,0.6415700922056577,0.6491730293608224,1.1850516798603383,1,True
2024-06-26,0.6491730293608224,0.6488352321708112,-0.05203500064441258,0,True
2024-06-27,0.6488352321708112,0.6456113170566321,-0.49687732020852193,1,True
2024-06-28,0.6456113170566321,0.64350075272126,-0.32690943910250736,2,True
2024-06-29,0.64350075272126,0.6248832463955817,-2.8931599919577167,7,True
2024-06-30,0.6248832463955817,0.6272208294524342,0.37408316998992497,0,True
2024-07-01,0.6272208294524342,0.6209960978754494,-0.9924306216709922,2,True
2024-07-02,0.6209960978754494,0.6209960978754494,0.0,0,False
2024-07-03,0.6209960978754494,0.6179090707575514,-0.4971089397275308,1,True
2024-07-04,0.6179090707575514,0.6044441384589239,-2.1791122571027555,5,True
2024-07-05,0.6044441384589239,0.5686069170152678,-5.928955078466935,19,True
2024-07-06,0.5686069170152678,0.5730430211282697,0.7801706205559089,3,True
2024-07-07,0.5730430211282697,0.5781900250603415,0.898188049116766,3,True
2024-07-08,0.5781900250603415,0.5741388307440647,-0.7006683167621208,2,True
2024-07-09,0.5741388307440647,0.5790044028670571,0.8474556783917286,2,True
2024-07-10,0.5790044028670571,0.582672145246594,0.6334567338996733,1,True
2024-07-11,0.582672145246594,0.575241390549253,-1.275289158399051,3,True
2024-07-12,0.575241390549253,0.5752826662547753,0.007175371278966836,0,True
2024-07-13,0.5752826662547753,0.5716200714890658,-0.6366600248107313,2,True
2024-07-14,0.5716200714890658,0.5716723939175121,0.009153357458213662,2,True
2024-07-15,0.5716723939175121,0.5716723939175121,0.0,0,False
2024-07-16,0.5716723939175121,0.5736347802416395,0.34327113658221275,2,True
2024-07-17,0.5736347802416395,0.5785952117271906,0.86473687726214,1,True
2024-07-18,0.5785952117271906,0.5785952117271906,0.0,0,False
2024-07-19,0.5785952117271906,0.5774303951061159,-0.20131805404983716,2,True
2024-07-20,0.5774303951061159,0.5755692303945984,-0.32231845210980437,2,True
2024-07-21,0.5755692303945984,0.5803261691776972,0.8264755188246431,1,True
2024-07-22,0.5803261691776972,0.5791262353032474,-0.20676887208965766,1,True
2024-07-23,0.5791262353032474,0.5760927950771708,-0.5237960294594779,3,True
2024-07-24,0.5760927950771708,0.5718531175896047,-0.7359365581022792,1,True
2024-07-25,0.5718531175896047,0.5673958993169805,-0.7794341126287074,3,True
2024-07-26,0.5673958993169805,0.5595141498555894,-1.3891093451466552,1,True
2024-07-27,0.5595141498555894,0.5653810645056222,1.0485730613867483,2,True
2024-07-28,0.5653810645056222,0.5559095838976633,-1.6752383839103047,2,True
2024-07-29,0.5559095838976633,0.5559095838976633,0.0,0,False
2024-07-30,0.5559095838976633,0.5528515231918231,-0.5501003750284728,2,True
2024-07-31,0.5528515231918231,0.5447367414359712,-1.4678049015768524,7,True
2024-08-01,0.5447367414359712,0.5413218978924973,-0.6268796069220595,1,True
2024-08-02,0.5413218978924973,0.5305915575464206,-1.9822476031087222,4,True
2024-08-03,0.5305915575464206,0.5304077953653106,-0.03463345364178583,9,True
2024-08-04,0.5304077953653106,0.5098018826491911,-3.8849189050714106,7,True
2024-08-05,0.5098018826491911,0.5004333308801736,-1.8376848120555622,22,True
2024-08-06,0.5004333308801736,0.5004333308801736,0.0,0,False
2024-08-07,0.5004333308801736,0.5000893764529061,-0.06873131864789661,1,True
2024-08-08,0.5000893764529061,0.497940353111514,-0.429727853175943,0,True
2024-08-09,0.497940353111514,0.497940353111514,0.0,0,False
2024-08-10,0.497940353111514,0.497940353111514,0.0,0,False
2024-08-11,0.497940353111514,0.4954532133876948,-0.4994854721609987,1,True
2024-08-12,0.4954532133876948,0.5016969581556938,1.2602087541842666,3,True
2024-08-13,0.5016969581556938,0.4978861948825225,-0.7595747215969118,0,True
2024-08-14,0.4978861948825225,0.4978861948825225,0.0,0,False
2024-08-15,0.4978861948825225,0.4978861948825225,0.0,0,False
2024-08-16,0.4978861948825225,0.4978861948825225,0.0,0,False
2024-08-17,0.4978861948825225,0.5018281521754833,0.7917386208892374,1,True
2024-08-18,0.5018281521754833,0.5045880712631179,0.5499729490404448,4,True
2024-08-19,0.5045880712631179,0.4970529680882729,-1.4933177385629937,6,True
2024-08-20,0.4970529680882729,0.4946805253212235,-0.47730180068616956,3,True
2024-08-21,0.4946805253212235,0.4940202869651988,-0.13346762652440836,1,True
2024-08-22,0.4940202869651988,0.4961030196797284,0.42158849939624155,2,True
2024-08-23,0.4961030196797284,0.49645266678014494,0.0704787285193742,0,True
2024-08-24,0.49645266678014494,0.49555264071551053,-0.181291415045004,3,True
2024-08-25,0.49555264071551053,0.4971721122752114,0.3268011158940931,2,True
2024-08-26,0.4971721122752114,0.492478941894337,-0.9439729753539572,2,True
2024-08-27,0.492478941894337,0.4923085684274176,-0.03459507654561822,1,True
2024-08-28,0.4923085684274176,0.49306648578140705,0.1539516885538772,4,True
2024-08-29,0.49306648578140705,0.4941400153303047,0.21772511007238649,3,True
2024-08-30,0.4941400153303047,0.49695230454767814,0.5691280062582127,0,True
2024-08-31,0.49695230454767814,0.49695230454767814,0.0,0,False
2024-09-01,0.49695230454767814,0.49449005919871153,-0.49546914793114905,1,True
2024-09-02,0.49449005919871153,0.49544934566112675,0.19399509546655924,1,True
2024-09-03,0.49544934566112675,0.4947488034722886,-0.1413953202225593,1,True
2024-09-04,0.4947488034722886,0.4944546791223221,-0.05944922916483186,0,True
2024-09-05,0.4944546791223221,0.4908805276790706,-0.7228471271817694,2,True
2024-09-06,0.4908805276790706,0.48929286369563607,-0.32343185233709715,1,True
2024-09-07,0.48929286369563607,0.4870932750389317,-0.44954439762127096,0,True
2024-09-08,0.4870932750389317,0.4870932750389317,0.0,0,False
2024-09-09,0.4870932750389317,0.4870932750389317,0.0,0,False
2024-09-10,0.4870932750389317,0.4870932750389317,0.0,0,False
2024-09-11,0.4870932750389317,0.4822539404530968,-0.9935129129935327,2,True
2024-09-12,0.4822539404530968,0.4822539404530968,0.0,0,False
2024-09-13,0.4822539404530968,0.4798529031235598,-0.497878218948522,1,True
2024-09-14,0.4798529031235598,0.4798529031235598,0.0,0,False
2024-09-15,0.4798529031235598,0.48270031109630984,0.5933918403358662,3,True
2024-09-16,0.48270031109630984,0.4765322218585259,-1.277829969443145,1,True
2024-09-17,0.4765322218585259,0.4741583558891893,-0.49815434517277435,1,True
2024-09-18,0.4741583558891893,0.4670640249877809,-1.4961944281472017,3,True
2024-09-19,0.4670640249877809,0.46833676027152665,0.2724969630831797,2,True
2024-09-20,0.46833676027152665,0.4739770002450212,1.2043128901998879,3,True
2024-09-21,0.4739770002450212,0.4720853584416716,-0.39909991463124017,7,True
2024-09-22,0.4720853584416716,0.47481455894877855,0.5781158975393552,3,True
2024-09-23,0.47481455894877855,0.4708257265057586,-0.8400821684682702,0,True
2024-09-24,0.4708257265057586,0.4708257265057586,0.0,0,False
2024-09-25,0.4708257265057586,0.4708257265057586,0.0,0,False
2024-09-26,0.4708257265057586,0.4708257265057586,0.0,0,False
2024-09-27,0.4708257265057586,0.46847773834574,-0.49869580777673894,1,True
2024-09-28,0.46847773834574,0.46847773834574,0.0,0,False
2024-09-29,0.46847773834574,0.46847773834574,0.0,0,False
2024-09-30,0.46847773834574,0.46497574266245484,-0.747526594465564,2,True
2024-10-01,0.46497574266245484,0.4667940695474372,0.3910584398598038,0,True
2024-10-02,0.4667940695474372,0.4514725396234123,-3.2822888985884813,14,True
2024-10-03,0.4514725396234123,0.4531197820293065,0.3648599330688507,3,True
2024-10-04,0.4531197820293065,0.4535173891129565,0.08774878065780367,3,True
2024-10-05,0.4535173891129565,0.451278804556201,-0.49360501063344664,0,True
2024-10-06,0.451278804556201,0.451278804556201,0.0,0,False
2024-10-07,0.451278804556201,0.451278804556201,0.0,0,False
2024-10-08,0.451278804556201,0.44678222542932805,-0.9964082251314732,2,True
2024-10-09,0.44678222542932805,0.44678222542932805,0.0,0,False
2024-10-10,0.44678222542932805,0.44678222542932805,0.0,0,False
2024-10-11,0.44678222542932805,0.44573567863320734,-0.23424092019664888,1,True
2024-10-12,0.44573567863320734,0.44638839414056536,0.14643555332152225,1,True
2024-10-13,0.44638839414056536,0.4456291595589199,-0.1700838533464144,0,True
2024-10-14,0.4456291595589199,0.4456291595589199,0.0,0,False
2024-10-15,0.4456291595589199,0.4412668542896344,-0.9789092961518198,3,True
2024-10-16,0.4412668542896344,0.43498721783154154,-1.4230927152237727,5,True
2024-10-17,0.43498721783154154,0.4327156601150632,-0.5222125210488482,2,True
2024-10-18,0.4327156601150632,0.442144831101989,2.179068579218635,3,True
2024-10-19,0.442144831101989,0.44312853856411843,0.222485347092638,2,True
2024-10-20,0.44312853856411843,0.44584057581793035,0.6120204450383193,3,True
2024-10-21,0.44584057581793035,0.445224743157143,-0.1381284463975896,7,True
2024-10-22,0.445224743157143,0.44495542796630805,-0.060489717827716394,3,True
2024-10-23,0.44495542796630805,0.4382961262357057,-1.4966222034955345,4,True
2024-10-24,0.4382961262357057,0.43189997016937054,-1.4593229744621183,3,True
2024-10-25,0.43189997016937054,0.4273429621621786,-1.0551072752806423,3,True
2024-10-26,0.4273429621621786,0.42034866457639636,-1.6366942257324157,9,True
2024-10-27,0.42034866457639636,0.42059923098143553,0.0596091830794121,2,True
2024-10-28,0.42059923098143553,0.41850287096724426,-0.49842221758218397,1,True
2024-10-29,0.41850287096724426,0.4239351888145654,1.2980359811548992,2,True
2024-10-30,0.4239351888145654,0.4252639036099639,0.31342403991374557,0,True
2024-10-31,0.4252639036099639,0.4236104564917948,-0.3888049524385706,1,True
2024-11-01,0.4236104564917948,0.4223329065208041,-0.30158603297260056,3,True
2024-11-02,0.4223329065208041,0.4202216378843169,-0.49990625970396385,1,True
2024-11-03,0.4202216378843169,0.41457294971677416,-1.3442163987513966,3,True
2024-11-04,0.41457294971677416,0.4189416580603777,1.0537851894553585,4,True
2024-11-05,0.4189416580603777,0.4136036974878487,-1.2741536846067714,1,True
2024-11-06,0.4136036974878487,0.4175108836001574,0.9446690481831332,3,True
2024-11-07,0.4175108836001574,0.4151739403126479,-0.5597323038284086,4,True
2024-11-08,0.4151739403126479,0.41106845699835354,-0.9888586242197017,2,True
2024-11-09,0.41106845699835354,0.40879847352400683,-0.5522154365533827,2,True
2024-11-10,0.40879847352400683,0.4111747799992248,0.5812904472791258,7,True
2024-11-11,0.4111747799992248,0.40778487563344673,-0.8244436504068808,8,True
2024-11-12,0.40778487563344673,0.3970377648239313,-2.635485387441361,8,True
2024-11-13,0.3970377648239313,0.41416920062255164,4.314812674360424,8,True
2024-11-14,0.41416920062255164,0.41772126545655935,0.8576361614210937,8,True
2024-11-15,0.41772126545655935,0.42342986395193666,1.3666047116700941,7,True
2024-11-16,0.42342986395193666,0.42782297609677694,1.037506448845793,7,True
2024-11-17,0.42782297609677694,0.42514612044914524,-0.6256923534247449,10,True
2024-11-18,0.42514612044914524,0.43729275671676104,2.8570497726248867,7,True
2024-11-19,0.43729275671676104,0.42712514408197066,-2.325127155347795,6,True
2024-11-20,0.42712514408197066,0.4219175630125503,-1.2192166959903883,2,True
2024-11-21,0.4219175630125503,0.43004846105980765,1.9271295532714117,6,True
2024-11-22,0.43004846105980765,0.44173296399427653,2.717020055291841,7,True
2024-11-23,0.44173296399427653,0.45405741005249567,2.790021814713106,1,True
2024-11-24,0.45405741005249567,0.457317474688222,0.717985118963127,16,True
2024-11-25,0.457317474688222,0.4642395576886483,1.5136274871511146,6,True
2024-11-26,0.4642395576886483,0.4545303286591928,-2.0914264776995095,12,True
2024-11-27,0.4545303286591928,0.4605558952244455,1.3256687585682991,5,True
2024-11-28,0.4605558952244455,0.46036375403219865,-0.041719407837181866,4,True
2024-11-29,0.46036375403219865,0.46881187805862695,1.8350975619678023,6,True
2024-11-30,0.46881187805862695,0.4733038352556405,0.9581577189586188,4,True
2024-12-01,0.4733038352556405,0.47123247518619377,-0.437638555860842,5,True
2024-12-02,0.47123247518619377,0.4736104228488677,0.5046230444398558,11,True
2024-12-03,0.4736104228488677,0.4860797420487483,2.6328219562557376,15,True
2024-12-04,0.4860797420487483,0.4987280689967212,2.6021094593784433,8,True
2024-12-05,0.4987280689967212,0.501120594956073,0.4797255474641382,9,True
2024-12-06,0.501120594956073,0.5008456423654549,-0.054867549525106085,8,True
2024-12-07,0.5008456423654549,0.4996071510069532,-0.2472800507262951,4,True
2024-12-08,0.4996071510069532,0.497773643738175,-0.3669897968999747,0,True
2024-12-09,0.497773643738175,0.4970427155940626,-0.14683946273718052,2,True
2024-12-10,0.4970427155940626,0.4653329858379674,-6.3796790016721,21,True
2024-12-11,0.4653329858379674,0.479697981298831,3.087035713790054,5,True
2024-12-12,0.479697981298831,0.4762789924761435,-0.7127377966924531,2,True
2024-12-13,0.4762789924761435,0.476024452471991,-0.053443466576008625,1,True
2024-12-14,0.476024452471991,0.47755245605151425,0.32099266573142327,0,True
2024-12-15,0.47755245605151425,0.4695410972588176,-1.6775871825549737,4,True
2024-12-16,0.4695410972588176,0.4681025316166055,-0.30637693923076803,0,True
2024-12-17,0.4681025316166055,0.4681025316166055,0.0,0,False
2024-12-18,0.4681025316166055,0.46114253480041395,-1.4868530601949481,4,True
2024-12-19,0.46114253480041395,0.457033562870274,-0.8910416238047336,13,True
2024-12-20,0.457033562870274,0.4323664020753048,-5.397231800669933,22,True
2024-12-21,0.4323664020753048,0.4358392801569597,0.8032257050930802,3,True
2024-12-22,0.4358392801569597,0.43799214034719747,0.49395735727684187,2,True
2024-12-23,0.43799214034719747,0.44758486642350986,2.1901594098716615,3,True
2024-12-24,0.44758486642350986,0.44758486642350986,0.0,0,False
2024-12-25,0.44758486642350986,0.45502018502949193,1.661208669854064,4,True
2024-12-26,0.45502018502949193,0.4525138573558535,-0.5508168112313583,3,True
2024-12-27,0.4525138573558535,0.4504107559984972,-0.4647595478390776,0,True
2024-12-28,0.4504107559984972,0.44328876282317015,-1.581221824851542,4,True
2024-12-29,0.44328876282317015,0.4407624994801495,-0.569891130768041,5,True
2024-12-30,0.4407624994801495,0.44076262660184046,2.8841312738059344e-05,6,True
2024-12-31,0.44076262660184046,0.4344329109915078,-1.436082650458137,3,True
