day,start_equity,end_equity,return_pct,entries,active
2021-09-02,1.0,1.0,0.0,0,False
2021-09-03,1.0,1.0,0.0,0,False
2021-09-04,1.0,1.0,0.0,0,False
2021-09-05,1.0,1.0,0.0,0,False
2021-09-06,1.0,1.0,0.0,0,False
2021-09-07,1.0,1.0,0.0,0,False
2021-09-08,1.0,1.0,0.0,0,False
2021-09-09,1.0,1.0,0.0,0,False
2021-09-10,1.0,1.0,0.0,0,False
2021-09-11,1.0,1.0,0.0,0,False
2021-09-12,1.0,1.0,0.0,0,False
2021-09-13,1.0,1.0,0.0,0,False
2021-09-14,1.0,1.0,0.0,0,False
2021-09-15,1.0,1.0,0.0,0,False
2021-09-16,1.0,1.0,0.0,0,False
2021-09-17,1.0,1.0,0.0,0,False
2021-09-18,1.0,1.0,0.0,0,False
2021-09-19,1.0,1.0,0.0,0,False
2021-09-20,1.0,1.0,0.0,0,False
2021-09-21,1.0,1.0,0.0,0,False
2021-09-22,1.0,1.0,0.0,0,False
2021-09-23,1.0,1.0,0.0,0,False
2021-09-24,1.0,1.0,0.0,0,False
2021-09-25,1.0,1.0,0.0,0,False
2021-09-26,1.0,1.0,0.0,0,False
2021-09-27,1.0,1.0,0.0,0,False
2021-09-28,1.0,1.0,0.0,0,False
2021-09-29,1.0,1.0,0.0,0,False
2021-09-30,1.0,1.0,0.0,0,False
2021-10-01,1.0,1.0,0.0,0,False
2021-10-02,1.0,1.0,0.0,0,False
2021-10-03,1.0,1.0,0.0,0,False
2021-10-04,1.0,1.0,0.0,0,False
2021-10-05,1.0,1.0,0.0,0,False
2021-10-06,1.0,1.0,0.0,0,False
2021-10-07,1.0,1.0,0.0,0,False
2021-10-08,1.0,1.0,0.0,0,False
2021-10-09,1.0,1.0,0.0,0,False
2021-10-10,1.0,1.0,0.0,0,False
2021-10-11,1.0,1.0,0.0,0,False
2021-10-12,1.0,1.0,0.0,0,False
2021-10-13,1.0,1.0041608138854907,0.4160813885490722,1,True
2021-10-14,1.0041608138854907,1.007338994356227,0.3165011447159083,0,True
2021-10-15,1.007338994356227,1.007338994356227,0.0,0,False
2021-10-16,1.007338994356227,1.007338994356227,0.0,0,False
2021-10-17,1.007338994356227,1.007338994356227,0.0,0,False
2021-10-18,1.007338994356227,1.007338994356227,0.0,0,False
2021-10-19,1.007338994356227,1.007338994356227,0.0,0,False
2021-10-20,1.007338994356227,1.007338994356227,0.0,0,False
2021-10-21,1.007338994356227,1.007338994356227,0.0,0,False
2021-10-22,1.007338994356227,1.007338994356227,0.0,0,False
2021-10-23,1.007338994356227,1.007338994356227,0.0,0,False
2021-10-24,1.007338994356227,1.007338994356227,0.0,0,False
2021-10-25,1.007338994356227,1.0106508322010632,0.3287709364366176,1,True
2021-10-26,1.0106508322010632,1.0106508322010632,0.0,0,False
2021-10-27,1.0106508322010632,1.0184728118641302,0.7739547046166084,4,True
2021-10-28,1.0184728118641302,1.0141151834128959,-0.4278590847465513,0,True
2021-10-29,1.0141151834128959,1.0141151834128959,0.0,0,False
2021-10-30,1.0141151834128959,1.0141151834128959,0.0,0,False
2021-10-31,1.0141151834128959,1.0141151834128959,0.0,0,False
2021-11-01,1.0141151834128959,1.0141151834128959,0.0,0,False
2021-11-02,1.0141151834128959,1.0141151834128959,0.0,0,False
2021-11-03,1.0141151834128959,1.0141151834128959,0.0,0,False
2021-11-04,1.0141151834128959,1.0141151834128959,0.0,0,False
2021-11-05,1.0141151834128959,1.0141151834128959,0.0,0,False
2021-11-06,1.0141151834128959,1.0141151834128959,0.0,0,False
2021-11-07,1.0141151834128959,1.0141151834128959,0.0,0,False
2021-11-08,1.0141151834128959,1.0141151834128959,0.0,0,False
2021-11-09,1.0141151834128959,1.0141151834128959,0.0,0,False
2021-11-10,1.0141151834128959,1.0141151834128959,0.0,0,False
2021-11-11,1.0141151834128959,1.0099980166804376,-0.405986104911904,3,True
2021-11-12,1.0099980166804376,1.0099980166804376,0.0,0,False
2021-11-13,1.0099980166804376,1.0099980166804376,0.0,0,False
2021-11-14,1.0099980166804376,1.0099980166804376,0.0,0,False
2021-11-15,1.0099980166804376,1.0099980166804376,0.0,0,False
2021-11-16,1.0099980166804376,1.0351352773491793,2.4888425772716216,4,True
2021-11-17,1.0351352773491793,1.042448023543234,0.7064531906188609,0,True
2021-11-18,1.042448023543234,1.0392074422862334,-0.31086262181073687,1,True
2021-11-19,1.0392074422862334,1.0392074422862334,0.0,0,False
2021-11-20,1.0392074422862334,1.0392074422862334,0.0,0,False
2021-11-21,1.0392074422862334,1.0392074422862334,0.0,0,False
2021-11-22,1.0392074422862334,1.0392074422862334,0.0,0,False
2021-11-23,1.0392074422862334,1.0392074422862334,0.0,0,False
2021-11-24,1.0392074422862334,1.0392074422862334,0.0,0,False
2021-11-25,1.0392074422862334,1.0392074422862334,0.0,0,False
2021-11-26,1.0392074422862334,1.0417324555198846,0.24297489903422065,5,True
2021-11-27,1.0417324555198846,1.0403628244361265,-0.13147628035401482,0,True
2021-11-28,1.0403628244361265,1.0403628244361265,0.0,0,False
2021-11-29,1.0403628244361265,1.0403628244361265,0.0,0,False
2021-11-30,1.0403628244361265,1.0403628244361265,0.0,0,False
2021-12-01,1.0403628244361265,1.0403339627362136,-0.0027741956205029616,1,True
2021-12-02,1.0403339627362136,1.0409799468065486,0.06209391344256243,1,True
2021-12-03,1.0409799468065486,1.039247608095574,-0.1664142250087597,1,True
2021-12-04,1.039247608095574,1.018618391040025,-1.9850146293193816,4,True
2021-12-05,1.018618391040025,1.018618391040025,0.0,0,False
2021-12-06,1.018618391040025,1.018618391040025,0.0,0,False
2021-12-07,1.018618391040025,1.018618391040025,0.0,0,False
2021-12-08,1.018618391040025,1.018618391040025,0.0,0,False
2021-12-09,1.018618391040025,1.018618391040025,0.0,0,False
2021-12-10,1.018618391040025,1.018618391040025,0.0,0,False
2021-12-11,1.018618391040025,1.018618391040025,0.0,0,False
2021-12-12,1.018618391040025,1.018618391040025,0.0,0,False
2021-12-13,1.018618391040025,1.018618391040025,0.0,0,False
2021-12-14,1.018618391040025,1.018618391040025,0.0,0,False
2021-12-15,1.018618391040025,1.018618391040025,0.0,0,False
2021-12-16,1.018618391040025,1.018618391040025,0.0,0,False
2021-12-17,1.018618391040025,1.018618391040025,0.0,0,False
2021-12-18,1.018618391040025,1.018618391040025,0.0,0,False
2021-12-19,1.018618391040025,1.018618391040025,0.0,0,False
2021-12-20,1.018618391040025,1.018618391040025,0.0,0,False
2021-12-21,1.018618391040025,1.018618391040025,0.0,0,False
2021-12-22,1.018618391040025,1.018618391040025,0.0,0,False
2021-12-23,1.018618391040025,1.018618391040025,0.0,0,False
2021-12-24,1.018618391040025,1.018618391040025,0.0,0,False
2021-12-25,1.018618391040025,1.018618391040025,0.0,0,False
2021-12-26,1.018618391040025,1.018618391040025,0.0,0,False
2021-12-27,1.018618391040025,1.018618391040025,0.0,0,False
2021-12-28,1.018618391040025,1.018618391040025,0.0,0,False
2021-12-29,1.018618391040025,1.018618391040025,0.0,0,False
2021-12-30,1.018618391040025,1.018618391040025,0.0,0,False
2021-12-31,1.018618391040025,1.018618391040025,0.0,0,False
2022-01-01,1.018618391040025,1.018618391040025,0.0,0,False
2022-01-02,1.018618391040025,1.018618391040025,0.0,0,False
2022-01-03,1.018618391040025,1.018618391040025,0.0,0,False
2022-01-04,1.018618391040025,1.018618391040025,0.0,0,False
2022-01-05,1.018618391040025,1.018618391040025,0.0,0,False
2022-01-06,1.018618391040025,1.0194843918356784,0.08501719616207382,1,True
2022-01-07,1.0194843918356784,1.0194843918356784,0.0,0,False
2022-01-08,1.0194843918356784,1.0194843918356784,0.0,0,False
2022-01-09,1.0194843918356784,1.0194843918356784,0.0,0,False
2022-01-10,1.0194843918356784,1.0194843918356784,0.0,0,False
2022-01-11,1.0194843918356784,1.0194843918356784,0.0,0,False
2022-01-12,1.0194843918356784,1.0194843918356784,0.0,0,False
2022-01-13,1.0194843918356784,1.0194843918356784,0.0,0,False
2022-01-14,1.0194843918356784,1.0194843918356784,0.0,0,False
2022-01-15,1.0194843918356784,1.0194843918356784,0.0,0,False
2022-01-16,1.0194843918356784,1.0194843918356784,0.0,0,False
2022-01-17,1.0194843918356784,1.0194843918356784,0.0,0,False
2022-01-18,1.0194843918356784,1.0194843918356784,0.0,0,False
2022-01-19,1.0194843918356784,1.0194843918356784,0.0,0,False
2022-01-20,1.0194843918356784,1.0194843918356784,0.0,0,False
2022-01-21,1.0194843918356784,1.0194843918356784,0.0,0,False
2022-01-22,1.0194843918356784,1.0194843918356784,0.0,0,False
2022-01-23,1.0194843918356784,1.0194843918356784,0.0,0,False
2022-01-24,1.0194843918356784,1.0194843918356784,0.0,0,False
2022-01-25,1.0194843918356784,1.0194843918356784,0.0,0,False
2022-01-26,1.0194843918356784,1.0194843918356784,0.0,0,False
2022-01-27,1.0194843918356784,1.0194843918356784,0.0,0,False
2022-01-28,1.0194843918356784,1.0194843918356784,0.0,0,False
2022-01-29,1.0194843918356784,1.0194843918356784,0.0,0,False
2022-01-30,1.0194843918356784,1.0194843918356784,0.0,0,False
2022-01-31,1.0194843918356784,1.0194843918356784,0.0,0,False
2022-02-01,1.0194843918356784,1.0194843918356784,0.0,0,False
2022-02-02,1.0194843918356784,1.0194843918356784,0.0,0,False
2022-02-03,1.0194843918356784,1.0194843918356784,0.0,0,False
2022-02-04,1.0194843918356784,1.0194843918356784,0.0,0,False
2022-02-05,1.0194843918356784,1.0194843918356784,0.0,0,False
2022-02-06,1.0194843918356784,1.0194843918356784,0.0,0,False
2022-02-07,1.0194843918356784,1.0194843918356784,0.0,0,False
2022-02-08,1.0194843918356784,1.0194843918356784,0.0,0,False
2022-02-09,1.0194843918356784,1.0194843918356784,0.0,0,False
2022-02-10,1.0194843918356784,1.01919369521348,-0.028514082660457962,1,True
2022-02-11,1.01919369521348,1.018180481153858,-0.09941329743113902,0,True
2022-02-12,1.018180481153858,1.018180481153858,0.0,0,False
2022-02-13,1.018180481153858,1.018180481153858,0.0,0,False
2022-02-14,1.018180481153858,1.018180481153858,0.0,0,False
2022-02-15,1.018180481153858,1.018180481153858,0.0,0,False
2022-02-16,1.018180481153858,1.018180481153858,0.0,0,False
2022-02-17,1.018180481153858,1.018180481153858,0.0,0,False
2022-02-18,1.018180481153858,1.018180481153858,0.0,0,False
2022-02-19,1.018180481153858,1.018180481153858,0.0,0,False
2022-02-20,1.018180481153858,1.018180481153858,0.0,0,False
2022-02-21,1.018180481153858,1.018180481153858,0.0,0,False
2022-02-22,1.018180481153858,1.018180481153858,0.0,0,False
2022-02-23,1.018180481153858,1.018180481153858,0.0,0,False
2022-02-24,1.018180481153858,1.018180481153858,0.0,0,False
2022-02-25,1.018180481153858,1.018180481153858,0.0,0,False
2022-02-26,1.018180481153858,1.018180481153858,0.0,0,False
2022-02-27,1.018180481153858,1.018180481153858,0.0,0,False
2022-02-28,1.018180481153858,1.018180481153858,0.0,0,False
2022-03-01,1.018180481153858,1.018180481153858,0.0,0,False
2022-03-02,1.018180481153858,1.018180481153858,0.0,0,False
2022-03-03,1.018180481153858,1.018180481153858,0.0,0,False
2022-03-04,1.018180481153858,1.018180481153858,0.0,0,False
2022-03-05,1.018180481153858,1.018180481153858,0.0,0,False
2022-03-06,1.018180481153858,1.018180481153858,0.0,0,False
2022-03-07,1.018180481153858,1.018180481153858,0.0,0,False
2022-03-08,1.018180481153858,1.018180481153858,0.0,0,False
2022-03-09,1.018180481153858,1.018180481153858,0.0,0,False
2022-03-10,1.018180481153858,1.018180481153858,0.0,0,False
2022-03-11,1.018180481153858,1.018180481153858,0.0,0,False
2022-03-12,1.018180481153858,1.018180481153858,0.0,0,False
2022-03-13,1.018180481153858,1.018180481153858,0.0,0,False
2022-03-14,1.018180481153858,1.018180481153858,0.0,0,False
2022-03-15,1.018180481153858,1.018180481153858,0.0,0,False
2022-03-16,1.018180481153858,1.018180481153858,0.0,0,False
2022-03-17,1.018180481153858,1.018180481153858,0.0,0,False
2022-03-18,1.018180481153858,1.018180481153858,0.0,0,False
2022-03-19,1.018180481153858,1.018180481153858,0.0,0,False
2022-03-20,1.018180481153858,1.018180481153858,0.0,0,False
2022-03-21,1.018180481153858,1.018180481153858,0.0,0,False
2022-03-22,1.018180481153858,1.018180481153858,0.0,0,False
2022-03-23,1.018180481153858,1.018180481153858,0.0,0,False
2022-03-24,1.018180481153858,1.018180481153858,0.0,0,False
2022-03-25,1.018180481153858,1.018180481153858,0.0,0,False
2022-03-26,1.018180481153858,1.018180481153858,0.0,0,False
2022-03-27,1.018180481153858,1.018180481153858,0.0,0,False
2022-03-28,1.018180481153858,1.018180481153858,0.0,0,False
2022-03-29,1.018180481153858,1.018180481153858,0.0,0,False
2022-03-30,1.018180481153858,1.0147424519728896,-0.3376640236780193,1,True
2022-03-31,1.0147424519728896,1.0147424519728896,0.0,0,False
2022-04-01,1.0147424519728896,1.0147424519728896,0.0,0,False
2022-04-02,1.0147424519728896,1.0147424519728896,0.0,0,False
2022-04-03,1.0147424519728896,1.0147424519728896,0.0,0,False
2022-04-04,1.0147424519728896,1.0147424519728896,0.0,0,False
2022-04-05,1.0147424519728896,1.0147424519728896,0.0,0,False
2022-04-06,1.0147424519728896,1.0154960953897008,0.07426942820278892,1,True
2022-04-07,1.0154960953897008,1.0154960953897008,0.0,0,False
2022-04-08,1.0154960953897008,1.0154960953897008,0.0,0,False
2022-04-09,1.0154960953897008,1.0154960953897008,0.0,0,False
2022-04-10,1.0154960953897008,1.0154960953897008,0.0,0,False
2022-04-11,1.0154960953897008,1.0154960953897008,0.0,0,False
2022-04-12,1.0154960953897008,1.0154960953897008,0.0,0,False
2022-04-13,1.0154960953897008,1.0154960953897008,0.0,0,False
2022-04-14,1.0154960953897008,1.0154960953897008,0.0,0,False
2022-04-15,1.0154960953897008,1.0154960953897008,0.0,0,False
2022-04-16,1.0154960953897008,1.0154960953897008,0.0,0,False
2022-04-17,1.0154960953897008,1.0154960953897008,0.0,0,False
2022-04-18,1.0154960953897008,1.0176161992325596,0.20877518411779317,1,True
2022-04-19,1.0176161992325596,1.0165128594488422,-0.10842396028576395,0,True
2022-04-20,1.0165128594488422,1.0165128594488422,0.0,0,False
2022-04-21,1.0165128594488422,1.0165128594488422,0.0,0,False
2022-04-22,1.0165128594488422,1.0165128594488422,0.0,0,False
2022-04-23,1.0165128594488422,1.0165128594488422,0.0,0,False
2022-04-24,1.0165128594488422,1.0165128594488422,0.0,0,False
2022-04-25,1.0165128594488422,1.0165128594488422,0.0,0,False
2022-04-26,1.0165128594488422,1.0165128594488422,0.0,0,False
2022-04-27,1.0165128594488422,1.0165128594488422,0.0,0,False
2022-04-28,1.0165128594488422,1.0165128594488422,0.0,0,False
2022-04-29,1.0165128594488422,1.0165128594488422,0.0,0,False
2022-04-30,1.0165128594488422,1.0165128594488422,0.0,0,False
2022-05-01,1.0165128594488422,1.029220708033883,1.2501414484742623,4,True
2022-05-02,1.029220708033883,1.029220708033883,0.0,0,False
2022-05-03,1.029220708033883,1.029220708033883,0.0,0,False
2022-05-04,1.029220708033883,1.029220708033883,0.0,0,False
2022-05-05,1.029220708033883,1.029220708033883,0.0,0,False
2022-05-06,1.029220708033883,1.0298249203943188,0.058705810689518856,1,True
2022-05-07,1.0298249203943188,1.0290652543416687,-0.07376652454276211,0,True
2022-05-08,1.0290652543416687,1.0290652543416687,0.0,0,False
2022-05-09,1.0290652543416687,1.0290652543416687,0.0,0,False
2022-05-10,1.0290652543416687,1.0290652543416687,0.0,0,False
2022-05-11,1.0290652543416687,1.0290652543416687,0.0,0,False
2022-05-12,1.0290652543416687,1.0290652543416687,0.0,0,False
2022-05-13,1.0290652543416687,1.0290652543416687,0.0,0,False
2022-05-14,1.0290652543416687,1.0290652543416687,0.0,0,False
2022-05-15,1.0290652543416687,1.0290652543416687,0.0,0,False
2022-05-16,1.0290652543416687,1.0290652543416687,0.0,0,False
2022-05-17,1.0290652543416687,1.0290652543416687,0.0,0,False
2022-05-18,1.0290652543416687,1.0290652543416687,0.0,0,False
2022-05-19,1.0290652543416687,1.0290652543416687,0.0,0,False
2022-05-20,1.0290652543416687,1.032072743417697,0.29225445746414724,1,True
2022-05-21,1.032072743417697,1.032072743417697,0.0,0,False
2022-05-22,1.032072743417697,1.032072743417697,0.0,0,False
2022-05-23,1.032072743417697,1.032072743417697,0.0,0,False
2022-05-24,1.032072743417697,1.032072743417697,0.0,0,False
2022-05-25,1.032072743417697,1.0269204477461684,-0.49921826774214084,1,True
2022-05-26,1.0269204477461684,1.0269204477461684,0.0,0,False
2022-05-27,1.0269204477461684,1.0269204477461684,0.0,0,False
2022-05-28,1.0269204477461684,1.0269204477461684,0.0,0,False
2022-05-29,1.0269204477461684,1.0269204477461684,0.0,0,False
2022-05-30,1.0269204477461684,1.0269204477461684,0.0,0,False
2022-05-31,1.0269204477461684,1.0269204477461684,0.0,0,False
2022-06-01,1.0269204477461684,1.0269204477461684,0.0,0,False
2022-06-02,1.0269204477461684,1.0269204477461684,0.0,0,False
2022-06-03,1.0269204477461684,1.0269204477461684,0.0,0,False
2022-06-04,1.0269204477461684,1.0269204477461684,0.0,0,False
2022-06-05,1.0269204477461684,1.0269204477461684,0.0,0,False
2022-06-06,1.0269204477461684,1.0269204477461684,0.0,0,False
2022-06-07,1.0269204477461684,1.0269204477461684,0.0,0,False
2022-06-08,1.0269204477461684,1.0269204477461684,0.0,0,False
2022-06-09,1.0269204477461684,1.0269204477461684,0.0,0,False
2022-06-10,1.0269204477461684,1.0269204477461684,0.0,0,False
2022-06-11,1.0269204477461684,1.0269204477461684,0.0,0,False
2022-06-12,1.0269204477461684,1.0269204477461684,0.0,0,False
2022-06-13,1.0269204477461684,1.0269204477461684,0.0,0,False
2022-06-14,1.0269204477461684,1.0269204477461684,0.0,0,False
2022-06-15,1.0269204477461684,1.0269204477461684,0.0,0,False
2022-06-16,1.0269204477461684,1.0269204477461684,0.0,0,False
2022-06-17,1.0269204477461684,1.0269204477461684,0.0,0,False
2022-06-18,1.0269204477461684,1.019319870423463,-0.7401330199809375,4,True
2022-06-19,1.019319870423463,1.0193765671020922,0.00556220674925445,0,True
2022-06-20,1.0193765671020922,1.0193765671020922,0.0,0,False
2022-06-21,1.0193765671020922,1.0193765671020922,0.0,0,False
2022-06-22,1.0193765671020922,1.0193765671020922,0.0,0,False
2022-06-23,1.0193765671020922,1.0193765671020922,0.0,0,False
2022-06-24,1.0193765671020922,1.0193765671020922,0.0,0,False
2022-06-25,1.0193765671020922,1.0193765671020922,0.0,0,False
2022-06-26,1.0193765671020922,1.0193765671020922,0.0,0,False
2022-06-27,1.0193765671020922,1.0193765671020922,0.0,0,False
2022-06-28,1.0193765671020922,1.0205427930395226,0.11440580204287176,1,True
2022-06-29,1.0205427930395226,1.024843228209799,0.4213870500685557,0,True
2022-06-30,1.024843228209799,1.024843228209799,0.0,0,False
2022-07-01,1.024843228209799,1.024843228209799,0.0,0,False
2022-07-02,1.024843228209799,1.024843228209799,0.0,0,False
2022-07-03,1.024843228209799,1.024843228209799,0.0,0,False
2022-07-04,1.024843228209799,1.024843228209799,0.0,0,False
2022-07-05,1.024843228209799,1.024843228209799,0.0,0,False
2022-07-06,1.024843228209799,1.024843228209799,0.0,0,False
2022-07-07,1.024843228209799,1.024843228209799,0.0,0,False
2022-07-08,1.024843228209799,1.024843228209799,0.0,0,False
2022-07-09,1.024843228209799,1.024843228209799,0.0,0,False
2022-07-10,1.024843228209799,1.024843228209799,0.0,0,False
2022-07-11,1.024843228209799,1.024843228209799,0.0,0,False
2022-07-12,1.024843228209799,1.024843228209799,0.0,0,False
2022-07-13,1.024843228209799,1.0331349806327603,0.8090752024039194,4,True
2022-07-14,1.0331349806327603,1.0515711411272752,1.7844871038267707,0,True
2022-07-15,1.0515711411272752,1.0515711411272752,0.0,0,False
2022-07-16,1.0515711411272752,1.0515711411272752,0.0,0,False
2022-07-17,1.0515711411272752,1.0515711411272752,0.0,0,False
2022-07-18,1.0515711411272752,1.0515711411272752,0.0,0,False
2022-07-19,1.0515711411272752,1.0515711411272752,0.0,0,False
2022-07-20,1.0515711411272752,1.0515711411272752,0.0,0,False
2022-07-21,1.0515711411272752,1.0464927245187574,-0.48293609532436,3,True
2022-07-22,1.0464927245187574,1.0464927245187574,0.0,0,False
2022-07-23,1.0464927245187574,1.0464927245187574,0.0,0,False
2022-07-24,1.0464927245187574,1.0464927245187574,0.0,0,False
2022-07-25,1.0464927245187574,1.0472201900561848,0.06951462923565632,1,True
2022-07-26,1.0472201900561848,1.0472201900561848,0.0,0,False
2022-07-27,1.0472201900561848,1.0472201900561848,0.0,0,False
2022-07-28,1.0472201900561848,1.0472201900561848,0.0,0,False
2022-07-29,1.0472201900561848,1.0472201900561848,0.0,0,False
2022-07-30,1.0472201900561848,1.0472201900561848,0.0,0,False
2022-07-31,1.0472201900561848,1.0472201900561848,0.0,0,False
2022-08-01,1.0472201900561848,1.0472201900561848,0.0,0,False
2022-08-02,1.0472201900561848,1.0472201900561848,0.0,0,False
2022-08-03,1.0472201900561848,1.0472201900561848,0.0,0,False
2022-08-04,1.0472201900561848,1.0472201900561848,0.0,0,False
2022-08-05,1.0472201900561848,1.0472201900561848,0.0,0,False
2022-08-06,1.0472201900561848,1.0472201900561848,0.0,0,False
2022-08-07,1.0472201900561848,1.0472201900561848,0.0,0,False
2022-08-08,1.0472201900561848,1.0472201900561848,0.0,0,False
2022-08-09,1.0472201900561848,1.0486703212568518,0.13847433562077516,1,True
2022-08-10,1.0486703212568518,1.0486703212568518,0.0,0,False
2022-08-11,1.0486703212568518,1.0486703212568518,0.0,0,False
2022-08-12,1.0486703212568518,1.0488276188122925,0.014999714615004933,1,True
2022-08-13,1.0488276188122925,1.0488276188122925,0.0,0,False
2022-08-14,1.0488276188122925,1.0488276188122925,0.0,0,False
2022-08-15,1.0488276188122925,1.0488276188122925,0.0,0,False
2022-08-16,1.0488276188122925,1.0488276188122925,0.0,0,False
2022-08-17,1.0488276188122925,1.0488276188122925,0.0,0,False
2022-08-18,1.0488276188122925,1.0488276188122925,0.0,0,False
2022-08-19,1.0488276188122925,1.032570451912616,-1.5500323035053554,7,True
2022-08-20,1.032570451912616,1.0340169039012943,0.14008264385243496,0,True
2022-08-21,1.0340169039012943,1.0340169039012943,0.0,0,False
2022-08-22,1.0340169039012943,1.0340169039012943,0.0,0,False
2022-08-23,1.0340169039012943,1.0340169039012943,0.0,0,False
2022-08-24,1.0340169039012943,1.0340169039012943,0.0,0,False
2022-08-25,1.0340169039012943,1.0340169039012943,0.0,0,False
2022-08-26,1.0340169039012943,1.0340169039012943,0.0,0,False
2022-08-27,1.0340169039012943,1.0340169039012943,0.0,0,False
2022-08-28,1.0340169039012943,1.0340169039012943,0.0,0,False
2022-08-29,1.0340169039012943,1.0340169039012943,0.0,0,False
2022-08-30,1.0340169039012943,1.0340169039012943,0.0,0,False
2022-08-31,1.0340169039012943,1.0340169039012943,0.0,0,False
2022-09-01,1.0340169039012943,1.0340169039012943,0.0,0,False
2022-09-02,1.0340169039012943,1.0340169039012943,0.0,0,False
2022-09-03,1.0340169039012943,1.0340169039012943,0.0,0,False
2022-09-04,1.0340169039012943,1.0340169039012943,0.0,0,False
2022-09-05,1.0340169039012943,1.0340169039012943,0.0,0,False
2022-09-06,1.0340169039012943,1.0340169039012943,0.0,0,False
2022-09-07,1.0340169039012943,1.0189243129516465,-1.459607758123116,4,True
2022-09-08,1.0189243129516465,1.0189243129516465,0.0,0,False
2022-09-09,1.0189243129516465,1.0189243129516465,0.0,0,False
2022-09-10,1.0189243129516465,1.0189243129516465,0.0,0,False
2022-09-11,1.0189243129516465,1.0189243129516465,0.0,0,False
2022-09-12,1.0189243129516465,1.0189243129516465,0.0,0,False
2022-09-13,1.0189243129516465,1.0121965514063136,-0.6602807941488598,4,True
2022-09-14,1.0121965514063136,1.0061597409355307,-0.5964069391854343,0,True
2022-09-15,1.0061597409355307,1.009844124477517,0.3661827632419845,1,True
2022-09-16,1.009844124477517,1.009844124477517,0.0,0,False
2022-09-17,1.009844124477517,1.009844124477517,0.0,0,False
2022-09-18,1.009844124477517,1.009844124477517,0.0,0,False
2022-09-19,1.009844124477517,1.0055040635950812,-0.4297753264328019,5,True
2022-09-20,1.0055040635950812,1.0055040635950812,0.0,0,False
2022-09-21,1.0055040635950812,1.0055040635950812,0.0,0,False
2022-09-22,1.0055040635950812,1.0055040635950812,0.0,0,False
2022-09-23,1.0055040635950812,1.0055040635950812,0.0,0,False
2022-09-24,1.0055040635950812,1.0055040635950812,0.0,0,False
2022-09-25,1.0055040635950812,1.0055040635950812,0.0,0,False
2022-09-26,1.0055040635950812,1.0055040635950812,0.0,0,False
2022-09-27,1.0055040635950812,1.0055040635950812,0.0,0,False
2022-09-28,1.0055040635950812,1.0055040635950812,0.0,0,False
2022-09-29,1.0055040635950812,1.0055040635950812,0.0,0,False
2022-09-30,1.0055040635950812,1.0055040635950812,0.0,0,False
2022-10-01,1.0055040635950812,1.0055040635950812,0.0,0,False
2022-10-02,1.0055040635950812,1.0055040635950812,0.0,0,False
2022-10-03,1.0055040635950812,1.0055040635950812,0.0,0,False
2022-10-04,1.0055040635950812,1.0055040635950812,0.0,0,False
2022-10-05,1.0055040635950812,1.0055040635950812,0.0,0,False
2022-10-06,1.0055040635950812,1.0055040635950812,0.0,0,False
2022-10-07,1.0055040635950812,1.0055040635950812,0.0,0,False
2022-10-08,1.0055040635950812,1.0055040635950812,0.0,0,False
2022-10-09,1.0055040635950812,1.0055040635950812,0.0,0,False
2022-10-10,1.0055040635950812,1.0055040635950812,0.0,0,False
2022-10-11,1.0055040635950812,1.023953854630505,1.8348798083876794,4,True
2022-10-12,1.023953854630505,1.023953854630505,0.0,0,False
2022-10-13,1.023953854630505,1.023953854630505,0.0,0,False
2022-10-14,1.023953854630505,1.023953854630505,0.0,0,False
2022-10-15,1.023953854630505,1.023953854630505,0.0,0,False
2022-10-16,1.023953854630505,1.023953854630505,0.0,0,False
2022-10-17,1.023953854630505,1.023953854630505,0.0,0,False
2022-10-18,1.023953854630505,1.023953854630505,0.0,0,False
2022-10-19,1.023953854630505,1.023953854630505,0.0,0,False
2022-10-20,1.023953854630505,1.0269921893336393,0.2967257449536964,1,True
2022-10-21,1.0269921893336393,1.0269921893336393,0.0,0,False
2022-10-22,1.0269921893336393,1.0269921893336393,0.0,0,False
2022-10-23,1.0269921893336393,1.0269921893336393,0.0,0,False
2022-10-24,1.0269921893336393,1.0269921893336393,0.0,0,False
2022-10-25,1.0269921893336393,1.0269921893336393,0.0,0,False
2022-10-26,1.0269921893336393,1.0269921893336393,0.0,0,False
2022-10-27,1.0269921893336393,1.0269921893336393,0.0,0,False
2022-10-28,1.0269921893336393,1.0269921893336393,0.0,0,False
2022-10-29,1.0269921893336393,1.0269921893336393,0.0,0,False
2022-10-30,1.0269921893336393,1.0269921893336393,0.0,0,False
2022-10-31,1.0269921893336393,1.0269921893336393,0.0,0,False
2022-11-01,1.0269921893336393,1.0269921893336393,0.0,0,False
2022-11-02,1.0269921893336393,1.0303791638162056,0.32979554447867265,1,True
2022-11-03,1.0303791638162056,1.0303791638162056,0.0,0,False
2022-11-04,1.0303791638162056,1.0252352177773947,-0.499228460692025,1,True
2022-11-05,1.0252352177773947,1.0252352177773947,0.0,0,False
2022-11-06,1.0252352177773947,1.0252352177773947,0.0,0,False
2022-11-07,1.0252352177773947,1.0252352177773947,0.0,0,False
2022-11-08,1.0252352177773947,1.0244277645921265,-0.07875784710348332,2,True
2022-11-09,1.0244277645921265,1.0268426597059777,0.2357311269099327,0,True
2022-11-10,1.0268426597059777,1.0268426597059777,0.0,0,False
2022-11-11,1.0268426597059777,1.023516672892302,-0.3239042303353479,2,True
2022-11-12,1.023516672892302,1.0252427148900038,0.16863838600931214,0,True
2022-11-13,1.0252427148900038,1.022078022546679,-0.3086773792549624,1,True
2022-11-14,1.022078022546679,1.022078022546679,0.0,0,False
2022-11-15,1.022078022546679,1.022078022546679,0.0,0,False
2022-11-16,1.022078022546679,1.022078022546679,0.0,0,False
2022-11-17,1.022078022546679,1.022078022546679,0.0,0,False
2022-11-18,1.022078022546679,1.022078022546679,0.0,0,False
2022-11-19,1.022078022546679,1.0220461556721532,-0.0031178514578011907,2,True
2022-11-20,1.0220461556721532,1.0179199452936176,-0.40372055172224197,0,True
2022-11-21,1.0179199452936176,1.0179199452936176,0.0,0,False
2022-11-22,1.0179199452936176,1.0179199452936176,0.0,0,False
2022-11-23,1.0179199452936176,1.0179199452936176,0.0,0,False
2022-11-24,1.0179199452936176,1.0179199452936176,0.0,0,False
2022-11-25,1.0179199452936176,1.0179199452936176,0.0,0,False
2022-11-26,1.0179199452936176,1.0179199452936176,0.0,0,False
2022-11-27,1.0179199452936176,1.0179199452936176,0.0,0,False
2022-11-28,1.0179199452936176,1.0150815329708411,-0.2788443566608567,2,True
2022-11-29,1.0150815329708411,1.0150815329708411,0.0,0,False
2022-11-30,1.0150815329708411,1.0150815329708411,0.0,0,False
2022-12-01,1.0150815329708411,1.014911483203146,-0.01675232601241472,1,True
2022-12-02,1.014911483203146,1.014911483203146,0.0,0,False
2022-12-03,1.014911483203146,1.014911483203146,0.0,0,False
2022-12-04,1.014911483203146,1.014911483203146,0.0,0,False
2022-12-05,1.014911483203146,1.014911483203146,0.0,0,False
2022-12-06,1.014911483203146,1.014911483203146,0.0,0,False
2022-12-07,1.014911483203146,1.014911483203146,0.0,0,False
2022-12-08,1.014911483203146,1.0098439658671339,-0.4993063355652083,1,True
2022-12-09,1.0098439658671339,1.0098439658671339,0.0,0,False
2022-12-10,1.0098439658671339,1.0098439658671339,0.0,0,False
2022-12-11,1.0098439658671339,1.0098439658671339,0.0,0,False
2022-12-12,1.0098439658671339,1.0098439658671339,0.0,0,False
2022-12-13,1.0098439658671339,1.0098439658671339,0.0,0,False
2022-12-14,1.0098439658671339,1.0098439658671339,0.0,0,False
2022-12-15,1.0098439658671339,1.0098439658671339,0.0,0,False
2022-12-16,1.0098439658671339,1.0098439658671339,0.0,0,False
2022-12-17,1.0098439658671339,1.0119498560651117,0.20853619659642053,4,True
2022-12-18,1.0119498560651117,1.0119498560651117,0.0,0,False
2022-12-19,1.0119498560651117,1.0119498560651117,0.0,0,False
2022-12-20,1.0119498560651117,1.0119498560651117,0.0,0,False
2022-12-21,1.0119498560651117,1.0119498560651117,0.0,0,False
2022-12-22,1.0119498560651117,1.0119498560651117,0.0,0,False
2022-12-23,1.0119498560651117,1.0119498560651117,0.0,0,False
2022-12-24,1.0119498560651117,1.0119498560651117,0.0,0,False
2022-12-25,1.0119498560651117,1.0119498560651117,0.0,0,False
2022-12-26,1.0119498560651117,1.0119498560651117,0.0,0,False
2022-12-27,1.0119498560651117,1.0119498560651117,0.0,0,False
2022-12-28,1.0119498560651117,1.0137702461059481,0.17988935221699975,1,True
2022-12-29,1.0137702461059481,1.0130161152210637,-0.07438873726873796,0,True
2022-12-30,1.0130161152210637,1.0130161152210637,0.0,0,False
2022-12-31,1.0130161152210637,1.0130161152210637,0.0,0,False
2023-01-01,1.0130161152210637,1.0130161152210637,0.0,0,False
2023-01-02,1.0130161152210637,1.0130161152210637,0.0,0,False
2023-01-03,1.0130161152210637,1.0130161152210637,0.0,0,False
2023-01-04,1.0130161152210637,1.0130161152210637,0.0,0,False
2023-01-05,1.0130161152210637,1.0130161152210637,0.0,0,False
2023-01-06,1.0130161152210637,1.0130161152210637,0.0,0,False
2023-01-07,1.0130161152210637,1.0130161152210637,0.0,0,False
2023-01-08,1.0130161152210637,1.0130161152210637,0.0,0,False
2023-01-09,1.0130161152210637,1.0130161152210637,0.0,0,False
2023-01-10,1.0130161152210637,1.0112388004710833,-0.1754478258810921,2,True
2023-01-11,1.0112388004710833,1.0117628486911345,0.051822400387235845,0,True
2023-01-12,1.0117628486911345,1.0117628486911345,0.0,0,False
2023-01-13,1.0117628486911345,1.0117628486911345,0.0,0,False
2023-01-14,1.0117628486911345,1.0117628486911345,0.0,0,False
2023-01-15,1.0117628486911345,1.0117628486911345,0.0,0,False
2023-01-16,1.0117628486911345,1.0117628486911345,0.0,0,False
2023-01-17,1.0117628486911345,1.0117628486911345,0.0,0,False
2023-01-18,1.0117628486911345,1.0117628486911345,0.0,0,False
2023-01-19,1.0117628486911345,1.0117628486911345,0.0,0,False
2023-01-20,1.0117628486911345,1.0117628486911345,0.0,0,False
2023-01-21,1.0117628486911345,1.0117628486911345,0.0,0,False
2023-01-22,1.0117628486911345,1.0117628486911345,0.0,0,False
2023-01-23,1.0117628486911345,1.0117628486911345,0.0,0,False
2023-01-24,1.0117628486911345,1.0117628486911345,0.0,0,False
2023-01-25,1.0117628486911345,1.0194417281150876,0.758960405977227,4,True
2023-01-26,1.0194417281150876,1.0194417281150876,0.0,0,False
2023-01-27,1.0194417281150876,1.0194417281150876,0.0,0,False
2023-01-28,1.0194417281150876,1.0194417281150876,0.0,0,False
2023-01-29,1.0194417281150876,1.0194417281150876,0.0,0,False
2023-01-30,1.0194417281150876,1.020358927281444,0.08997073016152601,1,True
2023-01-31,1.020358927281444,1.0208926215833556,0.05230456534874861,1,True
2023-02-01,1.0208926215833556,1.0208926215833556,0.0,0,False
2023-02-02,1.0208926215833556,1.0208926215833556,0.0,0,False
2023-02-03,1.0208926215833556,1.0208926215833556,0.0,0,False
2023-02-04,1.0208926215833556,1.0208926215833556,0.0,0,False
2023-02-05,1.0208926215833556,1.0226746175959915,0.17455273698345763,4,True
2023-02-06,1.0226746175959915,1.03363688025797,1.0719208703690697,0,True
2023-02-07,1.03363688025797,1.03363688025797,0.0,0,False
2023-02-08,1.03363688025797,1.03363688025797,0.0,0,False
2023-02-09,1.03363688025797,1.03363688025797,0.0,0,False
2023-02-10,1.03363688025797,1.03363688025797,0.0,0,False
2023-02-11,1.03363688025797,1.03363688025797,0.0,0,False
2023-02-12,1.03363688025797,1.03363688025797,0.0,0,False
2023-02-13,1.03363688025797,1.03363688025797,0.0,0,False
2023-02-14,1.03363688025797,1.03363688025797,0.0,0,False
2023-02-15,1.03363688025797,1.03363688025797,0.0,0,False
2023-02-16,1.03363688025797,1.03363688025797,0.0,0,False
2023-02-17,1.03363688025797,1.03363688025797,0.0,0,False
2023-02-18,1.03363688025797,1.03363688025797,0.0,0,False
2023-02-19,1.03363688025797,1.03363688025797,0.0,0,False
2023-02-20,1.03363688025797,1.03363688025797,0.0,0,False
2023-02-21,1.03363688025797,1.03363688025797,0.0,0,False
2023-02-22,1.03363688025797,1.03363688025797,0.0,0,False
2023-02-23,1.03363688025797,1.0421454625253952,0.8231693769771065,1,True
2023-02-24,1.0421454625253952,1.0421454625253952,0.0,0,False
2023-02-25,1.0421454625253952,1.0421454625253952,0.0,0,False
2023-02-26,1.0421454625253952,1.0421454625253952,0.0,0,False
2023-02-27,1.0421454625253952,1.0421454625253952,0.0,0,False
2023-02-28,1.0421454625253952,1.0421454625253952,0.0,0,False
2023-03-01,1.0421454625253952,1.0421454625253952,0.0,0,False
2023-03-02,1.0421454625253952,1.0421454625253952,0.0,0,False
2023-03-03,1.0421454625253952,1.0428188045022473,0.06461113165723287,1,True
2023-03-04,1.0428188045022473,1.0428188045022473,0.0,0,False
2023-03-05,1.0428188045022473,1.0428188045022473,0.0,0,False
2023-03-06,1.0428188045022473,1.0428188045022473,0.0,0,False
2023-03-07,1.0428188045022473,1.0428188045022473,0.0,0,False
2023-03-08,1.0428188045022473,1.0428188045022473,0.0,0,False
2023-03-09,1.0428188045022473,1.0428188045022473,0.0,0,False
2023-03-10,1.0428188045022473,1.0428188045022473,0.0,0,False
2023-03-11,1.0428188045022473,1.0428188045022473,0.0,0,False
2023-03-12,1.0428188045022473,1.0428188045022473,0.0,0,False
2023-03-13,1.0428188045022473,1.0428188045022473,0.0,0,False
2023-03-14,1.0428188045022473,1.0428188045022473,0.0,0,False
2023-03-15,1.0428188045022473,1.0428188045022473,0.0,0,False
2023-03-16,1.0428188045022473,1.0428188045022473,0.0,0,False
2023-03-17,1.0428188045022473,1.0428188045022473,0.0,0,False
2023-03-18,1.0428188045022473,1.0428188045022473,0.0,0,False
2023-03-19,1.0428188045022473,1.0428188045022473,0.0,0,False
2023-03-20,1.0428188045022473,1.0428188045022473,0.0,0,False
2023-03-21,1.0428188045022473,1.0428188045022473,0.0,0,False
2023-03-22,1.0428188045022473,1.0428188045022473,0.0,0,False
2023-03-23,1.0428188045022473,1.0499331443412596,0.682222051261161,3,True
2023-03-24,1.0499331443412596,1.0508753671486173,0.08974121947058489,0,True
2023-03-25,1.0508753671486173,1.0465813946288338,-0.40860911331802585,1,True
2023-03-26,1.0465813946288338,1.046864199037119,0.027021730917109466,0,True
2023-03-27,1.046864199037119,1.046864199037119,0.0,0,False
2023-03-28,1.046864199037119,1.046864199037119,0.0,0,False
2023-03-29,1.046864199037119,1.046864199037119,0.0,0,False
2023-03-30,1.046864199037119,1.046864199037119,0.0,0,False
2023-03-31,1.046864199037119,1.046864199037119,0.0,0,False
2023-04-01,1.046864199037119,1.046864199037119,0.0,0,False
2023-04-02,1.046864199037119,1.046864199037119,0.0,0,False
2023-04-03,1.046864199037119,1.046864199037119,0.0,0,False
2023-04-04,1.046864199037119,1.046864199037119,0.0,0,False
2023-04-05,1.046864199037119,1.046864199037119,0.0,0,False
2023-04-06,1.046864199037119,1.046864199037119,0.0,0,False
2023-04-07,1.046864199037119,1.0442231058002132,-0.252286135998836,1,True
2023-04-08,1.0442231058002132,1.0442231058002132,0.0,0,False
2023-04-09,1.0442231058002132,1.0442231058002132,0.0,0,False
2023-04-10,1.0442231058002132,1.0442231058002132,0.0,0,False
2023-04-11,1.0442231058002132,1.0442231058002132,0.0,0,False
2023-04-12,1.0442231058002132,1.0442231058002132,0.0,0,False
2023-04-13,1.0442231058002132,1.0442231058002132,0.0,0,False
2023-04-14,1.0442231058002132,1.0442231058002132,0.0,0,False
2023-04-15,1.0442231058002132,1.0442231058002132,0.0,0,False
2023-04-16,1.0442231058002132,1.0442231058002132,0.0,0,False
2023-04-17,1.0442231058002132,1.0442231058002132,0.0,0,False
2023-04-18,1.0442231058002132,1.0442231058002132,0.0,0,False
2023-04-19,1.0442231058002132,1.0380847841154779,-0.5878362249063018,2,True
2023-04-20,1.0380847841154779,1.035564470279624,-0.24278497040116642,0,True
2023-04-21,1.035564470279624,1.035564470279624,0.0,0,False
2023-04-22,1.035564470279624,1.035564470279624,0.0,0,False
2023-04-23,1.035564470279624,1.035564470279624,0.0,0,False
2023-04-24,1.035564470279624,1.035564470279624,0.0,0,False
2023-04-25,1.035564470279624,1.035564470279624,0.0,0,False
2023-04-26,1.035564470279624,1.035564470279624,0.0,0,False
2023-04-27,1.035564470279624,1.035564470279624,0.0,0,False
2023-04-28,1.035564470279624,1.035564470279624,0.0,0,False
2023-04-29,1.035564470279624,1.035564470279624,0.0,0,False
2023-04-30,1.035564470279624,1.035564470279624,0.0,0,False
2023-05-01,1.035564470279624,1.035564470279624,0.0,0,False
2023-05-02,1.035564470279624,1.035564470279624,0.0,0,False
2023-05-03,1.035564470279624,1.035564470279624,0.0,0,False
2023-05-04,1.035564470279624,1.035564470279624,0.0,0,False
2023-05-05,1.035564470279624,1.035564470279624,0.0,0,False
2023-05-06,1.035564470279624,1.035564470279624,0.0,0,False
2023-05-07,1.035564470279624,1.035564470279624,0.0,0,False
2023-05-08,1.035564470279624,1.041279118745939,0.5518389854348493,4,True
2023-05-09,1.041279118745939,1.0360807844081203,-0.4992258314062026,1,True
2023-05-10,1.0360807844081203,1.0360807844081203,0.0,0,False
2023-05-11,1.0360807844081203,1.0360807844081203,0.0,0,False
2023-05-12,1.0360807844081203,1.0360807844081203,0.0,0,False
2023-05-13,1.0360807844081203,1.0360807844081203,0.0,0,False
2023-05-14,1.0360807844081203,1.0360807844081203,0.0,0,False
2023-05-15,1.0360807844081203,1.0360807844081203,0.0,0,False
2023-05-16,1.0360807844081203,1.0360807844081203,0.0,0,False
2023-05-17,1.0360807844081203,1.0360807844081203,0.0,0,False
2023-05-18,1.0360807844081203,1.0360807844081203,0.0,0,False
2023-05-19,1.0360807844081203,1.0360807844081203,0.0,0,False
2023-05-20,1.0360807844081203,1.0360807844081203,0.0,0,False
2023-05-21,1.0360807844081203,1.0360807844081203,0.0,0,False
2023-05-22,1.0360807844081203,1.0360807844081203,0.0,0,False
2023-05-23,1.0360807844081203,1.0360807844081203,0.0,0,False
2023-05-24,1.0360807844081203,1.0360807844081203,0.0,0,False
2023-05-25,1.0360807844081203,1.0360807844081203,0.0,0,False
2023-05-26,1.0360807844081203,1.0374694851297535,0.13403401959881656,1,True
2023-05-27,1.0374694851297535,1.0401083064064303,0.25435170041139266,0,True
2023-05-28,1.0401083064064303,1.0401083064064303,0.0,0,False
2023-05-29,1.0401083064064303,1.0401083064064303,0.0,0,False
2023-05-30,1.0401083064064303,1.0401083064064303,0.0,0,False
2023-05-31,1.0401083064064303,1.0401083064064303,0.0,0,False
2023-06-01,1.0401083064064303,1.0401083064064303,0.0,0,False
2023-06-02,1.0401083064064303,1.0401083064064303,0.0,0,False
2023-06-03,1.0401083064064303,1.0401083064064303,0.0,0,False
2023-06-04,1.0401083064064303,1.0401083064064303,0.0,0,False
2023-06-05,1.0401083064064303,1.0401083064064303,0.0,0,False
2023-06-06,1.0401083064064303,1.0316613022719658,-0.8121273604331458,4,True
2023-06-07,1.0316613022719658,1.0316613022719658,0.0,0,False
2023-06-08,1.0316613022719658,1.0316613022719658,0.0,0,False
2023-06-09,1.0316613022719658,1.0316613022719658,0.0,0,False
2023-06-10,1.0316613022719658,1.0427100389711765,1.0709655072724589,5,True
2023-06-11,1.0427100389711765,1.0418068012290884,-0.0866240573438204,0,True
2023-06-12,1.0418068012290884,1.0418068012290884,0.0,0,False
2023-06-13,1.0418068012290884,1.0418068012290884,0.0,0,False
2023-06-14,1.0418068012290884,1.0418068012290884,0.0,0,False
2023-06-15,1.0418068012290884,1.0418068012290884,0.0,0,False
2023-06-16,1.0418068012290884,1.0418068012290884,0.0,0,False
2023-06-17,1.0418068012290884,1.0418068012290884,0.0,0,False
2023-06-18,1.0418068012290884,1.0418068012290884,0.0,0,False
2023-06-19,1.0418068012290884,1.0418068012290884,0.0,0,False
2023-06-20,1.0418068012290884,1.0418068012290884,0.0,0,False
2023-06-21,1.0418068012290884,1.0418068012290884,0.0,0,False
2023-06-22,1.0418068012290884,1.0418068012290884,0.0,0,False
2023-06-23,1.0418068012290884,1.0418068012290884,0.0,0,False
2023-06-24,1.0418068012290884,1.0418068012290884,0.0,0,False
2023-06-25,1.0418068012290884,1.0418068012290884,0.0,0,False
2023-06-26,1.0418068012290884,1.0418068012290884,0.0,0,False
2023-06-27,1.0418068012290884,1.0418068012290884,0.0,0,False
2023-06-28,1.0418068012290884,1.0418068012290884,0.0,0,False
2023-06-29,1.0418068012290884,1.0418068012290884,0.0,0,False
2023-06-30,1.0418068012290884,1.0298283511610025,-1.149776528042834,3,True
2023-07-01,1.0298283511610025,1.0334261780081604,0.34936179831346337,0,True
2023-07-02,1.0334261780081604,1.0334261780081604,0.0,0,False
2023-07-03,1.0334261780081604,1.0334261780081604,0.0,0,False
2023-07-04,1.0334261780081604,1.0334261780081604,0.0,0,False
2023-07-05,1.0334261780081604,1.0334261780081604,0.0,0,False
2023-07-06,1.0334261780081604,1.0334261780081604,0.0,0,False
2023-07-07,1.0334261780081604,1.0334261780081604,0.0,0,False
2023-07-08,1.0334261780081604,1.0334261780081604,0.0,0,False
2023-07-09,1.0334261780081604,1.0334261780081604,0.0,0,False
2023-07-10,1.0334261780081604,1.0334261780081604,0.0,0,False
2023-07-11,1.0334261780081604,1.0334261780081604,0.0,0,False
2023-07-12,1.0334261780081604,1.0334261780081604,0.0,0,False
2023-07-13,1.0334261780081604,1.0334261780081604,0.0,0,False
2023-07-14,1.0334261780081604,1.0334261780081604,0.0,0,False
2023-07-15,1.0334261780081604,1.0334261780081604,0.0,0,False
2023-07-16,1.0334261780081604,1.0334261780081604,0.0,0,False
2023-07-17,1.0334261780081604,1.0334261780081604,0.0,0,False
2023-07-18,1.0334261780081604,1.0334261780081604,0.0,0,False
2023-07-19,1.0334261780081604,1.0334261780081604,0.0,0,False
2023-07-20,1.0334261780081604,1.0334261780081604,0.0,0,False
2023-07-21,1.0334261780081604,1.0334261780081604,0.0,0,False
2023-07-22,1.0334261780081604,1.0334261780081604,0.0,0,False
2023-07-23,1.0334261780081604,1.0334261780081604,0.0,0,False
2023-07-24,1.0334261780081604,1.0332464017393568,-0.017396140394865256,1,True
2023-07-25,1.0332464017393568,1.0335118033555062,0.025686188280227285,0,True
2023-07-26,1.0335118033555062,1.0335118033555062,0.0,0,False
2023-07-27,1.0335118033555062,1.0335118033555062,0.0,0,False
2023-07-28,1.0335118033555062,1.0335118033555062,0.0,0,False
2023-07-29,1.0335118033555062,1.0335118033555062,0.0,0,False
2023-07-30,1.0335118033555062,1.0335118033555062,0.0,0,False
2023-07-31,1.0335118033555062,1.0335118033555062,0.0,0,False
2023-08-01,1.0335118033555062,1.0335118033555062,0.0,0,False
2023-08-02,1.0335118033555062,1.0335118033555062,0.0,0,False
2023-08-03,1.0335118033555062,1.0335118033555062,0.0,0,False
2023-08-04,1.0335118033555062,1.0335118033555062,0.0,0,False
2023-08-05,1.0335118033555062,1.0335118033555062,0.0,0,False
2023-08-06,1.0335118033555062,1.0335118033555062,0.0,0,False
2023-08-07,1.0335118033555062,1.0335118033555062,0.0,0,False
2023-08-08,1.0335118033555062,1.0335118033555062,0.0,0,False
2023-08-09,1.0335118033555062,1.0335118033555062,0.0,0,False
2023-08-10,1.0335118033555062,1.0335118033555062,0.0,0,False
2023-08-11,1.0335118033555062,1.0335118033555062,0.0,0,False
2023-08-12,1.0335118033555062,1.0335118033555062,0.0,0,False
2023-08-13,1.0335118033555062,1.0335118033555062,0.0,0,False
2023-08-14,1.0335118033555062,1.0335118033555062,0.0,0,False
2023-08-15,1.0335118033555062,1.0335118033555062,0.0,0,False
2023-08-16,1.0335118033555062,1.0358244220668715,0.22376316398680096,4,True
2023-08-17,1.0358244220668715,1.0358244220668715,0.0,0,False
2023-08-18,1.0358244220668715,1.0665499752580319,2.9662897047600945,4,True
2023-08-19,1.0665499752580319,1.0665499752580319,0.0,0,False
2023-08-20,1.0665499752580319,1.0665499752580319,0.0,0,False
2023-08-21,1.0665499752580319,1.0665499752580319,0.0,0,False
2023-08-22,1.0665499752580319,1.0665499752580319,0.0,0,False
2023-08-23,1.0665499752580319,1.0665499752580319,0.0,0,False
2023-08-24,1.0665499752580319,1.0665499752580319,0.0,0,False
2023-08-25,1.0665499752580319,1.0518803530011023,-1.3754275558799378,3,True
2023-08-26,1.0518803530011023,1.0518803530011023,0.0,0,False
2023-08-27,1.0518803530011023,1.0518803530011023,0.0,0,False
2023-08-28,1.0518803530011023,1.0518803530011023,0.0,0,False
2023-08-29,1.0518803530011023,1.0518803530011023,0.0,0,False
2023-08-30,1.0518803530011023,1.0518803530011023,0.0,0,False
2023-08-31,1.0518803530011023,1.0518803530011023,0.0,0,False
2023-09-01,1.0518803530011023,1.0518803530011023,0.0,0,False
2023-09-02,1.0518803530011023,1.0518803530011023,0.0,0,False
2023-09-03,1.0518803530011023,1.0518803530011023,0.0,0,False
2023-09-04,1.0518803530011023,1.0518803530011023,0.0,0,False
2023-09-05,1.0518803530011023,1.0518803530011023,0.0,0,False
2023-09-06,1.0518803530011023,1.0518803530011023,0.0,0,False
2023-09-07,1.0518803530011023,1.0518803530011023,0.0,0,False
2023-09-08,1.0518803530011023,1.0518803530011023,0.0,0,False
2023-09-09,1.0518803530011023,1.0518803530011023,0.0,0,False
2023-09-10,1.0518803530011023,1.05040896881355,-0.13988132617499538,1,True
2023-09-11,1.05040896881355,1.05040896881355,0.0,0,False
2023-09-12,1.05040896881355,1.05040896881355,0.0,0,False
2023-09-13,1.05040896881355,1.05040896881355,0.0,0,False
2023-09-14,1.05040896881355,1.05040896881355,0.0,0,False
2023-09-15,1.05040896881355,1.05040896881355,0.0,0,False
2023-09-16,1.05040896881355,1.05040896881355,0.0,0,False
2023-09-17,1.05040896881355,1.05040896881355,0.0,0,False
2023-09-18,1.05040896881355,1.05040896881355,0.0,0,False
2023-09-19,1.05040896881355,1.05040896881355,0.0,0,False
2023-09-20,1.05040896881355,1.05040896881355,0.0,0,False
2023-09-21,1.05040896881355,1.05040896881355,0.0,0,False
2023-09-22,1.05040896881355,1.05040896881355,0.0,0,False
2023-09-23,1.05040896881355,1.05040896881355,0.0,0,False
2023-09-24,1.05040896881355,1.05040896881355,0.0,0,False
2023-09-25,1.05040896881355,1.05040896881355,0.0,0,False
2023-09-26,1.05040896881355,1.05040896881355,0.0,0,False
2023-09-27,1.05040896881355,1.05040896881355,0.0,0,False
2023-09-28,1.05040896881355,1.05040896881355,0.0,0,False
2023-09-29,1.05040896881355,1.05040896881355,0.0,0,False
2023-09-30,1.05040896881355,1.05040896881355,0.0,0,False
2023-10-01,1.05040896881355,1.05040896881355,0.0,0,False
2023-10-02,1.05040896881355,1.05040896881355,0.0,0,False
2023-10-03,1.05040896881355,1.0505604537234394,0.014421517179208365,1,True
2023-10-04,1.0505604537234394,1.0476303887033782,-0.27890494161249,0,True
2023-10-05,1.0476303887033782,1.0476303887033782,0.0,0,False
2023-10-06,1.0476303887033782,1.0476303887033782,0.0,0,False
2023-10-07,1.0476303887033782,1.0476303887033782,0.0,0,False
2023-10-08,1.0476303887033782,1.0476303887033782,0.0,0,False
2023-10-09,1.0476303887033782,1.0476303887033782,0.0,0,False
2023-10-10,1.0476303887033782,1.0476303887033782,0.0,0,False
2023-10-11,1.0476303887033782,1.0476303887033782,0.0,0,False
2023-10-12,1.0476303887033782,1.0476303887033782,0.0,0,False
2023-10-13,1.0476303887033782,1.0476303887033782,0.0,0,False
2023-10-14,1.0476303887033782,1.0476303887033782,0.0,0,False
2023-10-15,1.0476303887033782,1.0476303887033782,0.0,0,False
2023-10-16,1.0476303887033782,1.0476303887033782,0.0,0,False
2023-10-17,1.0476303887033782,1.0476303887033782,0.0,0,False
2023-10-18,1.0476303887033782,1.0476303887033782,0.0,0,False
2023-10-19,1.0476303887033782,1.0423998976483597,-0.4992687412869068,1,True
2023-10-20,1.0423998976483597,1.0423998976483597,0.0,0,False
2023-10-21,1.0423998976483597,1.0430066518292895,0.058207429058532156,1,True
2023-10-22,1.0430066518292895,1.0430066518292895,0.0,0,False
2023-10-23,1.0430066518292895,1.0430066518292895,0.0,0,False
2023-10-24,1.0430066518292895,1.0430066518292895,0.0,0,False
2023-10-25,1.0430066518292895,1.0430066518292895,0.0,0,False
2023-10-26,1.0430066518292895,1.0430066518292895,0.0,0,False
2023-10-27,1.0430066518292895,1.0436301668799377,0.05978054402189237,1,True
2023-10-28,1.0436301668799377,1.044634263047908,0.09621187656658758,0,True
2023-10-29,1.044634263047908,1.044634263047908,0.0,0,False
2023-10-30,1.044634263047908,1.044634263047908,0.0,0,False
2023-10-31,1.044634263047908,1.044634263047908,0.0,0,False
2023-11-01,1.044634263047908,1.044634263047908,0.0,0,False
2023-11-02,1.044634263047908,1.044634263047908,0.0,0,False
2023-11-03,1.044634263047908,1.044634263047908,0.0,0,False
2023-11-04,1.044634263047908,1.044634263047908,0.0,0,False
2023-11-05,1.044634263047908,1.044634263047908,0.0,0,False
2023-11-06,1.044634263047908,1.044634263047908,0.0,0,False
2023-11-07,1.044634263047908,1.044634263047908,0.0,0,False
2023-11-08,1.044634263047908,1.044634263047908,0.0,0,False
2023-11-09,1.044634263047908,1.044634263047908,0.0,0,False
2023-11-10,1.044634263047908,1.0581449383604105,1.293340242649399,4,True
2023-11-11,1.0581449383604105,1.0581449383604105,0.0,0,False
2023-11-12,1.0581449383604105,1.0581449383604105,0.0,0,False
2023-11-13,1.0581449383604105,1.0581449383604105,0.0,0,False
2023-11-14,1.0581449383604105,1.0581449383604105,0.0,0,False
2023-11-15,1.0581449383604105,1.0581449383604105,0.0,0,False
2023-11-16,1.0581449383604105,1.0581449383604105,0.0,0,False
2023-11-17,1.0581449383604105,1.0581449383604105,0.0,0,False
2023-11-18,1.0581449383604105,1.0581449383604105,0.0,0,False
2023-11-19,1.0581449383604105,1.0581449383604105,0.0,0,False
2023-11-20,1.0581449383604105,1.0581449383604105,0.0,0,False
2023-11-21,1.0581449383604105,1.0581449383604105,0.0,0,False
2023-11-22,1.0581449383604105,1.0581449383604105,0.0,0,False
2023-11-23,1.0581449383604105,1.0581449383604105,0.0,0,False
2023-11-24,1.0581449383604105,1.0581449383604105,0.0,0,False
2023-11-25,1.0581449383604105,1.0581449383604105,0.0,0,False
2023-11-26,1.0581449383604105,1.0581449383604105,0.0,0,False
2023-11-27,1.0581449383604105,1.0581449383604105,0.0,0,False
2023-11-28,1.0581449383604105,1.0581449383604105,0.0,0,False
2023-11-29,1.0581449383604105,1.0581449383604105,0.0,0,False
2023-11-30,1.0581449383604105,1.0581449383604105,0.0,0,False
2023-12-01,1.0581449383604105,1.0581449383604105,0.0,0,False
2023-12-02,1.0581449383604105,1.0581449383604105,0.0,0,False
2023-12-03,1.0581449383604105,1.058650807918236,0.04780720858612586,1,True
2023-12-04,1.058650807918236,1.065451744168246,0.6424154404022664,4,True
2023-12-05,1.065451744168246,1.0698132257281046,0.40935514759172786,0,True
2023-12-06,1.0698132257281046,1.0698132257281046,0.0,0,False
2023-12-07,1.0698132257281046,1.0698132257281046,0.0,0,False
2023-12-08,1.0698132257281046,1.0698132257281046,0.0,0,False
2023-12-09,1.0698132257281046,1.0698132257281046,0.0,0,False
2023-12-10,1.0698132257281046,1.0698132257281046,0.0,0,False
2023-12-11,1.0698132257281046,1.0798791123215419,0.940901304205366,4,True
2023-12-12,1.0798791123215419,1.0798791123215419,0.0,0,False
2023-12-13,1.0798791123215419,1.0798791123215419,0.0,0,False
2023-12-14,1.0798791123215419,1.0798791123215419,0.0,0,False
2023-12-15,1.0798791123215419,1.0798791123215419,0.0,0,False
2023-12-16,1.0798791123215419,1.0798791123215419,0.0,0,False
2023-12-17,1.0798791123215419,1.0798791123215419,0.0,0,False
2023-12-18,1.0798791123215419,1.0798791123215419,0.0,0,False
2023-12-19,1.0798791123215419,1.0798791123215419,0.0,0,False
2023-12-20,1.0798791123215419,1.0798791123215419,0.0,0,False
2023-12-21,1.0798791123215419,1.0798791123215419,0.0,0,False
2023-12-22,1.0798791123215419,1.0798791123215419,0.0,0,False
2023-12-23,1.0798791123215419,1.0798791123215419,0.0,0,False
2023-12-24,1.0798791123215419,1.0786068756007376,-0.11781288352444852,1,True
2023-12-25,1.0786068756007376,1.0811212264105907,0.23311095698816953,0,True
2023-12-26,1.0811212264105907,1.0811212264105907,0.0,0,False
2023-12-27,1.0811212264105907,1.0759288490420025,-0.48027707177921153,1,True
2023-12-28,1.0759288490420025,1.0759288490420025,0.0,0,False
2023-12-29,1.0759288490420025,1.0759288490420025,0.0,0,False
2023-12-30,1.0759288490420025,1.0759288490420025,0.0,0,False
2023-12-31,1.0759288490420025,1.0759288490420025,0.0,0,False
