day,start_equity,end_equity,return_pct,entries,active
2021-09-02,1.0,1.0,0.0,0,False
2021-09-03,1.0,1.0,0.0,0,False
2021-09-04,1.0,1.0,0.0,0,False
2021-09-05,1.0,1.0,0.0,0,False
2021-09-06,1.0,1.0,0.0,0,False
2021-09-07,1.0,1.0,0.0,0,False
2021-09-08,1.0,1.0,0.0,0,False
2021-09-09,1.0,1.0,0.0,0,False
2021-09-10,1.0,1.0,0.0,0,False
2021-09-11,1.0,1.0,0.0,0,False
2021-09-12,1.0,1.0,0.0,0,False
2021-09-13,1.0,1.0,0.0,0,False
2021-09-14,1.0,1.0,0.0,0,False
2021-09-15,1.0,1.0,0.0,0,False
2021-09-16,1.0,1.0,0.0,0,False
2021-09-17,1.0,1.0,0.0,0,False
2021-09-18,1.0,1.0,0.0,0,False
2021-09-19,1.0,1.0,0.0,0,False
2021-09-20,1.0,1.0,0.0,0,False
2021-09-21,1.0,1.0,0.0,0,False
2021-09-22,1.0,1.0,0.0,0,False
2021-09-23,1.0,1.0,0.0,0,False
2021-09-24,1.0,1.0,0.0,0,False
2021-09-25,1.0,1.0,0.0,0,False
2021-09-26,1.0,1.0,0.0,0,False
2021-09-27,1.0,1.0,0.0,0,False
2021-09-28,1.0,1.0,0.0,0,False
2021-09-29,1.0,1.0,0.0,0,False
2021-09-30,1.0,1.0,0.0,0,False
2021-10-01,1.0,1.0,0.0,0,False
2021-10-02,1.0,1.0,0.0,0,False
2021-10-03,1.0,1.0,0.0,0,False
2021-10-04,1.0,1.0,0.0,0,False
2021-10-05,1.0,0.9995269898820623,-0.04730101179376556,1,True
2021-10-06,0.9995269898820623,1.0056430676177626,0.6118972071401441,3,True
2021-10-07,1.0056430676177626,0.9936933126372639,-1.1882700100350752,2,True
2021-10-08,0.9936933126372639,0.9932446030331727,-0.04515574356641627,1,True
2021-10-09,0.9932446030331727,0.9945406602133113,0.13048721092272508,2,True
2021-10-10,0.9945406602133113,1.0003335684935144,0.5824707336712143,1,True
2021-10-11,1.0003335684935144,0.9969949408072037,-0.3337514396661301,0,True
2021-10-12,0.9969949408072037,0.9969949408072037,0.0,0,False
2021-10-13,0.9969949408072037,1.0149910814926386,1.805038315526919,4,True
2021-10-14,1.0149910814926386,1.0324707987134787,1.7221547597378484,0,True
2021-10-15,1.0324707987134787,1.0324356947783746,-0.0033999930213801655,4,True
2021-10-16,1.0324356947783746,1.050960920379689,1.7943224643439892,2,True
2021-10-17,1.050960920379689,1.0506804202275306,-0.026689874639396205,0,True
2021-10-18,1.0506804202275306,1.0494119746212092,-0.12072611061380023,1,True
2021-10-19,1.0494119746212092,1.052220071039223,0.2675876096256191,0,True
2021-10-20,1.052220071039223,1.052220071039223,0.0,0,False
2021-10-21,1.052220071039223,1.052220071039223,0.0,0,False
2021-10-22,1.052220071039223,1.052220071039223,0.0,0,False
2021-10-23,1.052220071039223,1.052220071039223,0.0,0,False
2021-10-24,1.052220071039223,1.052220071039223,0.0,0,False
2021-10-25,1.052220071039223,1.0660240943509707,1.3118950770549365,2,True
2021-10-26,1.0660240943509707,1.0667025435574273,0.06364295235463668,0,True
2021-10-27,1.0667025435574273,1.061560121003312,-0.48208589968908866,7,True
2021-10-28,1.061560121003312,1.0642476767602693,0.2531703766732729,2,True
2021-10-29,1.0642476767602693,1.0609165071864537,-0.3130069857381512,0,True
2021-10-30,1.0609165071864537,1.061415910155399,0.0470727871196841,2,True
2021-10-31,1.061415910155399,1.0544170929336896,-0.659384992701384,1,True
2021-11-01,1.0544170929336896,1.0659891804176038,1.0974867119915022,2,True
2021-11-02,1.0659891804176038,1.069471391254753,0.3266647449259308,1,True
2021-11-03,1.069471391254753,1.067800049572367,-0.15627736244774315,1,True
2021-11-04,1.067800049572367,1.0941682159785104,2.4693917570713264,1,True
2021-11-05,1.0941682159785104,1.071636210511652,-2.059281666001256,3,True
2021-11-06,1.071636210511652,1.0609144051281976,-1.0005079408743733,2,True
2021-11-07,1.0609144051281976,1.061446955105767,0.050197261437423535,0,True
2021-11-08,1.061446955105767,1.061446955105767,0.0,0,False
2021-11-09,1.061446955105767,1.061446955105767,0.0,0,False
2021-11-10,1.061446955105767,1.061446955105767,0.0,0,False
2021-11-11,1.061446955105767,1.0492077169178133,-1.1530711100616542,12,True
2021-11-12,1.0492077169178133,1.0438636263679593,-0.5093453339776288,1,True
2021-11-13,1.0438636263679593,1.0424344303558835,-0.13691405428586378,1,True
2021-11-14,1.0424344303558835,1.0428821473710277,0.04294917762754924,0,True
2021-11-15,1.0428821473710277,1.0428821473710277,0.0,0,False
2021-11-16,1.0428821473710277,1.0552681786675246,1.1876731544135266,7,True
2021-11-17,1.0552681786675246,1.0359568184229406,-1.8299955058787343,0,True
2021-11-18,1.0359568184229406,1.0268402568512558,-0.8800136655853219,4,True
2021-11-19,1.0268402568512558,1.0499653626664416,2.252064589491032,4,True
2021-11-20,1.0499653626664416,1.050440424127664,0.04524544124160368,0,True
2021-11-21,1.050440424127664,1.0464288209826245,-0.3818972549891053,1,True
2021-11-22,1.0464288209826245,1.0311896723634715,-1.4563005446316946,4,True
2021-11-23,1.0311896723634715,1.028181548376515,-0.2917139365895549,0,True
2021-11-24,1.028181548376515,1.0234682894506684,-0.4584072660406058,2,True
2021-11-25,1.0234682894506684,1.0223451668301062,-0.10973692415667813,4,True
2021-11-26,1.0223451668301062,0.9926179854063331,-2.907744115027766,9,True
2021-11-27,0.9926179854063331,0.9971037015611379,0.45190760400826147,0,True
2021-11-28,0.9971037015611379,0.9876004588640136,-0.9530846874046706,7,True
2021-11-29,0.9876004588640136,0.9828472024539041,-0.48129345905497667,1,True
2021-11-30,0.9828472024539041,0.9726774814619135,-1.034720449587645,3,True
2021-12-01,0.9726774814619135,0.9668369906759202,-0.6004550220711558,1,True
2021-12-02,0.9668369906759202,0.9613794252871575,-0.5644762707048834,5,True
2021-12-03,0.9613794252871575,0.9444406952717479,-1.761919339011242,2,True
2021-12-04,0.9444406952717479,0.8834625276341022,-6.456537498111537,19,True
2021-12-05,0.8834625276341022,0.8724479479801299,-1.2467511987711677,3,True
2021-12-06,0.8724479479801299,0.8559686219731906,-1.8888606529583685,11,True
2021-12-07,0.8559686219731906,0.8767782974256841,2.4311259686742748,0,True
2021-12-08,0.8767782974256841,0.8823661183396077,0.6373128680682294,2,True
2021-12-09,0.8823661183396077,0.8949638146305158,1.4277175912662976,2,True
2021-12-10,0.8949638146305158,0.8779579204486381,-1.900176733837955,3,True
2021-12-11,0.8779579204486381,0.8692082338579312,-0.9965952111048448,2,True
2021-12-12,0.8692082338579312,0.8692082338579312,0.0,0,False
2021-12-13,0.8692082338579312,0.8605336671944996,-0.9979848700845895,2,True
2021-12-14,0.8605336671944996,0.8600665425462077,-0.0542831345361372,1,True
2021-12-15,0.8600665425462077,0.8569848920565916,-0.35830372851070047,1,True
2021-12-16,0.8569848920565916,0.8578097156916834,0.09624716173379788,0,True
2021-12-17,0.8578097156916834,0.8546536097761784,-0.36792610969206274,5,True
2021-12-18,0.8546536097761784,0.8574047871373354,0.3219055450871311,1,True
2021-12-19,0.8574047871373354,0.8528551002276077,-0.5306346521481431,1,True
2021-12-20,0.8528551002276077,0.8528551002276077,0.0,0,False
2021-12-21,0.8528551002276077,0.8499019022849749,-0.34627194488778823,1,True
2021-12-22,0.8499019022849749,0.8504203403196345,0.06099974988476031,0,True
2021-12-23,0.8504203403196345,0.8504203403196345,0.0,0,False
2021-12-24,0.8504203403196345,0.8504203403196345,0.0,0,False
2021-12-25,0.8504203403196345,0.8524204930210846,0.23519577397435043,1,True
2021-12-26,0.8524204930210846,0.8520370750220257,-0.0449799133406481,0,True
2021-12-27,0.8520370750220257,0.8520370750220257,0.0,0,False
2021-12-28,0.8520370750220257,0.8539847224855098,0.2285871730914657,1,True
2021-12-29,0.8539847224855098,0.8537680719808624,-0.025369365392968746,0,True
2021-12-30,0.8537680719808624,0.8537680719808624,0.0,0,False
2021-12-31,0.8537680719808624,0.8537680719808624,0.0,0,False
2022-01-01,0.8537680719808624,0.8537680719808624,0.0,0,False
2022-01-02,0.8537680719808624,0.8537680719808624,0.0,0,False
2022-01-03,0.8537680719808624,0.8537680719808624,0.0,0,False
2022-01-04,0.8537680719808624,0.8537680719808624,0.0,0,False
2022-01-05,0.8537680719808624,0.855412457204337,0.19260326983878695,1,True
2022-01-06,0.855412457204337,0.8321808564331767,-2.7158361531331776,8,True
2022-01-07,0.8321808564331767,0.8363608960162349,0.502299416135843,5,True
2022-01-08,0.8363608960162349,0.833276042964816,-0.36884233422588286,0,True
2022-01-09,0.833276042964816,0.8340285106888846,0.09030233503308782,1,True
2022-01-10,0.8340285106888846,0.8356960308494911,0.19993563040539009,0,True
2022-01-11,0.8356960308494911,0.8356960308494911,0.0,0,False
2022-01-12,0.8356960308494911,0.8356960308494911,0.0,0,False
2022-01-13,0.8356960308494911,0.8356960308494911,0.0,0,False
2022-01-14,0.8356960308494911,0.8356960308494911,0.0,0,False
2022-01-15,0.8356960308494911,0.8362264948349325,0.06347570957137005,1,True
2022-01-16,0.8362264948349325,0.8350824061218916,-0.13681564983979433,0,True
2022-01-17,0.8350824061218916,0.8375406918752538,0.2943764274448757,1,True
2022-01-18,0.8375406918752538,0.8444038704120144,0.8194441897973803,0,True
2022-01-19,0.8444038704120144,0.840186094986508,-0.4994974056014678,1,True
2022-01-20,0.840186094986508,0.840186094986508,0.0,0,False
2022-01-21,0.840186094986508,0.8071087504294658,-3.9369069250751343,8,True
2022-01-22,0.8071087504294658,0.7754365698472019,-3.9241527942066146,17,True
2022-01-23,0.7754365698472019,0.7908439553979435,1.9869304788885156,0,True
2022-01-24,0.7908439553979435,0.7799848298041208,-1.373105973650457,5,True
2022-01-25,0.7799848298041208,0.7906046095361013,1.3615367025340053,0,True
2022-01-26,0.7906046095361013,0.791488324042176,0.11177704954099532,1,True
2022-01-27,0.791488324042176,0.7894961136327662,-0.25170433332931674,7,True
2022-01-28,0.7894961136327662,0.7759097773523506,-1.7208870374167962,0,True
2022-01-29,0.7759097773523506,0.7759097773523506,0.0,0,False
2022-01-30,0.7759097773523506,0.7832348883170518,0.944067361761669,1,True
2022-01-31,0.7832348883170518,0.7818766125580456,-0.1734186997114917,0,True
2022-02-01,0.7818766125580456,0.7818766125580456,0.0,0,False
2022-02-02,0.7818766125580456,0.7813948765021405,-0.06161279774427042,1,True
2022-02-03,0.7813948765021405,0.7809228873978047,-0.06040340403159483,4,True
2022-02-04,0.7809228873978047,0.7895665398944892,1.1068509626458667,0,True
2022-02-05,0.7895665398944892,0.7895665398944892,0.0,0,False
2022-02-06,0.7895665398944892,0.7895665398944892,0.0,0,False
2022-02-07,0.7895665398944892,0.7895665398944892,0.0,0,False
2022-02-08,0.7895665398944892,0.7853551454495064,-0.5333805616364651,3,True
2022-02-09,0.7853551454495064,0.793041162289667,0.9786676619736756,2,True
2022-02-10,0.793041162289667,0.7944202873574879,0.1739033398769685,5,True
2022-02-11,0.7944202873574879,0.7771980997774167,-2.1678937275580012,0,True
2022-02-12,0.7771980997774167,0.7580572340741625,-2.4628039760694276,5,True
2022-02-13,0.7580572340741625,0.7580572340741625,0.0,0,False
2022-02-14,0.7580572340741625,0.7580572340741625,0.0,0,False
2022-02-15,0.7580572340741625,0.7580572340741625,0.0,0,False
2022-02-16,0.7580572340741625,0.7580572340741625,0.0,0,False
2022-02-17,0.7580572340741625,0.7580572340741625,0.0,0,False
2022-02-18,0.7580572340741625,0.7580572340741625,0.0,0,False
2022-02-19,0.7580572340741625,0.7580572340741625,0.0,0,False
2022-02-20,0.7580572340741625,0.7580572340741625,0.0,0,False
2022-02-21,0.7580572340741625,0.7580572340741625,0.0,0,False
2022-02-22,0.7580572340741625,0.7505128435022997,-0.9952270399578578,2,True
2022-02-23,0.7505128435022997,0.7505128435022997,0.0,0,False
2022-02-24,0.7505128435022997,0.7347096762097652,-2.105649147693245,9,True
2022-02-25,0.7347096762097652,0.7536994108813285,2.58465830605743,0,True
2022-02-26,0.7536994108813285,0.7536994108813285,0.0,0,False
2022-02-27,0.7536994108813285,0.7536994108813285,0.0,0,False
2022-02-28,0.7536994108813285,0.7584789636117626,0.6341457431743525,2,True
2022-03-01,0.7584789636117626,0.764925999057066,0.8499952872263794,0,True
2022-03-02,0.764925999057066,0.764925999057066,0.0,0,False
2022-03-03,0.764925999057066,0.764925999057066,0.0,0,False
2022-03-04,0.764925999057066,0.7736606387727757,1.1418934284462834,3,True
2022-03-05,0.7736606387727757,0.7656037575366597,-1.0413973300873014,2,True
2022-03-06,0.7656037575366597,0.7610347572710363,-0.5967839395569552,4,True
2022-03-07,0.7610347572710363,0.752425204275754,-1.1312956357151127,0,True
2022-03-08,0.752425204275754,0.748676806935347,-0.4981754092109436,1,True
2022-03-09,0.748676806935347,0.7587643767294716,1.3473864424112802,2,True
2022-03-10,0.7587643767294716,0.755396466438164,-0.4438677400518398,3,True
2022-03-11,0.755396466438164,0.7494225466264154,-0.7908323744108547,1,True
2022-03-12,0.7494225466264154,0.7488845291823669,-0.07179093376231682,0,True
2022-03-13,0.7488845291823669,0.7488845291823669,0.0,0,False
2022-03-14,0.7488845291823669,0.7451499728267538,-0.4986825351687485,1,True
2022-03-15,0.7451499728267538,0.7462093425808993,0.1421686630580954,1,True
2022-03-16,0.7462093425808993,0.7497525739926423,0.4748307491686088,1,True
2022-03-17,0.7497525739926423,0.7511908780664546,0.1918371638463201,1,True
2022-03-18,0.7511908780664546,0.7502255264032872,-0.12850950289121643,0,True
2022-03-19,0.7502255264032872,0.7502255264032872,0.0,0,False
2022-03-20,0.7502255264032872,0.7464810153424541,-0.4991180557111785,1,True
2022-03-21,0.7464810153424541,0.7477186923785679,0.16580154225971366,3,True
2022-03-22,0.7477186923785679,0.7437294559906203,-0.5335210191492523,0,True
2022-03-23,0.7437294559906203,0.7432298871972438,-0.0671707687994072,2,True
2022-03-24,0.7432298871972438,0.7392449534047736,-0.5361643632897484,0,True
2022-03-25,0.7392449534047736,0.7392449534047736,0.0,0,False
2022-03-26,0.7392449534047736,0.7406376412306253,0.18839328147419732,1,True
2022-03-27,0.7406376412306253,0.7384276760468786,-0.2983868305794668,1,True
2022-03-28,0.7384276760468786,0.7382139298776967,-0.02894612107798844,1,True
2022-03-29,0.7382139298776967,0.7400459439271774,0.2481684475642565,1,True
2022-03-30,0.7400459439271774,0.7429136560964501,0.38750461276158,5,True
2022-03-31,0.7429136560964501,0.7442917430002083,0.18549758675849848,6,True
2022-04-01,0.7442917430002083,0.755798890785416,1.5460533982041502,7,True
2022-04-02,0.755798890785416,0.763990161532872,1.083789728633211,0,True
2022-04-03,0.763990161532872,0.7587818268587287,-0.6817279771892948,2,True
2022-04-04,0.7587818268587287,0.7542284888260007,-0.6000852776849364,1,True
2022-04-05,0.7542284888260007,0.7461391692460244,-1.0725290412415656,6,True
2022-04-06,0.7461391692460244,0.7189274006370637,-3.647009797978873,13,True
2022-04-07,0.7189274006370637,0.7199227295145548,0.13844636838282742,2,True
2022-04-08,0.7199227295145548,0.7241743762271518,0.5905698678889904,0,True
2022-04-09,0.7241743762271518,0.7241743762271518,0.0,0,False
2022-04-10,0.7241743762271518,0.7241743762271518,0.0,0,False
2022-04-11,0.7241743762271518,0.7173119021960984,-0.9476272920350914,6,True
2022-04-12,0.7173119021960984,0.7061768710482201,-1.552327671378051,0,True
2022-04-13,0.7061768710482201,0.7071954085620098,0.14423263569618427,1,True
2022-04-14,0.7071954085620098,0.7072163626736149,0.002962987506904824,0,True
2022-04-15,0.7072163626736149,0.7084323134161876,0.17193475812351533,1,True
2022-04-16,0.7084323134161876,0.7081439802531193,-0.04070017101251988,0,True
2022-04-17,0.7081439802531193,0.7123894496185652,0.599520646059637,1,True
2022-04-18,0.7123894496185652,0.726730689921504,2.013118008782633,6,True
2022-04-19,0.726730689921504,0.7375039531860146,1.4824285548851845,1,True
2022-04-20,0.7375039531860146,0.7369710058269725,-0.07226366133221696,0,True
2022-04-21,0.7369710058269725,0.7359744960211708,-0.13521696212234202,3,True
2022-04-22,0.7359744960211708,0.731660342459838,-0.5861824811397631,1,True
2022-04-23,0.731660342459838,0.7318877789646105,0.03108498459925002,2,True
2022-04-24,0.7318877789646105,0.7323551640739926,0.0638602150241141,0,True
2022-04-25,0.7323551640739926,0.7279398212283272,-0.6028963899296302,3,True
2022-04-26,0.7279398212283272,0.7316480686119056,0.5094167505936165,2,True
2022-04-27,0.7316480686119056,0.7286729678172721,-0.40663003461184344,0,True
2022-04-28,0.7286729678172721,0.7304423268306132,0.24281935676042643,1,True
2022-04-29,0.7304423268306132,0.7196507559477787,-1.4774021830935014,2,True
2022-04-30,0.7196507559477787,0.7115217284409798,-1.1295795133422715,2,True
2022-05-01,0.7115217284409798,0.7169651547649736,0.7650400692500003,7,True
2022-05-02,0.7169651547649736,0.7203997229955201,0.47904255983994837,1,True
2022-05-03,0.7203997229955201,0.7259249038819593,0.7669604401657315,3,True
2022-05-04,0.7259249038819593,0.7206207977295351,-0.7306687129839284,1,True
2022-05-05,0.7206207977295351,0.7206207977295351,0.0,0,False
2022-05-06,0.7206207977295351,0.7036322292770933,-2.3574907227168262,8,True
2022-05-07,0.7036322292770933,0.7010517501733007,-0.366736911190646,2,True
2022-05-08,0.7010517501733007,0.6930359911014657,-1.1433904943327522,3,True
2022-05-09,0.6930359911014657,0.6827791308130873,-1.4799895561090404,5,True
2022-05-10,0.6827791308130873,0.6786525778842878,-0.6043759603322041,11,True
2022-05-11,0.6786525778842878,0.6509043279149164,-4.088726820411869,19,True
2022-05-12,0.6509043279149164,0.6190141257531852,-4.899368585224673,1,True
2022-05-13,0.6190141257531852,0.6591554902066541,6.4847251110185855,6,True
2022-05-14,0.6591554902066541,0.6386201762361882,-3.1153975466437833,7,True
2022-05-15,0.6386201762361882,0.6540806478556094,2.4209181286034553,2,True
2022-05-16,0.6540806478556094,0.653072099993965,-0.15419319696292622,8,True
2022-05-17,0.653072099993965,0.6596860890213139,1.0127502043664194,4,True
2022-05-18,0.6596860890213139,0.6405545269112889,-2.900100885620893,2,True
2022-05-19,0.6405545269112889,0.6454728641716021,0.7678249163313389,6,True
2022-05-20,0.6454728641716021,0.6457671266711464,0.0455886708610187,1,True
2022-05-21,0.6457671266711464,0.6457671266711464,0.0,0,False
2022-05-22,0.6457671266711464,0.6457671266711464,0.0,0,False
2022-05-23,0.6457671266711464,0.6484522931216034,0.4158103346478148,4,True
2022-05-24,0.6484522931216034,0.62220765476049,-4.047273583500422,8,True
2022-05-25,0.62220765476049,0.6209018107704248,-0.20987269765554428,1,True
2022-05-26,0.6209018107704248,0.6146163077441731,-1.0123183597182006,13,True
2022-05-27,0.6146163077441731,0.598877969518117,-2.5606769667112395,4,True
2022-05-28,0.598877969518117,0.5997507236207189,0.14573154248838094,0,True
2022-05-29,0.5997507236207189,0.6033384829880193,0.5982084266011212,3,True
2022-05-30,0.6033384829880193,0.6067578531908877,0.5667416051325036,0,True
2022-05-31,0.6067578531908877,0.5997760965577328,-1.1506660517764167,5,True
2022-06-01,0.5997760965577328,0.5947756577732344,-0.8337175844781441,2,True
2022-06-02,0.5947756577732344,0.5896474311292749,-0.8622119242671977,6,True
2022-06-03,0.5896474311292749,0.5913125483991956,0.28239201631587996,0,True
2022-06-04,0.5913125483991956,0.5913125483991956,0.0,0,False
2022-06-05,0.5913125483991956,0.5913125483991956,0.0,0,False
2022-06-06,0.5913125483991956,0.5929767935469545,0.2814493202054402,1,True
2022-06-07,0.5929767935469545,0.5881718759578642,-0.8103044910660273,4,True
2022-06-08,0.5881718759578642,0.6011536105540327,2.2071328342633034,4,True
2022-06-09,0.6011536105540327,0.599744786237388,-0.23435346505634724,3,True
2022-06-10,0.599744786237388,0.6022589387855013,0.41920373562331914,5,True
2022-06-11,0.6022589387855013,0.6068740051392255,0.7662927117413787,4,True
2022-06-12,0.6068740051392255,0.601888907351096,-0.8214386752297687,13,True
2022-06-13,0.601888907351096,0.5648641563867629,-6.1514260376185455,7,True
2022-06-14,0.5648641563867629,0.5725251053270394,1.3562462502986206,6,True
2022-06-15,0.5725251053270394,0.566071593633792,-1.1272015206321817,7,True
2022-06-16,0.566071593633792,0.5733071923942413,1.278212657519462,5,True
2022-06-17,0.5733071923942413,0.5826596269181917,1.6313129589204722,1,True
2022-06-18,0.5826596269181917,0.5775405304015828,-0.8785740902771844,6,True
2022-06-19,0.5775405304015828,0.5854006646887876,1.360966698170829,3,True
2022-06-20,0.5854006646887876,0.5918537288296379,1.1023329029325568,1,True
2022-06-21,0.5918537288296379,0.5905352328227248,-0.22277396300609542,0,True
2022-06-22,0.5905352328227248,0.5892349195910359,-0.2201923203588474,5,True
2022-06-23,0.5892349195910359,0.5942706460170778,0.8546211805534165,1,True
2022-06-24,0.5942706460170778,0.5889841840061932,-0.8895714513775022,2,True
2022-06-25,0.5889841840061932,0.5853547923430685,-0.6162120752442046,4,True
2022-06-26,0.5853547923430685,0.5891574763918437,0.649637467484232,0,True
2022-06-27,0.5891574763918437,0.5865321995556546,-0.44559849299833365,5,True
2022-06-28,0.5865321995556546,0.5825969763529563,-0.6709304630981183,4,True
2022-06-29,0.5825969763529563,0.5919135903807966,1.5991524855075934,4,True
2022-06-30,0.5919135903807966,0.5867030764284372,-0.8802828718643352,2,True
2022-07-01,0.5867030764284372,0.5869284728189935,0.0384174550316585,1,True
2022-07-02,0.5869284728189935,0.5865233670102522,-0.0690213249998961,1,True
2022-07-03,0.5865233670102522,0.5875930959524835,0.18238471003877432,1,True
2022-07-04,0.5875930959524835,0.5905009357150123,0.494873030768872,0,True
2022-07-05,0.5905009357150123,0.5908256912984153,0.054996624689485074,1,True
2022-07-06,0.5908256912984153,0.5917764888769769,0.16092691847438,0,True
2022-07-07,0.5917764888769769,0.5917764888769769,0.0,0,False
2022-07-08,0.5917764888769769,0.5917764888769769,0.0,0,False
2022-07-09,0.5917764888769769,0.5917764888769769,0.0,0,False
2022-07-10,0.5917764888769769,0.5917764888769769,0.0,0,False
2022-07-11,0.5917764888769769,0.5888253221476705,-0.4986961774887111,1,True
2022-07-12,0.5888253221476705,0.5909587730115664,0.36232321940816714,2,True
2022-07-13,0.5909587730115664,0.596764289669607,0.9823894530671451,5,True
2022-07-14,0.596764289669607,0.6072612832180735,1.758984867254365,0,True
2022-07-15,0.6072612832180735,0.6072612832180735,0.0,0,False
2022-07-16,0.6072612832180735,0.6072612832180735,0.0,0,False
2022-07-17,0.6072612832180735,0.6072612832180735,0.0,0,False
2022-07-18,0.6072612832180735,0.60827245641694,0.1665136946501944,1,True
2022-07-19,0.60827245641694,0.6106079276851826,0.38395150784891197,0,True
2022-07-20,0.6106079276851826,0.6116082694917726,0.16382718946712505,2,True
2022-07-21,0.6116082694917726,0.6017682938449708,-1.6088689668925737,6,True
2022-07-22,0.6017682938449708,0.6030594843512085,0.2145660579735198,0,True
2022-07-23,0.6030594843512085,0.6055587347403303,0.4144285023243821,2,True
2022-07-24,0.6055587347403303,0.6098247534400301,0.7044764537215586,3,True
2022-07-25,0.6098247534400301,0.6103133117024319,0.0801145344864862,1,True
2022-07-26,0.6103133117024319,0.6098933931111667,-0.06880377393273518,1,True
2022-07-27,0.6098933931111667,0.6106773449068129,0.12853915200607968,1,True
2022-07-28,0.6106773449068129,0.6109140237281309,0.03875677119709042,0,True
2022-07-29,0.6109140237281309,0.6134135085433489,0.4091385560221372,2,True
2022-07-30,0.6134135085433489,0.617135036648491,0.6066915797109829,1,True
2022-07-31,0.617135036648491,0.6167435545444155,-0.06343540405703285,1,True
2022-08-01,0.6167435545444155,0.6153992977884191,-0.21796040608635936,1,True
2022-08-02,0.6153992977884191,0.6091936110728912,-1.0084000319515285,5,True
2022-08-03,0.6091936110728912,0.6104751407483675,0.21036492375869908,1,True
2022-08-04,0.6104751407483675,0.6083809198517338,-0.34304769463117113,0,True
2022-08-05,0.6083809198517338,0.6132605324738037,0.8020653611653605,2,True
2022-08-06,0.6132605324738037,0.6126382863805652,-0.10146521099744232,0,True
2022-08-07,0.6126382863805652,0.6135439409066307,0.14782858763464635,2,True
2022-08-08,0.6135439409066307,0.6140972714601812,0.0901859698480445,0,True
2022-08-09,0.6140972714601812,0.6119305979620092,-0.35282252484531984,6,True
2022-08-10,0.6119305979620092,0.6246145758105115,2.0727804575789044,0,True
2022-08-11,0.6246145758105115,0.6262922481777996,0.26859321448129414,1,True
2022-08-12,0.6262922481777996,0.6232445055208308,-0.4866326648359842,3,True
2022-08-13,0.6232445055208308,0.6221788670544804,-0.17098240849469093,0,True
2022-08-14,0.6221788670544804,0.6221788670544804,0.0,0,False
2022-08-15,0.6221788670544804,0.6221788670544804,0.0,0,False
2022-08-16,0.6221788670544804,0.618555423820182,-0.5823796702470019,2,True
2022-08-17,0.618555423820182,0.6159372942557098,-0.4232651535577503,1,True
2022-08-18,0.6159372942557098,0.6130155655822377,-0.47435488981109053,1,True
2022-08-19,0.6130155655822377,0.5974138259745608,-2.5450804977290353,11,True
2022-08-20,0.5974138259745608,0.5974944097976482,0.013488777725556567,1,True
2022-08-21,0.5974944097976482,0.6015860446897325,0.6847988575273911,0,True
2022-08-22,0.6015860446897325,0.6015860446897325,0.0,0,False
2022-08-23,0.6015860446897325,0.6015860446897325,0.0,0,False
2022-08-24,0.6015860446897325,0.6015860446897325,0.0,0,False
2022-08-25,0.6015860446897325,0.6001695928788361,-0.23545290376989492,1,True
2022-08-26,0.6001695928788361,0.5991949468596804,-0.1623951014380065,1,True
2022-08-27,0.5991949468596804,0.5891566667935849,-1.67529451286349,5,True
2022-08-28,0.5891566667935849,0.5874629937738466,-0.28747413297653956,0,True
2022-08-29,0.5874629937738466,0.591127562041575,0.6237955933508843,2,True
2022-08-30,0.591127562041575,0.5936550727577746,0.4275744997357833,1,True
2022-08-31,0.5936550727577746,0.5919600218665377,-0.2855279048425641,2,True
2022-09-01,0.5919600218665377,0.5866076174496142,-0.9041834278008531,1,True
2022-09-02,0.5866076174496142,0.586685492139142,0.01327543100555495,0,True
2022-09-03,0.586685492139142,0.586685492139142,0.0,0,False
2022-09-04,0.586685492139142,0.586685492139142,0.0,0,False
2022-09-05,0.586685492139142,0.586685492139142,0.0,0,False
2022-09-06,0.586685492139142,0.5850863455473435,-0.2725730588577835,1,True
2022-09-07,0.5850863455473435,0.5767164271823525,-1.4305441288603338,5,True
2022-09-08,0.5767164271823525,0.5767164271823525,0.0,0,False
2022-09-09,0.5767164271823525,0.5767164271823525,0.0,0,False
2022-09-10,0.5767164271823525,0.5778591043077836,0.1981350056238007,1,True
2022-09-11,0.5778591043077836,0.5787760965248923,0.15868785492392234,0,True
2022-09-12,0.5787760965248923,0.5787760965248923,0.0,0,False
2022-09-13,0.5787760965248923,0.5721521285952986,-1.1444784899316884,4,True
2022-09-14,0.5721521285952986,0.5760671225637469,0.68425752047101,2,True
2022-09-15,0.5760671225637469,0.5767446022428807,0.11760429515899062,3,True
2022-09-16,0.5767446022428807,0.5692812450871669,-1.29404889559257,2,True
2022-09-17,0.5692812450871669,0.5687091476852915,-0.10049468638086978,1,True
2022-09-18,0.5687091476852915,0.5697622398350944,0.18517235991177827,0,True
2022-09-19,0.5697622398350944,0.5672595588024367,-0.43925006918360543,8,True
2022-09-20,0.5672595588024367,0.5672691757255852,0.0016953302944378024,0,True
2022-09-21,0.5672691757255852,0.5672691757255852,0.0,0,False
2022-09-22,0.5672691757255852,0.5669540034414243,-0.055559564603124834,2,True
2022-09-23,0.5669540034414243,0.5650014599125661,-0.3443918760615894,2,True
2022-09-24,0.5650014599125661,0.5667238223981909,0.30484213012320627,0,True
2022-09-25,0.5667238223981909,0.5667238223981909,0.0,0,False
2022-09-26,0.5667238223981909,0.5667238223981909,0.0,0,False
2022-09-27,0.5667238223981909,0.5667238223981909,0.0,0,False
2022-09-28,0.5667238223981909,0.5667238223981909,0.0,0,False
2022-09-29,0.5667238223981909,0.5667238223981909,0.0,0,False
2022-09-30,0.5667238223981909,0.56537978425763,-0.2371592806657219,1,True
2022-10-01,0.56537978425763,0.5651622273725122,-0.0384797778724022,0,True
2022-10-02,0.5651622273725122,0.5651622273725122,0.0,0,False
2022-10-03,0.5651622273725122,0.5651622273725122,0.0,0,False
2022-10-04,0.5651622273725122,0.5651622273725122,0.0,0,False
2022-10-05,0.5651622273725122,0.5651622273725122,0.0,0,False
2022-10-06,0.5651622273725122,0.5651622273725122,0.0,0,False
2022-10-07,0.5651622273725122,0.5651622273725122,0.0,0,False
2022-10-08,0.5651622273725122,0.5636396641474132,-0.2694028637011958,1,True
2022-10-09,0.5636396641474132,0.5627141663450931,-0.164200261477343,0,True
2022-10-10,0.5627141663450931,0.5627141663450931,0.0,0,False
2022-10-11,0.5627141663450931,0.5748175247769666,2.150889235735165,6,True
2022-10-12,0.5748175247769666,0.5734828363583832,-0.23219341113535075,2,True
2022-10-13,0.5734828363583832,0.573312769367314,-0.029655114379545378,1,True
2022-10-14,0.573312769367314,0.5800788882389301,1.1801793424351725,0,True
2022-10-15,0.5800788882389301,0.5800788882389301,0.0,0,False
2022-10-16,0.5800788882389301,0.5800788882389301,0.0,0,False
2022-10-17,0.5800788882389301,0.5800788882389301,0.0,0,False
2022-10-18,0.5800788882389301,0.5800788882389301,0.0,0,False
2022-10-19,0.5800788882389301,0.5800788882389301,0.0,0,False
2022-10-20,0.5800788882389301,0.5838580232491752,0.6514863903629209,2,True
2022-10-21,0.5838580232491752,0.5796132865133005,-0.7270152274782116,0,True
2022-10-22,0.5796132865133005,0.5796132865133005,0.0,0,False
2022-10-23,0.5796132865133005,0.5796132865133005,0.0,0,False
2022-10-24,0.5796132865133005,0.5796132865133005,0.0,0,False
2022-10-25,0.5796132865133005,0.5777685428590591,-0.31827145739506957,1,True
2022-10-26,0.5777685428590591,0.5767161684277095,-0.1821446398140747,0,True
2022-10-27,0.5767161684277095,0.5767161684277095,0.0,0,False
2022-10-28,0.5767161684277095,0.5738399705943781,-0.4987198193476483,1,True
2022-10-29,0.5738399705943781,0.5738399705943781,0.0,0,False
2022-10-30,0.5738399705943781,0.5710425619184385,-0.4874893383676415,2,True
2022-10-31,0.5710425619184385,0.5720513432110275,0.17665606031185277,1,True
2022-11-01,0.5720513432110275,0.5794165559336417,1.2875090339395046,0,True
2022-11-02,0.5794165559336417,0.5836037397135874,0.722655184265264,3,True
2022-11-03,0.5836037397135874,0.5921990217524123,1.4727942016004247,3,True
2022-11-04,0.5921990217524123,0.5981022665920773,0.9968346151934426,3,True
2022-11-05,0.5981022665920773,0.5951910212354914,-0.4867470864429069,2,True
2022-11-06,0.5951910212354914,0.5936351253443475,-0.26141118323899093,2,True
2022-11-07,0.5936351253443475,0.5880385692963866,-0.9427602594631601,7,True
2022-11-08,0.5880385692963866,0.5670604577337353,-3.567472043160813,10,True
2022-11-09,0.5670604577337353,0.5331127982317225,-5.986603198834395,14,True
2022-11-10,0.5331127982317225,0.5449206569543917,2.214889374600393,8,True
2022-11-11,0.5449206569543917,0.5431391686750237,-0.32692617845044847,11,True
2022-11-12,0.5431391686750237,0.5329555088329319,-1.874963256090445,2,True
2022-11-13,0.5329555088329319,0.5298613764472658,-0.5805611039543579,1,True
2022-11-14,0.5298613764472658,0.5389627230037876,1.7176844663686408,7,True
2022-11-15,0.5389627230037876,0.5409266215940078,0.3643848649262704,1,True
2022-11-16,0.5409266215940078,0.5378871102881438,-0.5619082486469473,2,True
2022-11-17,0.5378871102881438,0.5390063823250094,0.20808679283390585,1,True
2022-11-18,0.5390063823250094,0.5406179512011601,0.29898883000218923,0,True
2022-11-19,0.5406179512011601,0.5405616131018744,-0.010421055971310267,3,True
2022-11-20,0.5405616131018744,0.5332838616209635,-1.3463315382587715,3,True
2022-11-21,0.5332838616209635,0.5250278609029732,-1.5481437396015596,8,True
2022-11-22,0.5250278609029732,0.5135648300109555,-2.183318590427341,2,True
2022-11-23,0.5135648300109555,0.5201161057868052,1.2756472782043726,1,True
2022-11-24,0.5201161057868052,0.5160585416461406,-0.7801266093320658,2,True
2022-11-25,0.5160585416461406,0.51367725906699,-0.46143652066191754,2,True
2022-11-26,0.51367725906699,0.5146751997239114,0.1942738634632235,0,True
2022-11-27,0.5146751997239114,0.5146751997239114,0.0,0,False
2022-11-28,0.5146751997239114,0.5078053510653434,-1.3347930232995853,4,True
2022-11-29,0.5078053510653434,0.5078053510653434,0.0,0,False
2022-11-30,0.5078053510653434,0.5078053510653434,0.0,0,False
2022-12-01,0.5078053510653434,0.5080582443909788,0.04980123291431493,2,True
2022-12-02,0.5080582443909788,0.5083645556759778,0.06029058447152291,1,True
2022-12-03,0.5083645556759778,0.5082391138083912,-0.024675573107146853,0,True
2022-12-04,0.5082391138083912,0.5082391138083912,0.0,0,False
2022-12-05,0.5082391138083912,0.5082391138083912,0.0,0,False
2022-12-06,0.5082391138083912,0.5091138061113194,0.17210251615109584,2,True
2022-12-07,0.5091138061113194,0.5065922432913053,-0.49528470643414035,1,True
2022-12-08,0.5065922432913053,0.5051928625895016,-0.27623413511268513,2,True
2022-12-09,0.5051928625895016,0.5069500908416315,0.3478331509124466,0,True
2022-12-10,0.5069500908416315,0.5069500908416315,0.0,0,False
2022-12-11,0.5069500908416315,0.5069500908416315,0.0,0,False
2022-12-12,0.5069500908416315,0.5066017479295342,-0.06871345293951725,1,True
2022-12-13,0.5066017479295342,0.5072429845207647,0.12657607160875273,1,True
2022-12-14,0.5072429845207647,0.5071069509407703,-0.026818227978631093,0,True
2022-12-15,0.5071069509407703,0.5071069509407703,0.0,0,False
2022-12-16,0.5071069509407703,0.5082321670742502,0.22188931376161403,5,True
2022-12-17,0.5082321670742502,0.5033360532105682,-0.9633616643880738,5,True
2022-12-18,0.5033360532105682,0.5033819590377797,0.009120313738453234,0,True
2022-12-19,0.5033819590377797,0.5008720875219359,-0.49860180143155297,1,True
2022-12-20,0.5008720875219359,0.5008720875219359,0.0,0,False
2022-12-21,0.5008720875219359,0.5008720875219359,0.0,0,False
2022-12-22,0.5008720875219359,0.5008720875219359,0.0,0,False
2022-12-23,0.5008720875219359,0.5008720875219359,0.0,0,False
2022-12-24,0.5008720875219359,0.5008720875219359,0.0,0,False
2022-12-25,0.5008720875219359,0.5008720875219359,0.0,0,False
2022-12-26,0.5008720875219359,0.5008720875219359,0.0,0,False
2022-12-27,0.5008720875219359,0.5008720875219359,0.0,0,False
2022-12-28,0.5008720875219359,0.5029697952443732,0.4188110646803578,4,True
2022-12-29,0.5029697952443732,0.49798232594464487,-0.9916041374423257,0,True
2022-12-30,0.49798232594464487,0.503959623250124,1.2003031019505617,1,True
2022-12-31,0.503959623250124,0.5055952513148408,0.3245553788949085,0,True
2023-01-01,0.5055952513148408,0.5055952513148408,0.0,0,False
2023-01-02,0.5055952513148408,0.5057801612282273,0.03657271560713049,1,True
2023-01-03,0.5057801612282273,0.5058253428172246,0.00893304887394919,0,True
2023-01-04,0.5058253428172246,0.5058253428172246,0.0,0,False
2023-01-05,0.5058253428172246,0.5058253428172246,0.0,0,False
2023-01-06,0.5058253428172246,0.5052729009801021,-0.10921592699282279,1,True
2023-01-07,0.5052729009801021,0.5064285196364864,0.2287117821166751,0,True
2023-01-08,0.5064285196364864,0.5064285196364864,0.0,0,False
2023-01-09,0.5064285196364864,0.506528342041351,0.019711055162585644,1,True
2023-01-10,0.506528342041351,0.5062058668936917,-0.06366379151848678,2,True
2023-01-11,0.5062058668936917,0.5013990723049366,-0.9495730695994853,3,True
2023-01-12,0.5013990723049366,0.4989838874718046,-0.4816891307814708,0,True
2023-01-13,0.4989838874718046,0.4989731304828209,-0.002155778824486365,1,True
2023-01-14,0.4989731304828209,0.5018783178212813,0.5822332227888305,4,True
2023-01-15,0.5018783178212813,0.5007649258539529,-0.22184500262171225,2,True
2023-01-16,0.5007649258539529,0.5004160935313228,-0.0696598952163674,1,True
2023-01-17,0.5004160935313228,0.5000958258246592,-0.0640002811267637,0,True
2023-01-18,0.5000958258246592,0.5000958258246592,0.0,0,False
2023-01-19,0.5000958258246592,0.49282556141649714,-1.4537742633970896,7,True
2023-01-20,0.49282556141649714,0.49369432187754947,0.17628153429285476,0,True
2023-01-21,0.49369432187754947,0.4925146398609634,-0.23894988544727047,3,True
2023-01-22,0.4925146398609634,0.4976892163572147,1.0506441996753768,1,True
2023-01-23,0.4976892163572147,0.49679085288041713,-0.1805069202369003,0,True
2023-01-24,0.49679085288041713,0.5132808761039178,3.3193089461874603,4,True
2023-01-25,0.5132808761039178,0.5064638661011045,-1.3281246818619308,8,True
2023-01-26,0.5064638661011045,0.5185051710473044,2.3775249829562695,0,True
2023-01-27,0.5185051710473044,0.517336291108668,-0.22543264829461007,2,True
2023-01-28,0.517336291108668,0.5206837248096332,0.6470517840129864,0,True
2023-01-29,0.5206837248096332,0.5197762191504931,-0.1742911514032608,1,True
2023-01-30,0.5197762191504931,0.5194249953158775,-0.06757212463271989,5,True
2023-01-31,0.5194249953158775,0.5263864224482638,1.3402179708646766,4,True
2023-02-01,0.5263864224482638,0.5244074216659634,-0.375959693849226,2,True
2023-02-02,0.5244074216659634,0.5294577620281347,0.9630566146693775,0,True
2023-02-03,0.5294577620281347,0.5345235978690509,0.9567969730977399,2,True
2023-02-04,0.5345235978690509,0.533675932436913,-0.15858335076640584,0,True
2023-02-05,0.533675932436913,0.535783733026113,0.3949588994158315,5,True
2023-02-06,0.535783733026113,0.526480864685352,-1.736310337049296,2,True
2023-02-07,0.526480864685352,0.5248057120565734,-0.31817920481872486,0,True
2023-02-08,0.5248057120565734,0.5203824419669941,-0.8428395476576811,3,True
2023-02-09,0.5203824419669941,0.517075418321999,-0.6354986983217348,9,True
2023-02-10,0.517075418321999,0.5049567764336355,-2.343689423042128,8,True
2023-02-11,0.5049567764336355,0.5126759183899903,1.528673802710978,2,True
2023-02-12,0.5126759183899903,0.5196486023451222,1.360056851710345,1,True
2023-02-13,0.5196486023451222,0.5199549685258422,0.05895641387996253,2,True
2023-02-14,0.5199549685258422,0.5194524715712958,-0.09664239885447401,1,True
2023-02-15,0.5194524715712958,0.5202177872522276,0.14733122331995752,0,True
2023-02-16,0.5202177872522276,0.5202177872522276,0.0,0,False
2023-02-17,0.5202177872522276,0.5246272117396001,0.8476112496389243,1,True
2023-02-18,0.5246272117396001,0.5243850737957905,-0.046154286013255774,1,True
2023-02-19,0.5243850737957905,0.5253595837377433,0.1858386118618549,1,True
2023-02-20,0.5253595837377433,0.5293207238506454,0.7539864571842525,3,True
2023-02-21,0.5293207238506454,0.5368395662224215,1.4204700539738546,5,True
2023-02-22,0.5368395662224215,0.5353486155581406,-0.27772741766636244,1,True
2023-02-23,0.5353486155581406,0.54079888201443,1.018077995888178,1,True
2023-02-24,0.54079888201443,0.54079888201443,0.0,0,False
2023-02-25,0.54079888201443,0.5387137186680288,-0.3855709424979259,2,True
2023-02-26,0.5387137186680288,0.538402081807656,-0.05784832455042466,0,True
2023-02-27,0.538402081807656,0.5357129534004196,-0.49946471198770714,1,True
2023-02-28,0.5357129534004196,0.5346295110888986,-0.20224306779290657,1,True
2023-03-01,0.5346295110888986,0.5340928840439167,-0.10037362956055729,1,True
2023-03-02,0.5340928840439167,0.5311404233759254,-0.552799102215451,1,True
2023-03-03,0.5311404233759254,0.5281932056924129,-0.5548848390751315,9,True
2023-03-04,0.5281932056924129,0.5299867715656971,0.3395662522642562,0,True
2023-03-05,0.5299867715656971,0.5378456151363608,1.4828376843155855,4,True
2023-03-06,0.5378456151363608,0.5372983211349249,-0.10175670973855411,0,True
2023-03-07,0.5372983211349249,0.5372983211349249,0.0,0,False
2023-03-08,0.5372983211349249,0.5372983211349249,0.0,0,False
2023-03-09,0.5372983211349249,0.5372983211349249,0.0,0,False
2023-03-10,0.5372983211349249,0.5245060733392728,-2.380846411102,10,True
2023-03-11,0.5245060733392728,0.5187272335316936,-1.1017679491846843,2,True
2023-03-12,0.5187272335316936,0.5187272335316936,0.0,0,False
2023-03-13,0.5187272335316936,0.5187272335316936,0.0,0,False
2023-03-14,0.5187272335316936,0.5224328568507995,0.7143683769746723,1,True
2023-03-15,0.5224328568507995,0.5154892571566393,-1.329089394571381,4,True
2023-03-16,0.5154892571566393,0.5145686541410682,-0.1785882058239152,5,True
2023-03-17,0.5145686541410682,0.5126975186653709,-0.36363184205626675,2,True
2023-03-18,0.5126975186653709,0.5235576119265463,2.1182262183452316,2,True
2023-03-19,0.5235576119265463,0.5211000653959008,-0.46939371611891545,2,True
2023-03-20,0.5211000653959008,0.5239784660630571,0.5523700452751745,4,True
2023-03-21,0.5239784660630571,0.5112163037565136,-2.4356272505686616,1,True
2023-03-22,0.5112163037565136,0.5112163037565136,0.0,0,False
2023-03-23,0.5112163037565136,0.5169431942974146,1.1202480239418833,6,True
2023-03-24,0.5169431942974146,0.5098762135582269,-1.3670710470988223,1,True
2023-03-25,0.5098762135582269,0.5073292090904216,-0.4995338868684973,1,True
2023-03-26,0.5073292090904216,0.5073292090904216,0.0,0,False
2023-03-27,0.5073292090904216,0.5048000081589497,-0.4985324885997455,1,True
2023-03-28,0.5048000081589497,0.5152291301858406,2.0659908594151677,4,True
2023-03-29,0.5152291301858406,0.515465028545253,0.045785136280485084,0,True
2023-03-30,0.515465028545253,0.5142047431202587,-0.24449484547014455,1,True
2023-03-31,0.5142047431202587,0.512887990587439,-0.25607553225384105,0,True
2023-04-01,0.512887990587439,0.5125129915516591,-0.07311519135988487,1,True
2023-04-02,0.5125129915516591,0.5113943949634413,-0.21825721623781602,0,True
2023-04-03,0.5113943949634413,0.5113943949634413,0.0,0,False
2023-04-04,0.5113943949634413,0.5116598012046135,0.05189854323515153,1,True
2023-04-05,0.5116598012046135,0.5109131420730116,-0.14592882416090136,1,True
2023-04-06,0.5109131420730116,0.5044693296349547,-1.2612344266407782,2,True
2023-04-07,0.5044693296349547,0.5025654617144087,-0.37740013291267527,1,True
2023-04-08,0.5025654617144087,0.5036434760038835,0.21450226320711696,1,True
2023-04-09,0.5036434760038835,0.5037595649252672,0.023049821334897302,0,True
2023-04-10,0.5037595649252672,0.5037595649252672,0.0,0,False
2023-04-11,0.5037595649252672,0.5037595649252672,0.0,0,False
2023-04-12,0.5037595649252672,0.5063588271735608,0.5159727833017325,1,True
2023-04-13,0.5063588271735608,0.5065998928868206,0.0476076845752571,0,True
2023-04-14,0.5065998928868206,0.5103728632054377,0.7447633470897719,1,True
2023-04-15,0.5103728632054377,0.5089780507841029,-0.2732928260673284,1,True
2023-04-16,0.5089780507841029,0.5107494377619006,0.3480281664541174,0,True
2023-04-17,0.5107494377619006,0.5081985186934588,-0.49944628027784876,1,True
2023-04-18,0.5081985186934588,0.5081985186934588,0.0,0,False
2023-04-19,0.5081985186934588,0.5001629967440359,-1.5811777590540088,9,True
2023-04-20,0.5001629967440359,0.49305552084326076,-1.4210319329985177,0,True
2023-04-21,0.49305552084326076,0.49305552084326076,0.0,0,False
2023-04-22,0.49305552084326076,0.49258053634480375,-0.09633489097630177,1,True
2023-04-23,0.49258053634480375,0.4926276512402458,0.00956491212416033,0,True
2023-04-24,0.4926276512402458,0.4926276512402458,0.0,0,False
2023-04-25,0.4926276512402458,0.4926276512402458,0.0,0,False
2023-04-26,0.4926276512402458,0.4926276512402458,0.0,0,False
2023-04-27,0.4926276512402458,0.49282489711682503,0.040039546315084884,9,True
2023-04-28,0.49282489711682503,0.49933065358519113,1.3200949275141705,0,True
2023-04-29,0.49933065358519113,0.49683998418349706,-0.4988016224942493,1,True
2023-04-30,0.49683998418349706,0.49683998418349706,0.0,0,False
2023-05-01,0.49683998418349706,0.49683998418349706,0.0,0,False
2023-05-02,0.49683998418349706,0.49683998418349706,0.0,0,False
2023-05-03,0.49683998418349706,0.49683998418349706,0.0,0,False
2023-05-04,0.49683998418349706,0.49683998418349706,0.0,0,False
2023-05-05,0.49683998418349706,0.49683998418349706,0.0,0,False
2023-05-06,0.49683998418349706,0.4943645513279763,-0.4982354348128548,1,True
2023-05-07,0.4943645513279763,0.4943645513279763,0.0,0,False
2023-05-08,0.4943645513279763,0.4892459322541305,-1.0353936300845246,7,True
2023-05-09,0.4892459322541305,0.48259319697568537,-1.3597936824520152,6,True
2023-05-10,0.48259319697568537,0.4796235331255507,-0.6153555144881695,2,True
2023-05-11,0.4796235331255507,0.4771550565629465,-0.5146696089989522,4,True
2023-05-12,0.4771550565629465,0.4739422912750779,-0.6733168272407775,0,True
2023-05-13,0.4739422912750779,0.4739422912750779,0.0,0,False
2023-05-14,0.4739422912750779,0.4739422912750779,0.0,0,False
2023-05-15,0.4739422912750779,0.4739422912750779,0.0,0,False
2023-05-16,0.4739422912750779,0.4739422912750779,0.0,0,False
2023-05-17,0.4739422912750779,0.4739422912750779,0.0,0,False
2023-05-18,0.4739422912750779,0.4724685007200836,-0.31096413680012924,1,True
2023-05-19,0.4724685007200836,0.47157445942804765,-0.1892277031534051,0,True
2023-05-20,0.47157445942804765,0.47157445942804765,0.0,0,False
2023-05-21,0.47157445942804765,0.47157445942804765,0.0,0,False
2023-05-22,0.47157445942804765,0.469218872620784,-0.49951534909686846,1,True
2023-05-23,0.469218872620784,0.469218872620784,0.0,0,False
2023-05-24,0.469218872620784,0.4678545154789283,-0.2907720088570098,1,True
2023-05-25,0.4678545154789283,0.4701540816620319,0.49151308943755634,0,True
2023-05-26,0.4701540816620319,0.4710849139259863,0.19798451194208422,1,True
2023-05-27,0.4710849139259863,0.47270130548783695,0.34312106248102214,0,True
2023-05-28,0.47270130548783695,0.47270130548783695,0.0,0,False
2023-05-29,0.47270130548783695,0.47270130548783695,0.0,0,False
2023-05-30,0.47270130548783695,0.4751352255151716,0.5148959816861032,2,True
2023-05-31,0.4751352255151716,0.47022285807400915,-1.0338882864001864,1,True
2023-06-01,0.47022285807400915,0.47022285807400915,0.0,0,False
2023-06-02,0.47022285807400915,0.4762076161014012,1.2727492772055093,1,True
2023-06-03,0.4762076161014012,0.4762076161014012,0.0,0,False
2023-06-04,0.4762076161014012,0.4728818415811334,-0.6983875116267857,3,True
2023-06-05,0.4728818415811334,0.47731342692467127,0.9371443252547795,1,True
2023-06-06,0.47731342692467127,0.45940928522529423,-3.751024104796996,11,True
2023-06-07,0.45940928522529423,0.45769916910263775,-0.37224239423411243,1,True
2023-06-08,0.45769916910263775,0.45705391208222734,-0.14097841201580197,1,True
2023-06-09,0.45705391208222734,0.4557253820065661,-0.2906725094220963,1,True
2023-06-10,0.4557253820065661,0.4623931889755362,1.4631195084223059,7,True
2023-06-11,0.4623931889755362,0.4621317799241436,-0.05653393207883939,0,True
2023-06-12,0.4621317799241436,0.4621317799241436,0.0,0,False
2023-06-13,0.4621317799241436,0.4626017828675538,0.10170322921470021,1,True
2023-06-14,0.4626017828675538,0.4625761805400454,-0.005534420414410324,0,True
2023-06-15,0.4625761805400454,0.4653253390869584,0.5943147664247306,5,True
2023-06-16,0.4653253390869584,0.4699786084378151,1.0000034298555782,0,True
2023-06-17,0.4699786084378151,0.47075912555325417,0.16607503010264146,1,True
2023-06-18,0.47075912555325417,0.47136301204482717,0.12827929588477005,0,True
2023-06-19,0.47136301204482717,0.47385803795820663,0.5293215313089128,1,True
2023-06-20,0.47385803795820663,0.4718837002958763,-0.41665171932875333,1,True
2023-06-21,0.4718837002958763,0.4718837002958763,0.0,0,False
2023-06-22,0.4718837002958763,0.46952443355584234,-0.4999678392270557,1,True
2023-06-23,0.46952443355584234,0.46952443355584234,0.0,0,False
2023-06-24,0.46952443355584234,0.4695906754975775,0.014108305553661715,1,True
2023-06-25,0.4695906754975775,0.46674998706267956,-0.6049286289358191,4,True
2023-06-26,0.46674998706267956,0.4653306441978422,-0.3040906061443027,0,True
2023-06-27,0.4653306441978422,0.4653306441978422,0.0,0,False
2023-06-28,0.4653306441978422,0.4653306441978422,0.0,0,False
2023-06-29,0.4653306441978422,0.46409130066579196,-0.2663361090664229,2,True
2023-06-30,0.46409130066579196,0.46074674658652603,-0.7206672640637235,9,True
2023-07-01,0.46074674658652603,0.4649977895734468,0.9226419976733125,1,True
2023-07-02,0.4649977895734468,0.4649892614949739,-0.0018340040886521969,0,True
2023-07-03,0.4649892614949739,0.4649892614949739,0.0,0,False
2023-07-04,0.4649892614949739,0.4644360800832304,-0.11896649182068231,1,True
2023-07-05,0.4644360800832304,0.46475580869748073,0.06884232900101761,1,True
2023-07-06,0.46475580869748073,0.4626578282219845,-0.4514156544650927,2,True
2023-07-07,0.4626578282219845,0.4621793736543878,-0.10341434606983002,0,True
2023-07-08,0.4621793736543878,0.4621793736543878,0.0,0,False
2023-07-09,0.4621793736543878,0.4621793736543878,0.0,0,False
2023-07-10,0.4621793736543878,0.4621793736543878,0.0,0,False
2023-07-11,0.4621793736543878,0.4621793736543878,0.0,0,False
2023-07-12,0.4621793736543878,0.4612801129566204,-0.19456963011073025,1,True
2023-07-13,0.4612801129566204,0.4608987337384436,-0.08267844363207821,0,True
2023-07-14,0.4608987337384436,0.4608987337384436,0.0,0,False
2023-07-15,0.4608987337384436,0.46278374822227974,0.4089866918371543,6,True
2023-07-16,0.46278374822227974,0.4634917266012174,0.1529825499830606,1,True
2023-07-17,0.4634917266012174,0.46424972539521636,0.16354095456188045,0,True
2023-07-18,0.46424972539521636,0.46430476329231585,0.011855235251378993,2,True
2023-07-19,0.46430476329231585,0.4632040706293789,-0.23706253951221168,0,True
2023-07-20,0.4632040706293789,0.4614486049651025,-0.37898321184681727,2,True
2023-07-21,0.4614486049651025,0.46049193957286966,-0.20731786420833398,0,True
2023-07-22,0.46049193957286966,0.46049193957286966,0.0,0,False
2023-07-23,0.46049193957286966,0.46049193957286966,0.0,0,False
2023-07-24,0.46049193957286966,0.4567872787163123,-0.8045006954939593,4,True
2023-07-25,0.4567872787163123,0.4562923453412887,-0.10835095417159879,0,True
2023-07-26,0.4562923453412887,0.4562923453412887,0.0,0,False
2023-07-27,0.4562923453412887,0.4562923453412887,0.0,0,False
2023-07-28,0.4562923453412887,0.4562923453412887,0.0,0,False
2023-07-29,0.4562923453412887,0.4562923453412887,0.0,0,False
2023-07-30,0.4562923453412887,0.4562923453412887,0.0,0,False
2023-07-31,0.4562923453412887,0.45401819534737875,-0.4983975771517657,1,True
2023-08-01,0.45401819534737875,0.4519418363212885,-0.4573294743180023,2,True
2023-08-02,0.4519418363212885,0.4548844255901056,0.6510991088519713,0,True
2023-08-03,0.4548844255901056,0.4548844255901056,0.0,0,False
2023-08-04,0.4548844255901056,0.4548844255901056,0.0,0,False
2023-08-05,0.4548844255901056,0.4548844255901056,0.0,0,False
2023-08-06,0.4548844255901056,0.4548844255901056,0.0,0,False
2023-08-07,0.4548844255901056,0.4536274306479733,-0.2763328158579381,2,True
2023-08-08,0.4536274306479733,0.4488719232966434,-1.0483288774087218,4,True
2023-08-09,0.4488719232966434,0.44681754667524226,-0.45767545591027803,0,True
2023-08-10,0.44681754667524226,0.44458910993145245,-0.49873528028868686,1,True
2023-08-11,0.44458910993145245,0.44458910993145245,0.0,0,False
2023-08-12,0.44458910993145245,0.44458910993145245,0.0,0,False
2023-08-13,0.44458910993145245,0.44625597861867217,0.3749234180469907,1,True
2023-08-14,0.44625597861867217,0.4435420100108058,-0.608164089199903,1,True
2023-08-15,0.4435420100108058,0.4435420100108058,0.0,0,False
2023-08-16,0.4435420100108058,0.4466649120051156,0.7040825725242339,7,True
2023-08-17,0.4466649120051156,0.4490728313405664,0.5390885361112208,5,True
2023-08-18,0.4490728313405664,0.46344940667993406,3.201390584340369,7,True
2023-08-19,0.46344940667993406,0.4634796849579632,0.006533243455009163,0,True
2023-08-20,0.4634796849579632,0.4627841673665795,-0.15006431003481424,1,True
2023-08-21,0.4627841673665795,0.4616359102269723,-0.24811936547899371,1,True
2023-08-22,0.4616359102269723,0.46739159848259815,1.246802540295433,1,True
2023-08-23,0.46739159848259815,0.4679516929355596,0.1198340866159775,0,True
2023-08-24,0.4679516929355596,0.4679516929355596,0.0,0,False
2023-08-25,0.4679516929355596,0.45871297955710816,-1.9742878416562748,6,True
2023-08-26,0.45871297955710816,0.4581559801157302,-0.12142657090621345,0,True
2023-08-27,0.4581559801157302,0.4581559801157302,0.0,0,False
2023-08-28,0.4581559801157302,0.4551286974219016,-0.6607537225780447,2,True
2023-08-29,0.4551286974219016,0.45795042823702936,0.6199852549644946,1,True
2023-08-30,0.45795042823702936,0.4540842538935728,-0.8442342456890239,2,True
2023-08-31,0.4540842538935728,0.45700581907013127,0.6433971562562091,2,True
2023-09-01,0.45700581907013127,0.45409208043964183,-0.637571450713259,1,True
2023-09-02,0.45409208043964183,0.4492342896536909,-1.0697809971157657,4,True
2023-09-03,0.4492342896536909,0.4487289183273772,-0.11249616023373266,0,True
2023-09-04,0.4487289183273772,0.44808749417012855,-0.1429424605928098,3,True
2023-09-05,0.44808749417012855,0.4480491437780327,-0.008558683871973116,0,True
2023-09-06,0.4480491437780327,0.4489985472647136,0.21189717687559728,4,True
2023-09-07,0.4489985472647136,0.45183654241953136,0.6320722354463681,3,True
2023-09-08,0.45183654241953136,0.4466096984336214,-1.1567997484047687,4,True
2023-09-09,0.4466096984336214,0.44901057974471703,0.5375793045955257,4,True
2023-09-10,0.44901057974471703,0.4428435337095178,-1.3734745490196487,5,True
2023-09-11,0.4428435337095178,0.44087462738234173,-0.444605414170407,2,True
2023-09-12,0.44087462738234173,0.43967407978095113,-0.2723104317703062,2,True
2023-09-13,0.43967407978095113,0.44425294942346144,1.0414236028631896,2,True
2023-09-14,0.44425294942346144,0.44784003195274313,0.8074414663846063,4,True
2023-09-15,0.44784003195274313,0.4544106375074582,1.4671769127170053,0,True
2023-09-16,0.4544106375074582,0.4532970797750885,-0.24505538393154724,5,True
2023-09-17,0.4532970797750885,0.4539154830332058,0.13642339333492792,2,True
2023-09-18,0.4539154830332058,0.44921212720081694,-1.036174355842534,1,True
2023-09-19,0.44921212720081694,0.44921212720081694,0.0,0,False
2023-09-20,0.44921212720081694,0.4499867707817584,0.1724449394918448,3,True
2023-09-21,0.4499867707817584,0.44771873912687116,-0.5040218517862294,1,True
2023-09-22,0.44771873912687116,0.4501212119464346,0.536603141572467,0,True
2023-09-23,0.4501212119464346,0.4501212119464346,0.0,0,False
2023-09-24,0.4501212119464346,0.44787560429156925,-0.49888954247563344,1,True
2023-09-25,0.44787560429156925,0.44777833225733477,-0.021718538206239035,1,True
2023-09-26,0.44777833225733477,0.4482996566295478,0.1164246535970026,1,True
2023-09-27,0.4482996566295478,0.4477047009389816,-0.1327138403449224,0,True
2023-09-28,0.4477047009389816,0.4477047009389816,0.0,0,False
2023-09-29,0.4477047009389816,0.4432538323580039,-0.994152746585597,2,True
2023-09-30,0.4432538323580039,0.4432538323580039,0.0,0,False
2023-10-01,0.4432538323580039,0.44295351100064373,-0.06775380954125998,1,True
2023-10-02,0.44295351100064373,0.445998244425586,0.687370875120541,1,True
2023-10-03,0.445998244425586,0.4446699437086929,-0.2978264451699464,3,True
2023-10-04,0.4446699437086929,0.43567150975796903,-2.0236209076048617,5,True
2023-10-05,0.43567150975796903,0.43206006495658134,-0.8289375643116936,1,True
2023-10-06,0.43206006495658134,0.4320498037759928,-0.002374943074079372,0,True
2023-10-07,0.4320498037759928,0.4298960915241352,-0.4984870339101444,1,True
2023-10-08,0.4298960915241352,0.42913304935615804,-0.17749455810865955,1,True
2023-10-09,0.42913304935615804,0.42813692854301694,-0.23212400318167736,1,True
2023-10-10,0.42813692854301694,0.4256192255892032,-0.5880602176461913,1,True
2023-10-11,0.4256192255892032,0.42552906543058805,-0.02118329088407478,0,True
2023-10-12,0.42552906543058805,0.42552906543058805,0.0,0,False
2023-10-13,0.42552906543058805,0.42552906543058805,0.0,0,False
2023-10-14,0.42552906543058805,0.42552906543058805,0.0,0,False
2023-10-15,0.42552906543058805,0.42554875698304495,0.004627545814517298,1,True
2023-10-16,0.42554875698304495,0.4263935592188869,0.1985206681911711,2,True
2023-10-17,0.4263935592188869,0.42734601620927726,0.22337508852976473,2,True
2023-10-18,0.42734601620927726,0.4222854477296635,-1.1841852474729908,3,True
2023-10-19,0.4222854477296635,0.4158146581277356,-1.532325974460358,4,True
2023-10-20,0.4158146581277356,0.41474929186487425,-0.2562118102469757,0,True
2023-10-21,0.41474929186487425,0.4151186209524573,0.08904875664099698,2,True
2023-10-22,0.4151186209524573,0.4175001394850803,0.5736959058012969,1,True
2023-10-23,0.4175001394850803,0.4175001394850803,0.0,0,False
2023-10-24,0.4175001394850803,0.41640350470167853,-0.2626669262324799,4,True
2023-10-25,0.41640350470167853,0.42796230503011934,2.7758652840162323,6,True
2023-10-26,0.42796230503011934,0.4347082478265795,1.5762936868903399,3,True
2023-10-27,0.4347082478265795,0.4322322812884872,-0.5695697172693359,5,True
2023-10-28,0.4322322812884872,0.4325658962285753,0.07718417955586698,1,True
2023-10-29,0.4325658962285753,0.4333865094708148,0.18970826165314314,0,True
2023-10-30,0.4333865094708148,0.43225104058472796,-0.26199913040054756,2,True
2023-10-31,0.43225104058472796,0.42341952459457277,-2.043145108039146,5,True
2023-11-01,0.42341952459457277,0.4200642734874363,-0.7924176643363645,4,True
2023-11-02,0.4200642734874363,0.419421401746361,-0.1530412800255787,3,True
2023-11-03,0.419421401746361,0.41697029131155855,-0.5844028045771332,1,True
2023-11-04,0.41697029131155855,0.4178203060243198,0.20385498211097364,1,True
2023-11-05,0.4178203060243198,0.4174947308511233,-0.07792229542273876,4,True
2023-11-06,0.4174947308511233,0.4133724571578919,-0.9873834059719977,3,True
2023-11-07,0.4133724571578919,0.409146537159874,-1.0223032340066607,5,True
2023-11-08,0.409146537159874,0.4097991854352086,0.1595145543366927,0,True
2023-11-09,0.4097991854352086,0.41297722413602644,0.7755112293458488,4,True
2023-11-10,0.41297722413602644,0.41096632364346,-0.48692769843988737,6,True
2023-11-11,0.41096632364346,0.41043841601147213,-0.1284552046278753,3,True
2023-11-12,0.41043841601147213,0.4168134410426827,1.5532232808910251,4,True
2023-11-13,0.4168134410426827,0.41418171900158246,-0.6313908770592458,3,True
2023-11-14,0.41418171900158246,0.4143542564609248,0.04165742992188193,4,True
2023-11-15,0.4143542564609248,0.4102210140744625,-0.9975141613760785,1,True
2023-11-16,0.4102210140744625,0.40451360340447606,-1.3913013897797089,3,True
2023-11-17,0.40451360340447606,0.40234576965747504,-0.5359112100943086,3,True
2023-11-18,0.40234576965747504,0.40082913059712466,-0.37694917524335736,3,True
2023-11-19,0.40082913059712466,0.39606218311819763,-1.189271715812068,3,True
2023-11-20,0.39606218311819763,0.3970813650345008,0.257328762943021,1,True
2023-11-21,0.3970813650345008,0.3878162841495924,-2.333295314451078,4,True
2023-11-22,0.3878162841495924,0.38813293719783654,0.08165027132331915,4,True
2023-11-23,0.38813293719783654,0.3879957653775501,-0.03534145318270232,3,True
2023-11-24,0.3879957653775501,0.3946410308084583,1.7127159685471849,1,True
2023-11-25,0.3946410308084583,0.39544501603846494,0.20372570696960413,4,True
2023-11-26,0.39544501603846494,0.3954313648632005,-0.0034521045178870224,0,True
2023-11-27,0.3954313648632005,0.39354347405687923,-0.4774256607020577,2,True
2023-11-28,0.39354347405687923,0.3950361806853964,0.379299042397907,3,True
2023-11-29,0.3950361806853964,0.3984172402669484,0.8558860547116964,3,True
2023-11-30,0.3984172402669484,0.39651232205522974,-0.47812143130210316,0,True
2023-12-01,0.39651232205522974,0.39651232205522974,0.0,0,False
2023-12-02,0.39651232205522974,0.39651232205522974,0.0,0,False
2023-12-03,0.39651232205522974,0.39729744714568926,0.1980077406901204,2,True
2023-12-04,0.39729744714568926,0.4021960745323382,1.23298738057398,4,True
2023-12-05,0.4021960745323382,0.4023997995843125,0.05065316766483807,4,True
2023-12-06,0.4023997995843125,0.39362952629109954,-2.1794924605511357,4,True
2023-12-07,0.39362952629109954,0.39053498564718375,-0.7861556202537701,4,True
2023-12-08,0.39053498564718375,0.38995801235442923,-0.14773920748697433,1,True
2023-12-09,0.38995801235442923,0.39191250387128285,0.5012056311019419,0,True
2023-12-10,0.39191250387128285,0.3911234325049095,-0.20133865558740194,3,True
2023-12-11,0.3911234325049095,0.3958349948082546,1.2046228662830005,6,True
2023-12-12,0.3958349948082546,0.395757099895621,-0.019678632171304944,0,True
2023-12-13,0.395757099895621,0.3945497648341917,-0.30506971618393663,5,True
2023-12-14,0.3945497648341917,0.39830298228464184,0.9512659200360707,1,True
2023-12-15,0.39830298228464184,0.3949520534804537,-0.8413014597499102,2,True
2023-12-16,0.3949520534804537,0.4075123591598391,3.180210247978099,4,True
2023-12-17,0.4075123591598391,0.4006203338876286,-1.6912432512279252,2,True
2023-12-18,0.4006203338876286,0.3988305549026802,-0.4467519078675597,7,True
2023-12-19,0.3988305549026802,0.3990647516044108,0.05872085246521053,4,True
2023-12-20,0.3990647516044108,0.4003271252971032,0.3163330481124049,2,True
2023-12-21,0.4003271252971032,0.39707923123729844,-0.8113100148770425,1,True
2023-12-22,0.39707923123729844,0.3937510870631581,-0.838156194613815,1,True
2023-12-23,0.3937510870631581,0.39363133204917006,-0.030413887839964016,1,True
2023-12-24,0.39363133204917006,0.40617563270042395,3.1868145723945807,2,True
2023-12-25,0.40617563270042395,0.400796109570436,-1.324432756889593,2,True
2023-12-26,0.400796109570436,0.39949377845094597,-0.3249360680885438,1,True
2023-12-27,0.39949377845094597,0.39565084439439674,-0.9619509148428684,11,True
2023-12-28,0.39565084439439674,0.3973586530044868,0.4316453848857815,1,True
2023-12-29,0.3973586530044868,0.4032685050523155,1.4872840953993105,1,True
2023-12-30,0.4032685050523155,0.40462565041361265,0.3365364129095827,3,True
2023-12-31,0.40462565041361265,0.40251178485715094,-0.5224250005655517,2,True
