day,start_equity,end_equity,return_pct,entries,active
2021-09-02,1.0,1.0,0.0,0,False
2021-09-03,1.0,1.0,0.0,0,False
2021-09-04,1.0,1.0,0.0,0,False
2021-09-05,1.0,1.0,0.0,0,False
2021-09-06,1.0,1.0,0.0,0,False
2021-09-07,1.0,1.0,0.0,0,False
2021-09-08,1.0,1.0,0.0,0,False
2021-09-09,1.0,1.0,0.0,0,False
2021-09-10,1.0,1.0,0.0,0,False
2021-09-11,1.0,1.0,0.0,0,False
2021-09-12,1.0,1.0,0.0,0,False
2021-09-13,1.0,1.0,0.0,0,False
2021-09-14,1.0,1.0,0.0,0,False
2021-09-15,1.0,1.0,0.0,0,False
2021-09-16,1.0,1.0,0.0,0,False
2021-09-17,1.0,1.0,0.0,0,False
2021-09-18,1.0,1.0,0.0,0,False
2021-09-19,1.0,1.0,0.0,0,False
2021-09-20,1.0,1.0,0.0,0,False
2021-09-21,1.0,1.0,0.0,0,False
2021-09-22,1.0,1.0,0.0,0,False
2021-09-23,1.0,1.0,0.0,0,False
2021-09-24,1.0,1.0,0.0,0,False
2021-09-25,1.0,1.0,0.0,0,False
2021-09-26,1.0,1.0,0.0,0,False
2021-09-27,1.0,1.0,0.0,0,False
2021-09-28,1.0,1.0,0.0,0,False
2021-09-29,1.0,1.0,0.0,0,False
2021-09-30,1.0,1.0,0.0,0,False
2021-10-01,1.0,1.0,0.0,0,False
2021-10-02,1.0,1.0,0.0,0,False
2021-10-03,1.0,1.0,0.0,0,False
2021-10-04,1.0,1.0,0.0,0,False
2021-10-05,1.0,0.9993073753491394,-0.06926246508606182,1,True
2021-10-06,0.9993073753491394,1.0084847626134863,0.9183748154706128,5,True
2021-10-07,1.0084847626134863,0.9943180326815797,-1.4047539890631122,2,True
2021-10-08,0.9943180326815797,0.9936436126525754,-0.0678273959474951,1,True
2021-10-09,0.9936436126525754,1.0007213358781006,0.7122999771146166,4,True
2021-10-10,1.0007213358781006,0.9881055392764869,-1.2606702934482517,1,True
2021-10-11,0.9881055392764869,0.9855301473742536,-0.2606393547919028,0,True
2021-10-12,0.9855301473742536,0.9855301473742536,0.0,0,False
2021-10-13,0.9855301473742536,1.0123284128047592,2.7191725693936464,4,True
2021-10-14,1.0123284128047592,1.0294838132645332,1.6946477292130169,1,True
2021-10-15,1.0294838132645332,1.051248518421415,2.114137675255434,7,True
2021-10-16,1.051248518421415,1.0649423421961999,1.302624787081541,3,True
2021-10-17,1.0649423421961999,1.0647292774798167,-0.020007159818979936,0,True
2021-10-18,1.0647292774798167,1.0686052263002366,0.3640313929935468,2,True
2021-10-19,1.0686052263002366,1.0686052263002366,0.0,0,False
2021-10-20,1.0686052263002366,1.0686052263002366,0.0,0,False
2021-10-21,1.0686052263002366,1.0686052263002366,0.0,0,False
2021-10-22,1.0686052263002366,1.0686052263002366,0.0,0,False
2021-10-23,1.0686052263002366,1.0686052263002366,0.0,0,False
2021-10-24,1.0686052263002366,1.0731668253578404,0.4268741107880558,1,True
2021-10-25,1.0731668253578404,1.0673835681747144,-0.5388963809235925,2,True
2021-10-26,1.0673835681747144,1.0673835681747144,0.0,0,False
2021-10-27,1.0673835681747144,1.077398398721266,0.9382597638895263,7,True
2021-10-28,1.077398398721266,1.0809986230667097,0.33415905849838445,4,True
2021-10-29,1.0809986230667097,1.0713193811524446,-0.8953981723682336,3,True
2021-10-30,1.0713193811524446,1.0839708453117092,1.1809236705542459,2,True
2021-10-31,1.0839708453117092,1.0635696585274002,-1.8820789205305943,10,True
2021-11-01,1.0635696585274002,1.0573144285010072,-0.58813543393611,10,True
2021-11-02,1.0573144285010072,1.0922813868069081,3.307148504109114,3,True
2021-11-03,1.0922813868069081,1.08618200032431,-0.5584079849999757,2,True
2021-11-04,1.08618200032431,1.1093612956058099,2.134015779545151,7,True
2021-11-05,1.1093612956058099,1.0967402990000332,-1.13768135374549,6,True
2021-11-06,1.0967402990000332,1.0952372465026026,-0.13704725711283228,2,True
2021-11-07,1.0952372465026026,1.0952372465026026,0.0,0,False
2021-11-08,1.0952372465026026,1.0952372465026026,0.0,0,False
2021-11-09,1.0952372465026026,1.1037713728756218,0.7792034465839315,2,True
2021-11-10,1.1037713728756218,1.1265206774408574,2.0610522363854633,1,True
2021-11-11,1.1265206774408574,1.1237442298967044,-0.24646219104120792,20,True
2021-11-12,1.1237442298967044,1.081957900286402,-3.718491138694746,7,True
2021-11-13,1.081957900286402,1.0797928069259035,-0.20010883602081808,1,True
2021-11-14,1.0797928069259035,1.0852326745207932,0.5037880934191996,2,True
2021-11-15,1.0852326745207932,1.0852326745207932,0.0,0,False
2021-11-16,1.0852326745207932,1.0978863711987674,1.16598928276479,9,True
2021-11-17,1.0978863711987674,1.0966296636401611,-0.11446608606991981,1,True
2021-11-18,1.0966296636401611,1.0835383934312366,-1.1937731253292228,4,True
2021-11-19,1.0835383934312366,1.0915971112925968,0.7437408688252045,7,True
2021-11-20,1.0915971112925968,1.1024596850490576,0.9951083274302608,0,True
2021-11-21,1.1024596850490576,1.0916002686932578,-0.9850170943272674,3,True
2021-11-22,1.0916002686932578,1.0786382774050112,-1.1874302031606554,10,True
2021-11-23,1.0786382774050112,1.0715425769120026,-0.6578387436870337,0,True
2021-11-24,1.0715425769120026,1.0561946722648652,-1.4323186943599908,4,True
2021-11-25,1.0561946722648652,1.0623393131716585,0.5817716248858851,11,True
2021-11-26,1.0623393131716585,1.03731570587526,-2.355519275822482,14,True
2021-11-27,1.03731570587526,1.0563961866760316,1.8394092264005568,7,True
2021-11-28,1.0563961866760316,1.009627426558509,-4.427198877409932,9,True
2021-11-29,1.009627426558509,0.9943380824808665,-1.5143550655868032,2,True
2021-11-30,0.9943380824808665,0.9835697816626806,-1.0829617217635978,3,True
2021-12-01,0.9835697816626806,0.9752543654237408,-0.845432260523804,1,True
2021-12-02,0.9752543654237408,0.9673003781695012,-0.8155807896110923,7,True
2021-12-03,0.9673003781695012,0.9443376604946402,-2.3738973118479723,3,True
2021-12-04,0.9443376604946402,0.859578842504567,-8.975477896929041,22,True
2021-12-05,0.859578842504567,0.856626864580066,-0.34342142669540054,4,True
2021-12-06,0.856626864580066,0.8273749712852563,-3.414776550248577,15,True
2021-12-07,0.8273749712852563,0.8432466886292654,1.918322150759999,1,True
2021-12-08,0.8432466886292654,0.8360784984210907,-0.850070365509159,4,True
2021-12-09,0.8360784984210907,0.8241462483450114,-1.4271686329229927,4,True
2021-12-10,0.8241462483450114,0.8087475329576058,-1.868444516774559,4,True
2021-12-11,0.8087475329576058,0.8014197799458568,-0.9060618688939037,2,True
2021-12-12,0.8014197799458568,0.8014197799458568,0.0,0,False
2021-12-13,0.8014197799458568,0.7934311154491481,-0.996813991445078,2,True
2021-12-14,0.7934311154491481,0.7894775384278656,-0.4982886282502874,1,True
2021-12-15,0.7894775384278656,0.7879271677384349,-0.1963793286023141,1,True
2021-12-16,0.7879271677384349,0.7888143217546398,0.1125934036201981,1,True
2021-12-17,0.7888143217546398,0.7818201513543362,-0.8866687897787884,4,True
2021-12-18,0.7818201513543362,0.7833614645496618,0.19714421438941088,2,True
2021-12-19,0.7833614645496618,0.7790916585623263,-0.5450620410323737,1,True
2021-12-20,0.7790916585623263,0.7790916585623263,0.0,0,False
2021-12-21,0.7790916585623263,0.7752133143876377,-0.497803324174384,1,True
2021-12-22,0.7752133143876377,0.7696463367459159,-0.7181220366576646,2,True
2021-12-23,0.7696463367459159,0.7698722608784152,0.029354278934734523,0,True
2021-12-24,0.7698722608784152,0.7698722608784152,0.0,0,False
2021-12-25,0.7698722608784152,0.7763563115291775,0.8422242208550479,2,True
2021-12-26,0.7763563115291775,0.7729047522484082,-0.4445844297924051,0,True
2021-12-27,0.7729047522484082,0.7729047522484082,0.0,0,False
2021-12-28,0.7729047522484082,0.7690541281437538,-0.4982016339597717,1,True
2021-12-29,0.7690541281437538,0.7690541281437538,0.0,0,False
2021-12-30,0.7690541281437538,0.7690541281437538,0.0,0,False
2021-12-31,0.7690541281437538,0.7690541281437538,0.0,0,False
2022-01-01,0.7690541281437538,0.7690541281437538,0.0,0,False
2022-01-02,0.7690541281437538,0.7690541281437538,0.0,0,False
2022-01-03,0.7690541281437538,0.7690541281437538,0.0,0,False
2022-01-04,0.7690541281437538,0.7690541281437538,0.0,0,False
2022-01-05,0.7690541281437538,0.771210038219945,0.2803326836558151,1,True
2022-01-06,0.771210038219945,0.7292179005876137,-5.44496771972195,15,True
2022-01-07,0.7292179005876137,0.7290144374932885,-0.027901549613806864,5,True
2022-01-08,0.7290144374932885,0.7290144374932885,0.0,0,False
2022-01-09,0.7290144374932885,0.7299711925580438,0.13123952223017543,1,True
2022-01-10,0.7299711925580438,0.7320914274973122,0.29045460435752624,0,True
2022-01-11,0.7320914274973122,0.7320914274973122,0.0,0,False
2022-01-12,0.7320914274973122,0.7320914274973122,0.0,0,False
2022-01-13,0.7320914274973122,0.7320914274973122,0.0,0,False
2022-01-14,0.7320914274973122,0.7320914274973122,0.0,0,False
2022-01-15,0.7320914274973122,0.7327708516067319,0.09280590974032332,1,True
2022-01-16,0.7327708516067319,0.7313054901942917,-0.19997539602280012,0,True
2022-01-17,0.7313054901942917,0.7378756244440096,0.8984117222984755,1,True
2022-01-18,0.7378756244440096,0.7378756244440096,0.0,0,False
2022-01-19,0.7378756244440096,0.7342001645787111,-0.4981137394351465,1,True
2022-01-20,0.7342001645787111,0.7342001645787111,0.0,0,False
2022-01-21,0.7342001645787111,0.7018595623845397,-4.404875367023187,9,True
2022-01-22,0.7018595623845397,0.6681426512331813,-4.8039398418690205,27,True
2022-01-23,0.6681426512331813,0.6681426512331813,0.0,0,False
2022-01-24,0.6681426512331813,0.6605953873217825,-1.1295887034705743,6,True
2022-01-25,0.6605953873217825,0.6763455350632425,2.3842351980862375,0,True
2022-01-26,0.6763455350632425,0.6774544360284673,0.16395479939423918,1,True
2022-01-27,0.6774544360284673,0.6716534158681653,-0.8562967266566468,10,True
2022-01-28,0.6716534158681653,0.6592652616106537,-1.8444265993196707,0,True
2022-01-29,0.6592652616106537,0.6592652616106537,0.0,0,False
2022-01-30,0.6592652616106537,0.6651572808391603,0.8937251166718063,1,True
2022-01-31,0.6651572808391603,0.668065006832906,0.437148637999929,2,True
2022-02-01,0.668065006832906,0.6647337774132924,-0.49863851354914335,1,True
2022-02-02,0.6647337774132924,0.6708722038905436,0.9234413363403693,1,True
2022-02-03,0.6708722038905436,0.6767864723363818,0.8815789969445653,4,True
2022-02-04,0.6767864723363818,0.68209095858419,0.7837754542427966,1,True
2022-02-05,0.68209095858419,0.68209095858419,0.0,0,False
2022-02-06,0.68209095858419,0.68209095858419,0.0,0,False
2022-02-07,0.68209095858419,0.68209095858419,0.0,0,False
2022-02-08,0.68209095858419,0.6753865128892119,-0.9829254603952564,3,True
2022-02-09,0.6753865128892119,0.6850329643361103,1.4282860647649276,2,True
2022-02-10,0.6850329643361103,0.7018320549586341,2.4523039761749965,5,True
2022-02-11,0.7018320549586341,0.6891643019188655,-1.804955038782785,0,True
2022-02-12,0.6891643019188655,0.67210710309174,-2.4750554809110703,5,True
2022-02-13,0.67210710309174,0.67210710309174,0.0,0,False
2022-02-14,0.67210710309174,0.67210710309174,0.0,0,False
2022-02-15,0.67210710309174,0.67210710309174,0.0,0,False
2022-02-16,0.67210710309174,0.67210710309174,0.0,0,False
2022-02-17,0.67210710309174,0.67210710309174,0.0,0,False
2022-02-18,0.67210710309174,0.67210710309174,0.0,0,False
2022-02-19,0.67210710309174,0.67210710309174,0.0,0,False
2022-02-20,0.67210710309174,0.67210710309174,0.0,0,False
2022-02-21,0.67210710309174,0.67210710309174,0.0,0,False
2022-02-22,0.67210710309174,0.6654327954128393,-0.9930422767738145,2,True
2022-02-23,0.6654327954128393,0.6654327954128393,0.0,0,False
2022-02-24,0.6654327954128393,0.6538368366530392,-1.7426190653266338,11,True
2022-02-25,0.6538368366530392,0.6656157905660439,1.8015127402886355,0,True
2022-02-26,0.6656157905660439,0.6656157905660439,0.0,0,False
2022-02-27,0.6656157905660439,0.6656157905660439,0.0,0,False
2022-02-28,0.6656157905660439,0.6589874718992016,-0.9958175212768872,2,True
2022-03-01,0.6589874718992016,0.6589874718992016,0.0,0,False
2022-03-02,0.6589874718992016,0.6589874718992016,0.0,0,False
2022-03-03,0.6589874718992016,0.6589874718992016,0.0,0,False
2022-03-04,0.6589874718992016,0.6676186480357462,1.3097633118380303,3,True
2022-03-05,0.6676186480357462,0.6685456935363019,0.13885853897028788,3,True
2022-03-06,0.6685456935363019,0.6652394810348072,-0.4945379999392818,4,True
2022-03-07,0.6652394810348072,0.6629464248400226,-0.34469634772994473,0,True
2022-03-08,0.6629464248400226,0.6596494807099114,-0.49731682781257724,1,True
2022-03-09,0.6596494807099114,0.6713891402654392,1.7796814670260508,2,True
2022-03-10,0.6713891402654392,0.6673877091063205,-0.5959928332377684,4,True
2022-03-11,0.6673877091063205,0.6581960548328446,-1.3772585482259125,2,True
2022-03-12,0.6581960548328446,0.655747846702633,-0.3719572781142544,0,True
2022-03-13,0.655747846702633,0.655747846702633,0.0,0,False
2022-03-14,0.655747846702633,0.6524817427810861,-0.4980731447263187,1,True
2022-03-15,0.6524817427810861,0.6538108016545822,0.20369288308839106,1,True
2022-03-16,0.6538108016545822,0.6595053865662147,0.8709836082887223,1,True
2022-03-17,0.6595053865662147,0.6620068646440009,0.3792960798713718,1,True
2022-03-18,0.6620068646440009,0.6604116864639511,-0.24096097264907357,0,True
2022-03-19,0.6604116864639511,0.6604116864639511,0.0,0,False
2022-03-20,0.6604116864639511,0.65672470895605,-0.5582847159538273,4,True
2022-03-21,0.65672470895605,0.6648854148176405,1.2426372497180926,4,True
2022-03-22,0.6648854148176405,0.6618023695863797,-0.4636957229850469,0,True
2022-03-23,0.6618023695863797,0.6611509222578319,-0.09843532729491011,2,True
2022-03-24,0.6611509222578319,0.6551890230405286,-0.9017455798055019,0,True
2022-03-25,0.6551890230405286,0.6551890230405286,0.0,0,False
2022-03-26,0.6551890230405286,0.6568932588487835,0.26011360818378737,1,True
2022-03-27,0.6568932588487835,0.6609905762401835,0.6237417321926397,2,True
2022-03-28,0.6609905762401835,0.674468971134949,2.0391205834480397,5,True
2022-03-29,0.674468971134949,0.679060691520672,0.6807904562305511,1,True
2022-03-30,0.679060691520672,0.690270614916858,1.6507984538293163,7,True
2022-03-31,0.690270614916858,0.6873989175889741,-0.41602485544453005,7,True
2022-04-01,0.6873989175889741,0.6691486226758854,-2.6549787097572053,11,True
2022-04-02,0.6691486226758854,0.6692467885614434,0.014670266399918752,1,True
2022-04-03,0.6692467885614434,0.660738210318254,-1.271366316374667,3,True
2022-04-04,0.660738210318254,0.6548935806722949,-0.8845605649390187,2,True
2022-04-05,0.6548935806722949,0.6544295280327384,-0.07085924389121923,7,True
2022-04-06,0.6544295280327384,0.6202055900650789,-5.229583400758065,14,True
2022-04-07,0.6202055900650789,0.617460281303537,-0.4426449560465562,3,True
2022-04-08,0.617460281303537,0.6135851453828692,-0.6275927436963036,0,True
2022-04-09,0.6135851453828692,0.6132225996058424,-0.0590864657912582,1,True
2022-04-10,0.6132225996058424,0.6105186761409563,-0.4409366951942051,0,True
2022-04-11,0.6105186761409563,0.6011381819679039,-1.5364794787844693,7,True
2022-04-12,0.6011381819679039,0.5916805665938317,-1.5732847551142792,1,True
2022-04-13,0.5916805665938317,0.5870812372515132,-0.7773331763785696,1,True
2022-04-14,0.5870812372515132,0.5864338435911617,-0.11027326701537055,0,True
2022-04-15,0.5864338435911617,0.5917401773271569,0.9048478006488558,1,True
2022-04-16,0.5917401773271569,0.5917401773271569,0.0,0,False
2022-04-17,0.5917401773271569,0.5966739178892054,0.8337680541371739,1,True
2022-04-18,0.5966739178892054,0.6079800437842315,1.8948584069206076,6,True
2022-04-19,0.6079800437842315,0.6216519615735703,2.248744498954447,2,True
2022-04-20,0.6216519615735703,0.6322601981240314,1.7064591131682239,1,True
2022-04-21,0.6322601981240314,0.6298737503082802,-0.37744710529494796,5,True
2022-04-22,0.6298737503082802,0.6227703462161511,-1.1277504561275076,2,True
2022-04-23,0.6227703462161511,0.6158710983195097,-1.1078317936234594,2,True
2022-04-24,0.6158710983195097,0.6158710983195097,0.0,0,False
2022-04-25,0.6158710983195097,0.6066852067155537,-1.491528280677723,3,True
2022-04-26,0.6066852067155537,0.6017508154494672,-0.8133363417249129,2,True
2022-04-27,0.6017508154494672,0.5976553276334868,-0.6805953080298299,1,True
2022-04-28,0.5976553276334868,0.5997812357334042,0.35570804803752853,1,True
2022-04-29,0.5997812357334042,0.5897600247680835,-1.6708110171314239,3,True
2022-04-30,0.5897600247680835,0.5835608089596395,-1.0511420828975049,4,True
2022-05-01,0.5835608089596395,0.5791223262600601,-0.7605861516800982,10,True
2022-05-02,0.5791223262600601,0.5871033993005134,1.3781325082033336,1,True
2022-05-03,0.5871033993005134,0.5945076909336934,1.2611563213569488,3,True
2022-05-04,0.5945076909336934,0.5887075512868071,-0.9756206244829202,2,True
2022-05-05,0.5887075512868071,0.591350026680514,0.44886045506480343,0,True
2022-05-06,0.591350026680514,0.561014746037933,-5.129835000239213,13,True
2022-05-07,0.561014746037933,0.5568826254323764,-0.7365440275391877,2,True
2022-05-08,0.5568826254323764,0.5521544371537752,-0.8490457526718731,3,True
2022-05-09,0.5521544371537752,0.5415379811422354,-1.9227330792205732,5,True
2022-05-10,0.5415379811422354,0.5314741099625585,-1.8583869516316742,24,True
2022-05-11,0.5314741099625585,0.512214556930136,-3.6237989153938943,38,True
2022-05-12,0.512214556930136,0.5001778953676359,-2.3499257097727932,29,True
2022-05-13,0.5001778953676359,0.5208359646363108,4.130144386626866,10,True
2022-05-14,0.5208359646363108,0.49792142500131026,-4.3995693828480675,14,True
2022-05-15,0.49792142500131026,0.5115690495134448,2.7409193151507028,4,True
2022-05-16,0.5115690495134448,0.5160966961289124,0.8850509270984741,10,True
2022-05-17,0.5160966961289124,0.5301791335890734,2.728643210814785,4,True
2022-05-18,0.5301791335890734,0.5150249297029604,-2.8583176752970063,2,True
2022-05-19,0.5150249297029604,0.5181108568922843,0.599180158347612,8,True
2022-05-20,0.5181108568922843,0.5240482047029137,1.1459608945936006,1,True
2022-05-21,0.5240482047029137,0.5240482047029137,0.0,0,False
2022-05-22,0.5240482047029137,0.522753563092136,-0.24704628298680698,1,True
2022-05-23,0.522753563092136,0.523135023783415,0.0729714186972874,4,True
2022-05-24,0.523135023783415,0.49714849350769635,-4.967461380769156,16,True
2022-05-25,0.49714849350769635,0.49680157239963896,-0.06978219034913247,1,True
2022-05-26,0.49680157239963896,0.4938772036315504,-0.5886391933027424,14,True
2022-05-27,0.4938772036315504,0.4918697837036744,-0.4064613456776667,6,True
2022-05-28,0.4918697837036744,0.4953117403269309,0.6997698857082346,1,True
2022-05-29,0.4953117403269309,0.4995080710721108,0.8472100302751029,4,True
2022-05-30,0.4995080710721108,0.5030062650910434,0.700327826820546,0,True
2022-05-31,0.5030062650910434,0.49973238142065807,-0.6508633982506673,8,True
2022-06-01,0.49973238142065807,0.4912424249705497,-1.6989006047542499,5,True
2022-06-02,0.4912424249705497,0.48357040424827574,-1.5617585803453182,12,True
2022-06-03,0.48357040424827574,0.48662065144157,0.6307762357863789,0,True
2022-06-04,0.48662065144157,0.48662065144157,0.0,0,False
2022-06-05,0.48662065144157,0.48662065144157,0.0,0,False
2022-06-06,0.48662065144157,0.48862334252833944,0.41155078002477197,1,True
2022-06-07,0.48862334252833944,0.48939244351811423,0.15740160627510935,5,True
2022-06-08,0.48939244351811423,0.5009710425965384,2.365912925665259,6,True
2022-06-09,0.5009710425965384,0.49864761097040194,-0.4637856140534691,6,True
2022-06-10,0.49864761097040194,0.4979523175876123,-0.1394358195031864,7,True
2022-06-11,0.4979523175876123,0.4832962426762887,-2.943268741538685,8,True
2022-06-12,0.4832962426762887,0.4780217049056094,-1.0913674274542484,16,True
2022-06-13,0.4780217049056094,0.44228833839061465,-7.475260254563276,16,True
2022-06-14,0.44228833839061465,0.4618497560821542,4.422774917086669,13,True
2022-06-15,0.4618497560821542,0.4577052884409742,-0.897362743316632,10,True
2022-06-16,0.4577052884409742,0.4620197642339131,0.9426318423443991,10,True
2022-06-17,0.4620197642339131,0.46454317763053127,0.5461700108873702,1,True
2022-06-18,0.46454317763053127,0.4609124781424012,-0.7815634074423317,9,True
2022-06-19,0.4609124781424012,0.4583669213609342,-0.5522863671919342,4,True
2022-06-20,0.4583669213609342,0.46211651041235774,0.8180322088449765,2,True
2022-06-21,0.46211651041235774,0.4657905627764509,0.7950489284217044,1,True
2022-06-22,0.4657905627764509,0.4734348497189037,1.6411425119665868,9,True
2022-06-23,0.4734348497189037,0.47159283828272974,-0.3890739005097843,1,True
2022-06-24,0.47159283828272974,0.46690914764175523,-0.9931640730656222,2,True
2022-06-25,0.46690914764175523,0.4678207520089156,0.19524234463270673,4,True
2022-06-26,0.4678207520089156,0.4705201393732157,0.577013172824925,0,True
2022-06-27,0.4705201393732157,0.4685291936414342,-0.42313719757748336,5,True
2022-06-28,0.4685291936414342,0.4692720274404118,0.15854589405714936,3,True
2022-06-29,0.4692720274404118,0.463305032471443,-1.271542862146513,5,True
2022-06-30,0.463305032471443,0.4560006538716152,-1.5765808890232602,4,True
2022-07-01,0.4560006538716152,0.4625728416863737,1.4412671909476815,1,True
2022-07-02,0.4625728416863737,0.4613850504241209,-0.25677929078640194,2,True
2022-07-03,0.4613850504241209,0.45996422709392076,-0.3079474137478222,3,True
2022-07-04,0.45996422709392076,0.4615843210892983,0.35222173811502167,0,True
2022-07-05,0.4615843210892983,0.4619562388655632,0.08057417881681683,1,True
2022-07-06,0.4619562388655632,0.4657795786559188,0.8276411202378542,0,True
2022-07-07,0.4657795786559188,0.4657795786559188,0.0,0,False
2022-07-08,0.4657795786559188,0.4657795786559188,0.0,0,False
2022-07-09,0.4657795786559188,0.4657795786559188,0.0,0,False
2022-07-10,0.4657795786559188,0.4657795786559188,0.0,0,False
2022-07-11,0.4657795786559188,0.46346179083532,-0.49761473598458617,1,True
2022-07-12,0.46346179083532,0.46525904125682166,0.3877882615225703,2,True
2022-07-13,0.46525904125682166,0.4728543390642854,1.6324879548705429,6,True
2022-07-14,0.4728543390642854,0.47932158551359305,1.367703733480674,0,True
2022-07-15,0.47932158551359305,0.47932158551359305,0.0,0,False
2022-07-16,0.47932158551359305,0.47932158551359305,0.0,0,False
2022-07-17,0.47932158551359305,0.47932158551359305,0.0,0,False
2022-07-18,0.47932158551359305,0.48049145511957136,0.24406779108951948,1,True
2022-07-19,0.48049145511957136,0.48160671488506474,0.23210813711886935,4,True
2022-07-20,0.48160671488506474,0.47455294417899135,-1.4646329646289868,2,True
2022-07-21,0.47455294417899135,0.46168306863765407,-2.7119999357717695,8,True
2022-07-22,0.46168306863765407,0.4669409671596421,1.1388545257904337,0,True
2022-07-23,0.4669409671596421,0.4693471371111054,0.5153049573053625,3,True
2022-07-24,0.4693471371111054,0.472510924206507,0.6740825383265703,3,True
2022-07-25,0.472510924206507,0.4735552000322426,0.22100564711584614,1,True
2022-07-26,0.4735552000322426,0.4696824746289269,-0.8177980947209562,1,True
2022-07-27,0.4696824746289269,0.46698960336118334,-0.5733386730835788,1,True
2022-07-28,0.46698960336118334,0.46546697638420126,-0.32605157931202555,0,True
2022-07-29,0.46546697638420126,0.4679219385309466,0.5274191878907875,4,True
2022-07-30,0.4679219385309466,0.4732786907619664,1.1447961272851304,2,True
2022-07-31,0.4732786907619664,0.46970476324144145,-0.7551422851451495,6,True
2022-08-01,0.46970476324144145,0.46455343855416176,-1.0967154456195671,2,True
2022-08-02,0.46455343855416176,0.45700016562189566,-1.6259212192625827,6,True
2022-08-03,0.45700016562189566,0.4602253369778662,0.7057265179721828,2,True
2022-08-04,0.4602253369778662,0.4602257256549662,8.445365102804914e-05,0,True
2022-08-05,0.4602257256549662,0.4663477924682063,1.3302313347493877,2,True
2022-08-06,0.4663477924682063,0.4662129359398495,-0.028917586945786944,0,True
2022-08-07,0.4662129359398495,0.4672178502652122,0.21554835739099332,2,True
2022-08-08,0.4672178502652122,0.46782775387012776,0.13053944847556398,0,True
2022-08-09,0.46782775387012776,0.46686692465968305,-0.2053809767582626,7,True
2022-08-10,0.46686692465968305,0.47874558096236863,2.5443345148822516,2,True
2022-08-11,0.47874558096236863,0.4814402291413499,0.5628559899319541,3,True
2022-08-12,0.4814402291413499,0.4860888304052483,0.9655614513538247,5,True
2022-08-13,0.4860888304052483,0.48497555129843223,-0.22902791366095077,0,True
2022-08-14,0.48497555129843223,0.48497555129843223,0.0,0,False
2022-08-15,0.48497555129843223,0.48255387137722183,-0.49934061928004203,1,True
2022-08-16,0.48255387137722183,0.4777621501004125,-0.9929919872228243,2,True
2022-08-17,0.4777621501004125,0.475387234943242,-0.49709152486679953,1,True
2022-08-18,0.475387234943242,0.47302199456383287,-0.4975397329908371,1,True
2022-08-19,0.47302199456383287,0.459558127185669,-2.846351233747324,12,True
2022-08-20,0.459558127185669,0.45734239507978863,-0.48214403680542084,2,True
2022-08-21,0.45734239507978863,0.461861996146115,0.9882313808974308,1,True
2022-08-22,0.461861996146115,0.4596263098123361,-0.48405938406580473,0,True
2022-08-23,0.4596263098123361,0.4596263098123361,0.0,0,False
2022-08-24,0.4596263098123361,0.4596263098123361,0.0,0,False
2022-08-25,0.4596263098123361,0.45804544650332685,-0.3439453476139609,1,True
2022-08-26,0.45804544650332685,0.4615138100607317,0.7572094830069931,1,True
2022-08-27,0.4615138100607317,0.454535307256907,-1.5120897038609526,7,True
2022-08-28,0.454535307256907,0.4547106897761577,0.038585015608383344,1,True
2022-08-29,0.4547106897761577,0.4527534651259759,-0.4304329531257034,1,True
2022-08-30,0.4527534651259759,0.4505047015948398,-0.4966861005714085,1,True
2022-08-31,0.4505047015948398,0.4496679365106938,-0.1857394786744182,2,True
2022-09-01,0.4496679365106938,0.44253241076082644,-1.5868433505037527,2,True
2022-09-02,0.44253241076082644,0.4426190834989989,0.01958562493162841,0,True
2022-09-03,0.4426190834989989,0.4426190834989989,0.0,0,False
2022-09-04,0.4426190834989989,0.4426190834989989,0.0,0,False
2022-09-05,0.4426190834989989,0.4426190834989989,0.0,0,False
2022-09-06,0.4426190834989989,0.44041717944169867,-0.49747155949394495,1,True
2022-09-07,0.44041717944169867,0.43691890360875035,-0.7943095765208241,5,True
2022-09-08,0.43691890360875035,0.434910337488017,-0.4597114256543966,2,True
2022-09-09,0.434910337488017,0.4344168387575094,-0.11347137282547992,0,True
2022-09-10,0.4344168387575094,0.4335044857385707,-0.21001787627481505,2,True
2022-09-11,0.4335044857385707,0.436195546159443,0.6207687600481293,0,True
2022-09-12,0.436195546159443,0.436195546159443,0.0,0,False
2022-09-13,0.436195546159443,0.42686240358912003,-2.139669387387877,6,True
2022-09-14,0.42686240358912003,0.43598801365726614,2.1378341103401644,5,True
2022-09-15,0.43598801365726614,0.43551392108827874,-0.10873981718224623,3,True
2022-09-16,0.43551392108827874,0.4290244893058777,-1.4900629964215595,3,True
2022-09-17,0.4290244893058777,0.42688947231719426,-0.4976445498805271,1,True
2022-09-18,0.42688947231719426,0.42688947231719426,0.0,0,False
2022-09-19,0.42688947231719426,0.4397887137210706,3.0216817795618356,9,True
2022-09-20,0.4397887137210706,0.4405372544807025,0.1702046315146477,0,True
2022-09-21,0.4405372544807025,0.4405372544807025,0.0,0,False
2022-09-22,0.4405372544807025,0.4423367019398057,0.40846658047668516,2,True
2022-09-23,0.4423367019398057,0.43648473339755,-1.3229669879511907,3,True
2022-09-24,0.43648473339755,0.436543143504318,0.013381935792655675,0,True
2022-09-25,0.436543143504318,0.436543143504318,0.0,0,False
2022-09-26,0.436543143504318,0.436543143504318,0.0,0,False
2022-09-27,0.436543143504318,0.436543143504318,0.0,0,False
2022-09-28,0.436543143504318,0.436543143504318,0.0,0,False
2022-09-29,0.436543143504318,0.436543143504318,0.0,0,False
2022-09-30,0.436543143504318,0.4350199664767909,-0.34891786761324095,1,True
2022-10-01,0.4350199664767909,0.43436149076992225,-0.15136677798990306,0,True
2022-10-02,0.43436149076992225,0.43436149076992225,0.0,0,False
2022-10-03,0.43436149076992225,0.43436149076992225,0.0,0,False
2022-10-04,0.43436149076992225,0.43436149076992225,0.0,0,False
2022-10-05,0.43436149076992225,0.43436149076992225,0.0,0,False
2022-10-06,0.43436149076992225,0.43436149076992225,0.0,0,False
2022-10-07,0.43436149076992225,0.43436149076992225,0.0,0,False
2022-10-08,0.43436149076992225,0.4321974957544314,-0.49820139710247124,1,True
2022-10-09,0.4321974957544314,0.4321974957544314,0.0,0,False
2022-10-10,0.4321974957544314,0.4329570606913331,0.17574487227784985,1,True
2022-10-11,0.4329570606913331,0.4460414316690182,3.0220943750847606,6,True
2022-10-12,0.4460414316690182,0.4441935901824464,-0.4142757500480321,2,True
2022-10-13,0.4441935901824464,0.4454776116789988,0.289067993084946,1,True
2022-10-14,0.4454776116789988,0.4454776116789988,0.0,0,False
2022-10-15,0.4454776116789988,0.4454776116789988,0.0,0,False
2022-10-16,0.4454776116789988,0.4454776116789988,0.0,0,False
2022-10-17,0.4454776116789988,0.4454776116789988,0.0,0,False
2022-10-18,0.4454776116789988,0.4454776116789988,0.0,0,False
2022-10-19,0.4454776116789988,0.4454776116789988,0.0,0,False
2022-10-20,0.4454776116789988,0.44939776962070205,0.8799898892625002,2,True
2022-10-21,0.44939776962070205,0.44398985211913955,-1.2033699023755395,0,True
2022-10-22,0.44398985211913955,0.44398985211913955,0.0,0,False
2022-10-23,0.44398985211913955,0.44398985211913955,0.0,0,False
2022-10-24,0.44398985211913955,0.44398985211913955,0.0,0,False
2022-10-25,0.44398985211913955,0.4417747545012366,-0.4989072627066604,1,True
2022-10-26,0.4417747545012366,0.4417747545012366,0.0,0,False
2022-10-27,0.4417747545012366,0.4417747545012366,0.0,0,False
2022-10-28,0.4417747545012366,0.43957467425483127,-0.49800950008771494,1,True
2022-10-29,0.43957467425483127,0.43957467425483127,0.0,0,False
2022-10-30,0.43957467425483127,0.4304483386503583,-2.076174115340912,6,True
2022-10-31,0.4304483386503583,0.4326125187495246,0.502773481703267,3,True
2022-11-01,0.4326125187495246,0.4302372731947935,-0.5490468841717333,1,True
2022-11-02,0.4302372731947935,0.4357252395327496,1.2755673856903238,3,True
2022-11-03,0.4357252395327496,0.4466947581781831,2.517531152704544,7,True
2022-11-04,0.4466947581781831,0.44925724205118617,0.573654341379326,5,True
2022-11-05,0.44925724205118617,0.44277970950830414,-1.441831524697823,7,True
2022-11-06,0.44277970950830414,0.43995195278835936,-0.6386373763795361,2,True
2022-11-07,0.43995195278835936,0.4324046211510644,-1.7154899732711448,7,True
2022-11-08,0.4324046211510644,0.416731061901011,-3.624743696848176,12,True
2022-11-09,0.416731061901011,0.3912089703424225,-6.124355463728525,24,True
2022-11-10,0.3912089703424225,0.39212347114517104,0.2337627386069574,17,True
2022-11-11,0.39212347114517104,0.4011224507294447,2.2949352044632,15,True
2022-11-12,0.4011224507294447,0.3922351400895106,-2.2156103762759782,4,True
2022-11-13,0.3922351400895106,0.39260954048630453,0.09545304806410915,3,True
2022-11-14,0.39260954048630453,0.38209653266159155,-2.677726020537119,11,True
2022-11-15,0.38209653266159155,0.385681549981089,0.9382491106436186,3,True
2022-11-16,0.385681549981089,0.39110563216162325,1.4063628868946854,2,True
2022-11-17,0.39110563216162325,0.3890279546230049,-0.5312318125247018,3,True
2022-11-18,0.3890279546230049,0.39131323074869107,0.5874323679131876,0,True
2022-11-19,0.39131323074869107,0.39124803179979323,-0.016661575376097915,3,True
2022-11-20,0.39124803179979323,0.384260848009083,-1.7858706556473258,3,True
2022-11-21,0.384260848009083,0.36970876958114735,-3.7870312584100896,8,True
2022-11-22,0.36970876958114735,0.36609346035276746,-0.9778803008854142,5,True
2022-11-23,0.36609346035276746,0.3693477173935968,0.8889142782538384,1,True
2022-11-24,0.3693477173935968,0.36566750923824576,-0.9964074453529648,2,True
2022-11-25,0.36566750923824576,0.3686890198235242,0.8262999880883193,3,True
2022-11-26,0.3686890198235242,0.3697217657433606,0.2801130124056028,0,True
2022-11-27,0.3697217657433606,0.3697217657433606,0.0,0,False
2022-11-28,0.3697217657433606,0.36912761590876786,-0.1607018816969341,6,True
2022-11-29,0.36912761590876786,0.37053181402479396,0.3804099329087096,0,True
2022-11-30,0.37053181402479396,0.37053181402479396,0.0,0,False
2022-12-01,0.37053181402479396,0.37083827909063377,0.08270951487563405,1,True
2022-12-02,0.37083827909063377,0.37038308735775777,-0.12274669540378591,2,True
2022-12-03,0.37038308735775777,0.3703103524112552,-0.019637761276147803,0,True
2022-12-04,0.3703103524112552,0.37006987976186645,-0.06493813846222274,3,True
2022-12-05,0.37006987976186645,0.3743822371242838,1.16528190978209,2,True
2022-12-06,0.3743822371242838,0.37771347269674754,0.8897953060091002,2,True
2022-12-07,0.37771347269674754,0.37647063368988887,-0.3290428053797534,2,True
2022-12-08,0.37647063368988887,0.3725926370000284,-1.0300927463720466,2,True
2022-12-09,0.3725926370000284,0.3725926370000284,0.0,0,False
2022-12-10,0.3725926370000284,0.3725926370000284,0.0,0,False
2022-12-11,0.3725926370000284,0.3725926370000284,0.0,0,False
2022-12-12,0.3725926370000284,0.37222112437947374,-0.09971013478579094,1,True
2022-12-13,0.37222112437947374,0.3729144807576311,0.1862753972690978,1,True
2022-12-14,0.3729144807576311,0.3727674879058631,-0.03941730861976023,0,True
2022-12-15,0.3727674879058631,0.3727674879058631,0.0,0,False
2022-12-16,0.3727674879058631,0.3739546113266905,0.3184621672604582,5,True
2022-12-17,0.3739546113266905,0.3696025386672253,-1.1637970298120415,8,True
2022-12-18,0.3696025386672253,0.3707212907655587,0.3026905882106634,0,True
2022-12-19,0.3707212907655587,0.3688753637026136,-0.4979285271512701,1,True
2022-12-20,0.3688753637026136,0.3688753637026136,0.0,0,False
2022-12-21,0.3688753637026136,0.3688753637026136,0.0,0,False
2022-12-22,0.3688753637026136,0.3688753637026136,0.0,0,False
2022-12-23,0.3688753637026136,0.3688753637026136,0.0,0,False
2022-12-24,0.3688753637026136,0.3688753637026136,0.0,0,False
2022-12-25,0.3688753637026136,0.3688753637026136,0.0,0,False
2022-12-26,0.3688753637026136,0.3688753637026136,0.0,0,False
2022-12-27,0.3688753637026136,0.3688753637026136,0.0,0,False
2022-12-28,0.3688753637026136,0.3728523538804157,1.0781392766062714,4,True
2022-12-29,0.3728523538804157,0.36964125600444375,-0.8612250512978759,0,True
2022-12-30,0.36964125600444375,0.3730021291350207,0.909225654870216,1,True
2022-12-31,0.3730021291350207,0.3730021291350207,0.0,0,False
2023-01-01,0.3730021291350207,0.3730021291350207,0.0,0,False
2023-01-02,0.3730021291350207,0.372496866196419,-0.1354584596536701,1,True
2023-01-03,0.372496866196419,0.37482085757821,0.623895552604603,0,True
2023-01-04,0.37482085757821,0.37482085757821,0.0,0,False
2023-01-05,0.37482085757821,0.37482085757821,0.0,0,False
2023-01-06,0.37482085757821,0.37422387584727773,-0.15927121419802015,1,True
2023-01-07,0.37422387584727773,0.37547266473223856,0.33370101844343303,0,True
2023-01-08,0.37547266473223856,0.37547266473223856,0.0,0,False
2023-01-09,0.37547266473223856,0.37558121486825374,0.028910263305736983,1,True
2023-01-10,0.37558121486825374,0.3721793511798158,-0.9057598074044271,5,True
2023-01-11,0.3721793511798158,0.3675594006201544,-1.2413237179913605,3,True
2023-01-12,0.3675594006201544,0.3668177044095692,-0.20178948200857416,0,True
2023-01-13,0.3668177044095692,0.3668061239991619,-0.003156993315223122,1,True
2023-01-14,0.3668061239991619,0.3666201848039425,-0.05069140972679964,5,True
2023-01-15,0.3666201848039425,0.3668561974718828,0.06437525202451777,1,True
2023-01-16,0.3668561974718828,0.36705839822677155,0.05511717023787277,2,True
2023-01-17,0.36705839822677155,0.36607025149985306,-0.26920695227030667,0,True
2023-01-18,0.36607025149985306,0.36607025149985306,0.0,0,False
2023-01-19,0.36607025149985306,0.35942528073035873,-1.8152173639537028,8,True
2023-01-20,0.35942528073035873,0.3608049818952855,0.3838631389876612,0,True
2023-01-21,0.3608049818952855,0.35977343022300096,-0.2859028350622683,3,True
2023-01-22,0.35977343022300096,0.3610540507622502,0.35595194966329124,2,True
2023-01-23,0.3610540507622502,0.3586542798929543,-0.6646569576576056,2,True
2023-01-24,0.3586542798929543,0.3624424110338021,1.0562068691828852,4,True
2023-01-25,0.3624424110338021,0.36779162153310874,1.4758787427908926,11,True
2023-01-26,0.36779162153310874,0.3761408224768981,2.2700900333146423,4,True
2023-01-27,0.3761408224768981,0.3748044985599914,-0.35527223769731275,3,True
2023-01-28,0.3748044985599914,0.3791014760182346,1.1464583468854483,0,True
2023-01-29,0.3791014760182346,0.3772093406423243,-0.4991105272877494,1,True
2023-01-30,0.3772093406423243,0.3779931487138184,0.207791267883084,5,True
2023-01-31,0.3779931487138184,0.3863160807593821,2.201873783660857,6,True
2023-02-01,0.3863160807593821,0.3823829573886783,-1.018110186604837,2,True
2023-02-02,0.3823829573886783,0.3823829573886783,0.0,0,False
2023-02-03,0.3823829573886783,0.3840169125243476,0.4273085669998844,4,True
2023-02-04,0.3840169125243476,0.3870023967210348,0.7774356022660633,0,True
2023-02-05,0.3870023967210348,0.38921020061897604,0.5704884302131896,6,True
2023-02-06,0.38921020061897604,0.378442716649613,-2.7664958298212916,3,True
2023-02-07,0.378442716649613,0.3807497244644646,0.6096055527969435,0,True
2023-02-08,0.3807497244644646,0.37303701546986284,-2.02566371005255,5,True
2023-02-09,0.37303701546986284,0.3670244188444433,-1.6117962497223748,10,True
2023-02-10,0.3670244188444433,0.3554470545564786,-3.1543852925141613,10,True
2023-02-11,0.3554470545564786,0.3635556616786448,2.281241894741237,3,True
2023-02-12,0.3635556616786448,0.3660393877788993,0.6831762951473141,2,True
2023-02-13,0.3660393877788993,0.3717064838666714,1.5482202945862333,3,True
2023-02-14,0.3717064838666714,0.37142297644007366,-0.07627185397697245,1,True
2023-02-15,0.37142297644007366,0.37222832297219793,0.21682733250460995,0,True
2023-02-16,0.37222832297219793,0.37222832297219793,0.0,0,False
2023-02-17,0.37222832297219793,0.3755412384279198,0.8900224005708779,1,True
2023-02-18,0.3755412384279198,0.37610338433623053,0.14968952828295912,1,True
2023-02-19,0.37610338433623053,0.37723744675323156,0.3015294369133281,2,True
2023-02-20,0.37723744675323156,0.37575943386592575,-0.3917990910039859,6,True
2023-02-21,0.37575943386592575,0.370139563852619,-1.4956031723509566,8,True
2023-02-22,0.370139563852619,0.36144210305751795,-2.349778744150721,4,True
2023-02-23,0.36144210305751795,0.36477947598249666,0.9233492436955038,2,True
2023-02-24,0.36477947598249666,0.362567428477191,-0.6064067884706925,1,True
2023-02-25,0.362567428477191,0.3580924996213347,-1.234233553370001,3,True
2023-02-26,0.3580924996213347,0.35648092153732397,-0.4500451938297845,2,True
2023-02-27,0.35648092153732397,0.3554909682151585,-0.277701627872895,1,True
2023-02-28,0.3554909682151585,0.35224497573274927,-0.9131012522502813,3,True
2023-03-01,0.35224497573274927,0.3502783623302441,-0.558308432480592,1,True
2023-03-02,0.3502783623302441,0.3485379262107626,-0.4968722897706668,1,True
2023-03-03,0.3485379262107626,0.3490870478042327,0.1575500260301732,9,True
2023-03-04,0.3490870478042327,0.3504911540080973,0.4022223719546414,0,True
2023-03-05,0.3504911540080973,0.35809758061974356,2.170219283614361,4,True
2023-03-06,0.35809758061974356,0.35809758061974356,0.0,0,False
2023-03-07,0.35809758061974356,0.35809758061974356,0.0,0,False
2023-03-08,0.35809758061974356,0.35809758061974356,0.0,0,False
2023-03-09,0.35809758061974356,0.35809758061974356,0.0,0,False
2023-03-10,0.35809758061974356,0.34834365780268806,-2.723817011043417,12,True
2023-03-11,0.34834365780268806,0.34984123149545326,0.4299127195861008,7,True
2023-03-12,0.34984123149545326,0.35431713199211723,1.2794090843812223,0,True
2023-03-13,0.35431713199211723,0.35431713199211723,0.0,0,False
2023-03-14,0.35431713199211723,0.35753516918526074,0.9082364081720806,1,True
2023-03-15,0.35753516918526074,0.3561415861410288,-0.38977509468720584,7,True
2023-03-16,0.3561415861410288,0.3630463221686281,1.9387615196572616,6,True
2023-03-17,0.3630463221686281,0.3613981903344656,-0.4539728771572493,2,True
2023-03-18,0.3613981903344656,0.36370985295844227,0.6396442167674765,3,True
2023-03-19,0.36370985295844227,0.3685632928973989,1.3344263014813729,3,True
2023-03-20,0.3685632928973989,0.37342866738249064,1.3200919838878722,5,True
2023-03-21,0.37342866738249064,0.37329363529394266,-0.03616007562956547,2,True
2023-03-22,0.37329363529394266,0.3729968645848791,-0.07950060783380453,0,True
2023-03-23,0.3729968645848791,0.3853619449788128,3.315062824373949,8,True
2023-03-24,0.3853619449788128,0.38442359123540654,-0.2434993272254382,1,True
2023-03-25,0.38442359123540654,0.38251001052473704,-0.4977792087420774,1,True
2023-03-26,0.38251001052473704,0.38251001052473704,0.0,0,False
2023-03-27,0.38251001052473704,0.3806061396510066,-0.4977309930055629,1,True
2023-03-28,0.3806061396510066,0.39174844768402517,2.9275166299827404,4,True
2023-03-29,0.39174844768402517,0.3924024646002905,0.16694818323641503,1,True
2023-03-30,0.3924024646002905,0.3898293897573501,-0.655723415387155,3,True
2023-03-31,0.3898293897573501,0.3898293897573501,0.0,0,False
2023-04-01,0.3898293897573501,0.3894114048105676,-0.1072225331811727,1,True
2023-04-02,0.3894114048105676,0.38788288025868534,-0.39252177337378846,0,True
2023-04-03,0.38788288025868534,0.38788288025868534,0.0,0,False
2023-04-04,0.38788288025868534,0.38402756560696294,-0.9939378219402828,2,True
2023-04-05,0.38402756560696294,0.3822436853676554,-0.4645187999689715,2,True
2023-04-06,0.3822436853676554,0.37325156478302307,-2.352457588928747,5,True
2023-04-07,0.37325156478302307,0.370256963418497,-0.8023010878110748,1,True
2023-04-08,0.370256963418497,0.371422132313465,0.3146919599324338,1,True
2023-04-09,0.371422132313465,0.37154760671725284,0.03378215590070788,0,True
2023-04-10,0.37154760671725284,0.37154760671725284,0.0,0,False
2023-04-11,0.37154760671725284,0.37154760671725284,0.0,0,False
2023-04-12,0.37154760671725284,0.374795357864256,0.8741144037228921,1,True
2023-04-13,0.374795357864256,0.374795357864256,0.0,0,False
2023-04-14,0.374795357864256,0.37818177193414515,0.9035368231843588,2,True
2023-04-15,0.37818177193414515,0.37681469371760806,-0.36148707261732804,1,True
2023-04-16,0.37681469371760806,0.37593056423208204,-0.23463243346572016,1,True
2023-04-17,0.37593056423208204,0.37716222031350133,0.3276286098033099,3,True
2023-04-18,0.37716222031350133,0.37655988457344053,-0.15970203472662758,0,True
2023-04-19,0.37655988457344053,0.3694534282604135,-1.887204825622113,10,True
2023-04-20,0.3694534282604135,0.3620943973921612,-1.991869693266235,0,True
2023-04-21,0.3620943973921612,0.360288225492863,-0.49881244015550497,1,True
2023-04-22,0.360288225492863,0.35977988493734736,-0.14109274729148247,1,True
2023-04-23,0.35977988493734736,0.35983030850316877,0.014015115333698702,0,True
2023-04-24,0.35983030850316877,0.35983030850316877,0.0,0,False
2023-04-25,0.35983030850316877,0.35983030850316877,0.0,0,False
2023-04-26,0.35983030850316877,0.35983030850316877,0.0,0,False
2023-04-27,0.35983030850316877,0.35736722051082054,-0.6845137650005828,12,True
2023-04-28,0.35736722051082054,0.35736722051082054,0.0,0,False
2023-04-29,0.35736722051082054,0.355587596176893,-0.4979819725445811,1,True
2023-04-30,0.355587596176893,0.355587596176893,0.0,0,False
2023-05-01,0.355587596176893,0.355587596176893,0.0,0,False
2023-05-02,0.355587596176893,0.355587596176893,0.0,0,False
2023-05-03,0.355587596176893,0.355587596176893,0.0,0,False
2023-05-04,0.355587596176893,0.355587596176893,0.0,0,False
2023-05-05,0.355587596176893,0.355587596176893,0.0,0,False
2023-05-06,0.355587596176893,0.3520544503903902,-0.9936077142424282,2,True
2023-05-07,0.3520544503903902,0.3520544503903902,0.0,0,False
2023-05-08,0.3520544503903902,0.35786319997425353,1.6499577202964133,6,True
2023-05-09,0.35786319997425353,0.3515422981587423,-1.7662899722480585,6,True
2023-05-10,0.3515422981587423,0.3497369872167914,-0.5135401774996828,2,True
2023-05-11,0.3497369872167914,0.3564504150135988,1.919564713538846,5,True
2023-05-12,0.3564504150135988,0.35495201297471685,-0.4203675955391395,0,True
2023-05-13,0.35495201297471685,0.35317985658382517,-0.4992664715548156,1,True
2023-05-14,0.35317985658382517,0.35317985658382517,0.0,0,False
2023-05-15,0.35317985658382517,0.35317985658382517,0.0,0,False
2023-05-16,0.35317985658382517,0.35317985658382517,0.0,0,False
2023-05-17,0.35317985658382517,0.35317985658382517,0.0,0,False
2023-05-18,0.35317985658382517,0.3514182320076341,-0.49878965160430333,1,True
2023-05-19,0.3514182320076341,0.3514182320076341,0.0,0,False
2023-05-20,0.3514182320076341,0.3514182320076341,0.0,0,False
2023-05-21,0.3514182320076341,0.3514182320076341,0.0,0,False
2023-05-22,0.3514182320076341,0.349665034381046,-0.4988920513805395,1,True
2023-05-23,0.349665034381046,0.349665034381046,0.0,0,False
2023-05-24,0.349665034381046,0.3479230433504649,-0.4981885116607798,1,True
2023-05-25,0.3479230433504649,0.3487030344584584,0.22418495207510158,1,True
2023-05-26,0.3487030344584584,0.3503828175809531,0.4817231158035007,1,True
2023-05-27,0.3503828175809531,0.34864876884283175,-0.4949011912436907,2,True
2023-05-28,0.34864876884283175,0.34864876884283175,0.0,0,False
2023-05-29,0.34864876884283175,0.3503646476634707,0.49215111997498173,1,True
2023-05-30,0.3503646476634707,0.3574392064905445,2.019198818788648,4,True
2023-05-31,0.3574392064905445,0.3554951084256167,-0.5438961450299762,2,True
2023-06-01,0.3554951084256167,0.3590626260912419,1.0035349519785797,0,True
2023-06-02,0.3590626260912419,0.3636520425280336,1.2781660087411995,2,True
2023-06-03,0.3636520425280336,0.35584250220989516,-2.1475309924971597,3,True
2023-06-04,0.35584250220989516,0.35143805329874406,-1.237752343747045,4,True
2023-06-05,0.35143805329874406,0.35130528081412293,-0.03777976897346713,1,True
2023-06-06,0.35130528081412293,0.34142492798050805,-2.8124692036276655,12,True
2023-06-07,0.34142492798050805,0.33989814982115246,-0.4471782913996081,2,True
2023-06-08,0.33989814982115246,0.33480822830948104,-1.4974843241569946,3,True
2023-06-09,0.33480822830948104,0.3333775371783099,-0.427316598040306,1,True
2023-06-10,0.3333775371783099,0.3442361398597935,3.2571488689340677,8,True
2023-06-11,0.3442361398597935,0.347698353980829,1.0057671813440638,1,True
2023-06-12,0.347698353980829,0.3474064616751793,-0.08394986697745077,0,True
2023-06-13,0.3474064616751793,0.3461905427146567,-0.3499989478202181,2,True
2023-06-14,0.3461905427146567,0.34616239311137514,-0.008131245602738257,0,True
2023-06-15,0.34616239311137514,0.34840127391549075,0.6467718182764148,7,True
2023-06-16,0.34840127391549075,0.3516880176780519,0.9433788015822175,0,True
2023-06-17,0.3516880176780519,0.3525456079267,0.2438497206444845,1,True
2023-06-18,0.3525456079267,0.3532091259408718,0.18820770965604083,0,True
2023-06-19,0.3532091259408718,0.35646002684565026,0.9203898387729392,1,True
2023-06-20,0.35646002684565026,0.3546862651699077,-0.4976046518984867,1,True
2023-06-21,0.3546862651699077,0.3546862651699077,0.0,0,False
2023-06-22,0.3546862651699077,0.3539982909156826,-0.1939669848494252,6,True
2023-06-23,0.3539982909156826,0.3512239600483924,-0.7837130682506577,0,True
2023-06-24,0.3512239600483924,0.35129680411327213,0.020740061375557062,1,True
2023-06-25,0.35129680411327213,0.3471648126312578,-1.1762109514329655,7,True
2023-06-26,0.3471648126312578,0.34811935670326394,0.2749541535535638,0,True
2023-06-27,0.34811935670326394,0.34811935670326394,0.0,0,False
2023-06-28,0.34811935670326394,0.34811935670326394,0.0,0,False
2023-06-29,0.34811935670326394,0.34756509758429943,-0.159215254277556,2,True
2023-06-30,0.34756509758429943,0.34288977718686814,-1.3451639505596025,10,True
2023-07-01,0.34288977718686814,0.35221685853068474,2.720139812956135,1,True
2023-07-02,0.35221685853068474,0.3522050675300188,-0.0033476536912879773,0,True
2023-07-03,0.3522050675300188,0.3522050675300188,0.0,0,False
2023-07-04,0.3522050675300188,0.35158985793862246,-0.17467369101493713,1,True
2023-07-05,0.35158985793862246,0.34694484861719266,-1.3211442868868772,2,True
2023-07-06,0.34694484861719266,0.347534919846407,0.1700763771435687,4,True
2023-07-07,0.347534919846407,0.34495012023748917,-0.7437524868177836,0,True
2023-07-08,0.34495012023748917,0.34495012023748917,0.0,0,False
2023-07-09,0.34495012023748917,0.34495012023748917,0.0,0,False
2023-07-10,0.34495012023748917,0.34494827926013794,-0.0005336937844657719,1,True
2023-07-11,0.34494827926013794,0.34372820388946557,-0.3536980596886119,0,True
2023-07-12,0.34372820388946557,0.34275623406653155,-0.28277278731732025,1,True
2023-07-13,0.34275623406653155,0.3423440186855165,-0.12026488216551057,0,True
2023-07-14,0.3423440186855165,0.3406364770005445,-0.4987794708750548,1,True
2023-07-15,0.3406364770005445,0.34275734629059695,0.6226195470102391,7,True
2023-07-16,0.34275734629059695,0.3415410396344213,-0.35485939815407264,2,True
2023-07-17,0.3415410396344213,0.33932915126705243,-0.6476200838811064,3,True
2023-07-18,0.33932915126705243,0.33390465626044163,-1.5985938686245427,2,True
2023-07-19,0.33390465626044163,0.33224192101214545,-0.4979670744690856,1,True
2023-07-20,0.33224192101214545,0.33039201803401586,-0.5567939688327139,2,True
2023-07-21,0.33039201803401586,0.33016652743560765,-0.06824940861162032,0,True
2023-07-22,0.33016652743560765,0.33016652743560765,0.0,0,False
2023-07-23,0.33016652743560765,0.33016652743560765,0.0,0,False
2023-07-24,0.33016652743560765,0.32264719354159915,-2.27743676877572,7,True
2023-07-25,0.32264719354159915,0.3206317882161713,-0.6246467862637828,0,True
2023-07-26,0.3206317882161713,0.3206317882161713,0.0,0,False
2023-07-27,0.3206317882161713,0.3206317882161713,0.0,0,False
2023-07-28,0.3206317882161713,0.3206317882161713,0.0,0,False
2023-07-29,0.3206317882161713,0.3206317882161713,0.0,0,False
2023-07-30,0.3206317882161713,0.3206317882161713,0.0,0,False
2023-07-31,0.3206317882161713,0.31903616319770256,-0.49765028830920377,1,True
2023-08-01,0.31903616319770256,0.3231126966959114,1.2777653346096374,3,True
2023-08-02,0.3231126966959114,0.3231126966959114,0.0,0,False
2023-08-03,0.3231126966959114,0.3231126966959114,0.0,0,False
2023-08-04,0.3231126966959114,0.3231126966959114,0.0,0,False
2023-08-05,0.3231126966959114,0.3231126966959114,0.0,0,False
2023-08-06,0.3231126966959114,0.32366781715403536,0.1718039754551537,1,True
2023-08-07,0.32366781715403536,0.31981296382123253,-1.1909906170771034,3,True
2023-08-08,0.31981296382123253,0.3126838681509175,-2.2291453057856736,5,True
2023-08-09,0.3126838681509175,0.31099506929415516,-0.5400978524249367,0,True
2023-08-10,0.31099506929415516,0.3094463265601003,-0.4979959127872857,1,True
2023-08-11,0.3094463265601003,0.3094463265601003,0.0,0,False
2023-08-12,0.3094463265601003,0.3094463265601003,0.0,0,False
2023-08-13,0.3094463265601003,0.31505183031088146,1.8114623667030205,2,True
2023-08-14,0.31505183031088146,0.3132724512530467,-0.5647893097713297,8,True
2023-08-15,0.3132724512530467,0.313491818005603,0.07002427174136461,2,True
2023-08-16,0.313491818005603,0.317470166296937,1.2690437398474197,8,True
2023-08-17,0.317470166296937,0.31340440419296733,-1.2806753312898156,6,True
2023-08-18,0.31340440419296733,0.3251641420026397,3.752256717627911,10,True
2023-08-19,0.3251641420026397,0.33194835399845946,2.0863961056827307,3,True
2023-08-20,0.33194835399845946,0.3295463195064872,-0.7236169310793961,1,True
2023-08-21,0.3295463195064872,0.3283499024892799,-0.3630497281835843,1,True
2023-08-22,0.3283499024892799,0.3283211103549537,-0.008768735458097865,4,True
2023-08-23,0.3283211103549537,0.33198212655944553,1.115071827252856,1,True
2023-08-24,0.33198212655944553,0.33198212655944553,0.0,0,False
2023-08-25,0.33198212655944553,0.3332845951626379,0.3923309416355547,9,True
2023-08-26,0.3332845951626379,0.3333907429918585,0.03184900555297521,0,True
2023-08-27,0.3333907429918585,0.3333907429918585,0.0,0,False
2023-08-28,0.3333907429918585,0.3300782316062993,-0.9935822920074666,2,True
2023-08-29,0.3300782316062993,0.33229314709628444,0.6710274346800826,3,True
2023-08-30,0.33229314709628444,0.32918167232733303,-0.9363644108043689,3,True
2023-08-31,0.32918167232733303,0.3326169594586655,1.04358395989812,3,True
2023-09-01,0.3326169594586655,0.32935236987596833,-0.9814862080425146,3,True
2023-09-02,0.32935236987596833,0.3225420096602402,-2.0678036166227876,4,True
2023-09-03,0.3225420096602402,0.3191256570516204,-1.0591961686536755,3,True
2023-09-04,0.3191256570516204,0.31603296701944744,-0.9691135650909732,7,True
2023-09-05,0.31603296701944744,0.31445159518788246,-0.5003819210632088,2,True
2023-09-06,0.31445159518788246,0.316808100816837,0.7494017092031457,5,True
2023-09-07,0.316808100816837,0.3199796736675255,1.0011021948337584,3,True
2023-09-08,0.3199796736675255,0.3197350354797078,-0.07645429005340709,12,True
2023-09-09,0.3197350354797078,0.3194406136969765,-0.09208305317229826,6,True
2023-09-10,0.3194406136969765,0.3089934758202052,-3.2704475977126557,7,True
2023-09-11,0.3089934758202052,0.3054372230803704,-1.1509151545659457,1,True
2023-09-12,0.3054372230803704,0.3066746645082396,0.40513772859425146,2,True
2023-09-13,0.3066746645082396,0.3052144881180125,-0.4761320575889516,2,True
2023-09-14,0.3052144881180125,0.3045823101466812,-0.20712580691348847,4,True
2023-09-15,0.3045823101466812,0.30983767225870784,1.7254324814516497,1,True
2023-09-16,0.30983767225870784,0.3123426398403661,0.8084774079914592,8,True
2023-09-17,0.3123426398403661,0.31445708357054025,0.6769628800137095,5,True
2023-09-18,0.31445708357054025,0.30512127617672435,-2.9688653497041195,4,True
2023-09-19,0.30512127617672435,0.3079482029966513,0.9264928540380302,1,True
2023-09-20,0.3079482029966513,0.3103082685751654,0.766383942347515,3,True
2023-09-21,0.3103082685751654,0.31545955930715275,1.660055903647173,2,True
2023-09-22,0.31545955930715275,0.31615453606722727,0.22030613420018774,1,True
2023-09-23,0.31615453606722727,0.31457785118753784,-0.49870702451479954,1,True
2023-09-24,0.31457785118753784,0.3130119212467706,-0.4977877288104837,1,True
2023-09-25,0.3130119212467706,0.3129140318438145,-0.03127337852378842,1,True
2023-09-26,0.3129140318438145,0.31344493239668153,0.1696633895702071,1,True
2023-09-27,0.31344493239668153,0.30988499613402487,-1.1357453557907182,1,True
2023-09-28,0.30988499613402487,0.3113246642914442,0.4645814335575871,2,True
2023-09-29,0.3113246642914442,0.30938513706954657,-0.6229918295461268,2,True
2023-09-30,0.30938513706954657,0.30938513706954657,0.0,0,False
2023-10-01,0.30938513706954657,0.30907953698765644,-0.09877658790746757,1,True
2023-10-02,0.30907953698765644,0.3121847072833523,1.0046508824101963,1,True
2023-10-03,0.3121847072833523,0.31469517665605423,0.804161547357074,2,True
2023-10-04,0.31469517665605423,0.3078642699697313,-2.170642320898597,7,True
2023-10-05,0.3078642699697313,0.30463193249247145,-1.0499229019261258,2,True
2023-10-06,0.30463193249247145,0.30462130435341184,-0.0034888460223592155,0,True
2023-10-07,0.30462130435341184,0.3031050809954767,-0.49774041942125535,1,True
2023-10-08,0.3031050809954767,0.30232218286824614,-0.25829264381160844,1,True
2023-10-09,0.30232218286824614,0.29610396642690945,-2.0568177903262264,5,True
2023-10-10,0.29610396642690945,0.29263989677617414,-1.1698828936796413,1,True
2023-10-11,0.29263989677617414,0.29263989677617414,0.0,0,False
2023-10-12,0.29263989677617414,0.29263989677617414,0.0,0,False
2023-10-13,0.29263989677617414,0.29263989677617414,0.0,0,False
2023-10-14,0.29263989677617414,0.29263989677617414,0.0,0,False
2023-10-15,0.29263989677617414,0.29265976382838704,0.006788907606836148,1,True
2023-10-16,0.29265976382838704,0.29562640010231006,1.0136809498905386,2,True
2023-10-17,0.29562640010231006,0.2967631407743615,0.38451933645238245,2,True
2023-10-18,0.2967631407743615,0.2929961116946293,-1.2693722912834327,4,True
2023-10-19,0.2929961116946293,0.2872011328432483,-1.9778347288856746,5,True
2023-10-20,0.2872011328432483,0.2872011328432483,0.0,0,False
2023-10-21,0.2872011328432483,0.28751925765122255,0.11076725388401432,2,True
2023-10-22,0.28751925765122255,0.28976240308424256,0.7801722400595068,1,True
2023-10-23,0.28976240308424256,0.28976240308424256,0.0,0,False
2023-10-24,0.28976240308424256,0.2856907833022288,-1.40515806698015,8,True
2023-10-25,0.2856907833022288,0.2981508551479416,4.361383906645466,8,True
2023-10-26,0.2981508551479416,0.3021448052164067,1.3395735747540716,8,True
2023-10-27,0.3021448052164067,0.3020848976180264,-0.019827446094056178,6,True
2023-10-28,0.3020848976180264,0.3078109279953181,1.8955036886789456,2,True
2023-10-29,0.3078109279953181,0.3078109279953181,0.0,0,False
2023-10-30,0.3078109279953181,0.30662475572401166,-0.3853574267267401,2,True
2023-10-31,0.30662475572401166,0.30138768483615436,-1.7079739290754126,7,True
2023-11-01,0.30138768483615436,0.30313364813030114,0.5793081077934303,5,True
2023-11-02,0.30313364813030114,0.3044113340395792,0.4214926047169998,5,True
2023-11-03,0.3044113340395792,0.2994865109424483,-1.617818571923002,2,True
2023-11-04,0.2994865109424483,0.29690459112774936,-0.8621155612564935,4,True
2023-11-05,0.29690459112774936,0.29113447046107305,-1.9434258812769944,6,True
2023-11-06,0.29113447046107305,0.28781324504374756,-1.140787421037992,5,True
2023-11-07,0.28781324504374756,0.2867796846348517,-0.3591080072561481,5,True
2023-11-08,0.2867796846348517,0.2867796846348517,0.0,0,False
2023-11-09,0.2867796846348517,0.2878339893524416,0.36763577550211757,6,True
2023-11-10,0.2878339893524416,0.28514409098451377,-0.9345311768007125,7,True
2023-11-11,0.28514409098451377,0.28206312615027834,-1.0804940139554797,7,True
2023-11-12,0.28206312615027834,0.28215049249820834,0.030974040854747642,6,True
2023-11-13,0.28215049249820834,0.2838640466539062,0.6073192148366546,4,True
2023-11-14,0.2838640466539062,0.285548214672212,0.5933009263265898,8,True
2023-11-15,0.285548214672212,0.2813694590114211,-1.4634150893178544,3,True
2023-11-16,0.2813694590114211,0.27870898260549376,-0.9455455525538503,5,True
2023-11-17,0.27870898260549376,0.2821975747708504,1.2516970686569762,5,True
2023-11-18,0.2821975747708504,0.2721908051047936,-3.5460154730891924,6,True
2023-11-19,0.2721908051047936,0.2663378880172336,-2.1502993406800064,4,True
2023-11-20,0.2663378880172336,0.26743253327919037,0.4109987017265393,2,True
2023-11-21,0.26743253327919037,0.2613467760394474,-2.275623375032554,6,True
2023-11-22,0.2613467760394474,0.2593094283016824,-0.7795572490465585,6,True
2023-11-23,0.2593094283016824,0.25997875013546695,0.2581170450176806,3,True
2023-11-24,0.25997875013546695,0.26231039681496554,0.8968604850525752,1,True
2023-11-25,0.26231039681496554,0.25999961103362434,-0.8809356431919158,5,True
2023-11-26,0.25999961103362434,0.2591985142945098,-0.3081145913756522,1,True
2023-11-27,0.2591985142945098,0.2625129489231943,1.2787243930412862,6,True
2023-11-28,0.2625129489231943,0.2632778661634758,0.29138267023365305,5,True
2023-11-29,0.2632778661634758,0.267898354705791,1.7549855632171596,3,True
2023-11-30,0.267898354705791,0.2643217827407376,-1.335048126361671,3,True
2023-12-01,0.2643217827407376,0.26424023611198194,-0.030851270716358847,0,True
2023-12-02,0.26424023611198194,0.26424023611198194,0.0,0,False
2023-12-03,0.26424023611198194,0.2657802176671041,0.5827960108503394,4,True
2023-12-04,0.2657802176671041,0.2739014291961798,3.0556117382851022,7,True
2023-12-05,0.2739014291961798,0.27453456696866235,0.23115533728341742,6,True
2023-12-06,0.27453456696866235,0.2693774006694622,-1.8785125516776358,7,True
2023-12-07,0.2693774006694622,0.26649856696458185,-1.0686990436932775,5,True
2023-12-08,0.26649856696458185,0.26360894310562866,-1.0842924567535217,2,True
2023-12-09,0.26360894310562866,0.26360894310562866,0.0,0,False
2023-12-10,0.26360894310562866,0.26370867408683285,0.03783292783212655,3,True
2023-12-11,0.26370867408683285,0.2651101542426094,0.531450154466695,6,True
2023-12-12,0.2651101542426094,0.26955520207414135,1.676679584088725,1,True
2023-12-13,0.26955520207414135,0.2657614537413707,-1.4074105428420358,6,True
2023-12-14,0.2657614537413707,0.2702012564919394,1.6705969537964993,2,True
2023-12-15,0.2702012564919394,0.26682477403565363,-1.2496175999042625,4,True
2023-12-16,0.26682477403565363,0.27035276490723553,1.3222126334905049,5,True
2023-12-17,0.27035276490723553,0.26953734368765486,-0.3016137896205584,5,True
2023-12-18,0.26953734368765486,0.2696656157336183,0.04758971213727481,8,True
2023-12-19,0.2696656157336183,0.2693286318373474,-0.12496361293751201,4,True
2023-12-20,0.2693286318373474,0.2678281531819722,-0.5571181367309608,2,True
2023-12-21,0.2678281531819722,0.2626076167896398,-1.9492112126036854,3,True
2023-12-22,0.2626076167896398,0.26101541161157604,-0.6063057871391275,2,True
2023-12-23,0.26101541161157604,0.26153031006511507,0.19726745266108736,3,True
2023-12-24,0.26153031006511507,0.2712781461986569,3.7272299838266854,4,True
2023-12-25,0.2712781461986569,0.26779315127430736,-1.2846574533126986,6,True
2023-12-26,0.26779315127430736,0.26230922019134145,-2.047823499917878,3,True
2023-12-27,0.26230922019134145,0.26261082107595046,0.1149791396539479,12,True
2023-12-28,0.26261082107595046,0.2566996533215165,-2.2509231455943524,7,True
2023-12-29,0.2566996533215165,0.25750338154107916,0.3131006252493851,3,True
2023-12-30,0.25750338154107916,0.25553588185704973,-0.7640675133097408,4,True
2023-12-31,0.25553588185704973,0.25232341357783844,-1.2571495853597514,3,True
