day,start_equity,end_equity,return_pct,entries,active
2021-09-02,1.0,1.0,0.0,0,False
2021-09-03,1.0,1.0,0.0,0,False
2021-09-04,1.0,1.0,0.0,0,False
2021-09-05,1.0,1.0,0.0,0,False
2021-09-06,1.0,1.0,0.0,0,False
2021-09-07,1.0,1.0,0.0,0,False
2021-09-08,1.0,1.0,0.0,0,False
2021-09-09,1.0,1.0,0.0,0,False
2021-09-10,1.0,1.0,0.0,0,False
2021-09-11,1.0,1.0,0.0,0,False
2021-09-12,1.0,1.0,0.0,0,False
2021-09-13,1.0,1.0,0.0,0,False
2021-09-14,1.0,1.0,0.0,0,False
2021-09-15,1.0,1.0,0.0,0,False
2021-09-16,1.0,1.0,0.0,0,False
2021-09-17,1.0,1.0,0.0,0,False
2021-09-18,1.0,1.0,0.0,0,False
2021-09-19,1.0,1.0,0.0,0,False
2021-09-20,1.0,1.0,0.0,0,False
2021-09-21,1.0,1.0,0.0,0,False
2021-09-22,1.0,1.0,0.0,0,False
2021-09-23,1.0,1.0,0.0,0,False
2021-09-24,1.0,1.0,0.0,0,False
2021-09-25,1.0,1.0,0.0,0,False
2021-09-26,1.0,1.0,0.0,0,False
2021-09-27,1.0,1.0,0.0,0,False
2021-09-28,1.0,1.0,0.0,0,False
2021-09-29,1.0,1.0,0.0,0,False
2021-09-30,1.0,1.0,0.0,0,False
2021-10-01,1.0,1.0,0.0,0,False
2021-10-02,1.0,1.0,0.0,0,False
2021-10-03,1.0,1.0,0.0,0,False
2021-10-04,1.0,1.0,0.0,0,False
2021-10-05,1.0,1.0,0.0,0,False
2021-10-06,1.0,1.0,0.0,0,False
2021-10-07,1.0,1.0,0.0,0,False
2021-10-08,1.0,1.0,0.0,0,False
2021-10-09,1.0,1.0,0.0,0,False
2021-10-10,1.0,1.0,0.0,0,False
2021-10-11,1.0,1.0,0.0,0,False
2021-10-12,1.0,1.0,0.0,0,False
2021-10-13,1.0,1.0041608138854907,0.4160813885490722,1,True
2021-10-14,1.0041608138854907,1.007338994356227,0.3165011447159083,0,True
2021-10-15,1.007338994356227,1.007338994356227,0.0,0,False
2021-10-16,1.007338994356227,1.007338994356227,0.0,0,False
2021-10-17,1.007338994356227,1.007338994356227,0.0,0,False
2021-10-18,1.007338994356227,1.007338994356227,0.0,0,False
2021-10-19,1.007338994356227,1.007338994356227,0.0,0,False
2021-10-20,1.007338994356227,1.007338994356227,0.0,0,False
2021-10-21,1.007338994356227,1.007338994356227,0.0,0,False
2021-10-22,1.007338994356227,1.007338994356227,0.0,0,False
2021-10-23,1.007338994356227,1.007338994356227,0.0,0,False
2021-10-24,1.007338994356227,1.007338994356227,0.0,0,False
2021-10-25,1.007338994356227,1.0106508322010632,0.3287709364366176,1,True
2021-10-26,1.0106508322010632,1.0106508322010632,0.0,0,False
2021-10-27,1.0106508322010632,1.0184728118641302,0.7739547046166084,4,True
2021-10-28,1.0184728118641302,1.0141151834128959,-0.4278590847465513,0,True
2021-10-29,1.0141151834128959,1.0141151834128959,0.0,0,False
2021-10-30,1.0141151834128959,1.0141151834128959,0.0,0,False
2021-10-31,1.0141151834128959,1.0141151834128959,0.0,0,False
2021-11-01,1.0141151834128959,1.0141151834128959,0.0,0,False
2021-11-02,1.0141151834128959,1.0141151834128959,0.0,0,False
2021-11-03,1.0141151834128959,1.0141151834128959,0.0,0,False
2021-11-04,1.0141151834128959,1.0141151834128959,0.0,0,False
2021-11-05,1.0141151834128959,1.0141151834128959,0.0,0,False
2021-11-06,1.0141151834128959,1.0141151834128959,0.0,0,False
2021-11-07,1.0141151834128959,1.0141151834128959,0.0,0,False
2021-11-08,1.0141151834128959,1.0141151834128959,0.0,0,False
2021-11-09,1.0141151834128959,1.0141151834128959,0.0,0,False
2021-11-10,1.0141151834128959,1.0141151834128959,0.0,0,False
2021-11-11,1.0141151834128959,1.0099980166804376,-0.405986104911904,3,True
2021-11-12,1.0099980166804376,1.0099980166804376,0.0,0,False
2021-11-13,1.0099980166804376,1.0099980166804376,0.0,0,False
2021-11-14,1.0099980166804376,1.0099980166804376,0.0,0,False
2021-11-15,1.0099980166804376,1.0099980166804376,0.0,0,False
2021-11-16,1.0099980166804376,1.0351352773491793,2.4888425772716216,4,True
2021-11-17,1.0351352773491793,1.042448023543234,0.7064531906188609,0,True
2021-11-18,1.042448023543234,1.0391673392344831,-0.31470962912856226,1,True
2021-11-19,1.0391673392344831,1.0372363121980264,-0.18582445420958216,0,True
2021-11-20,1.0372363121980264,1.0372363121980264,0.0,0,False
2021-11-21,1.0372363121980264,1.0372363121980264,0.0,0,False
2021-11-22,1.0372363121980264,1.0372363121980264,0.0,0,False
2021-11-23,1.0372363121980264,1.0372363121980264,0.0,0,False
2021-11-24,1.0372363121980264,1.0372363121980264,0.0,0,False
2021-11-25,1.0372363121980264,1.0372363121980264,0.0,0,False
2021-11-26,1.0372363121980264,1.0397565360803358,0.24297489903422065,5,True
2021-11-27,1.0397565360803358,1.0383895028619599,-0.13147628035399261,0,True
2021-11-28,1.0383895028619599,1.0383895028619599,0.0,0,False
2021-11-29,1.0383895028619599,1.0383895028619599,0.0,0,False
2021-11-30,1.0383895028619599,1.0383895028619599,0.0,0,False
2021-12-01,1.0383895028619599,1.0362393696956105,-0.2070642240145193,1,True
2021-12-02,1.0362393696956105,1.036882811272887,0.06209391344256243,1,True
2021-12-03,1.036882811272887,1.0344209868589216,-0.23742552072429923,1,True
2021-12-04,1.0344209868589216,1.0138875789410222,-1.9850146293193704,4,True
2021-12-05,1.0138875789410222,1.0138875789410222,0.0,0,False
2021-12-06,1.0138875789410222,1.0138875789410222,0.0,0,False
2021-12-07,1.0138875789410222,1.0138875789410222,0.0,0,False
2021-12-08,1.0138875789410222,1.0138875789410222,0.0,0,False
2021-12-09,1.0138875789410222,1.0138875789410222,0.0,0,False
2021-12-10,1.0138875789410222,1.0138875789410222,0.0,0,False
2021-12-11,1.0138875789410222,1.0138875789410222,0.0,0,False
2021-12-12,1.0138875789410222,1.0138875789410222,0.0,0,False
2021-12-13,1.0138875789410222,1.0138875789410222,0.0,0,False
2021-12-14,1.0138875789410222,1.0138875789410222,0.0,0,False
2021-12-15,1.0138875789410222,1.0138875789410222,0.0,0,False
2021-12-16,1.0138875789410222,1.0138875789410222,0.0,0,False
2021-12-17,1.0138875789410222,1.0138875789410222,0.0,0,False
2021-12-18,1.0138875789410222,1.0138875789410222,0.0,0,False
2021-12-19,1.0138875789410222,1.0138875789410222,0.0,0,False
2021-12-20,1.0138875789410222,1.0138875789410222,0.0,0,False
2021-12-21,1.0138875789410222,1.0138875789410222,0.0,0,False
2021-12-22,1.0138875789410222,1.0138875789410222,0.0,0,False
2021-12-23,1.0138875789410222,1.0138875789410222,0.0,0,False
2021-12-24,1.0138875789410222,1.0138875789410222,0.0,0,False
2021-12-25,1.0138875789410222,1.0138875789410222,0.0,0,False
2021-12-26,1.0138875789410222,1.0138875789410222,0.0,0,False
2021-12-27,1.0138875789410222,1.0138875789410222,0.0,0,False
2021-12-28,1.0138875789410222,1.0138875789410222,0.0,0,False
2021-12-29,1.0138875789410222,1.0138875789410222,0.0,0,False
2021-12-30,1.0138875789410222,1.0138875789410222,0.0,0,False
2021-12-31,1.0138875789410222,1.0138875789410222,0.0,0,False
2022-01-01,1.0138875789410222,1.0138875789410222,0.0,0,False
2022-01-02,1.0138875789410222,1.0138875789410222,0.0,0,False
2022-01-03,1.0138875789410222,1.0138875789410222,0.0,0,False
2022-01-04,1.0138875789410222,1.0138875789410222,0.0,0,False
2022-01-05,1.0138875789410222,1.0138875789410222,0.0,0,False
2022-01-06,1.0138875789410222,1.0147495577328733,0.08501719616207382,1,True
2022-01-07,1.0147495577328733,1.0147495577328733,0.0,0,False
2022-01-08,1.0147495577328733,1.0147495577328733,0.0,0,False
2022-01-09,1.0147495577328733,1.0147495577328733,0.0,0,False
2022-01-10,1.0147495577328733,1.0147495577328733,0.0,0,False
2022-01-11,1.0147495577328733,1.0147495577328733,0.0,0,False
2022-01-12,1.0147495577328733,1.0147495577328733,0.0,0,False
2022-01-13,1.0147495577328733,1.0147495577328733,0.0,0,False
2022-01-14,1.0147495577328733,1.0147495577328733,0.0,0,False
2022-01-15,1.0147495577328733,1.0147495577328733,0.0,0,False
2022-01-16,1.0147495577328733,1.0147495577328733,0.0,0,False
2022-01-17,1.0147495577328733,1.0147495577328733,0.0,0,False
2022-01-18,1.0147495577328733,1.0147495577328733,0.0,0,False
2022-01-19,1.0147495577328733,1.0147495577328733,0.0,0,False
2022-01-20,1.0147495577328733,1.0147495577328733,0.0,0,False
2022-01-21,1.0147495577328733,1.0147495577328733,0.0,0,False
2022-01-22,1.0147495577328733,1.0147495577328733,0.0,0,False
2022-01-23,1.0147495577328733,1.0147495577328733,0.0,0,False
2022-01-24,1.0147495577328733,1.0147495577328733,0.0,0,False
2022-01-25,1.0147495577328733,1.0147495577328733,0.0,0,False
2022-01-26,1.0147495577328733,1.0147495577328733,0.0,0,False
2022-01-27,1.0147495577328733,1.0147495577328733,0.0,0,False
2022-01-28,1.0147495577328733,1.0147495577328733,0.0,0,False
2022-01-29,1.0147495577328733,1.0147495577328733,0.0,0,False
2022-01-30,1.0147495577328733,1.0147495577328733,0.0,0,False
2022-01-31,1.0147495577328733,1.0147495577328733,0.0,0,False
2022-02-01,1.0147495577328733,1.0147495577328733,0.0,0,False
2022-02-02,1.0147495577328733,1.0147495577328733,0.0,0,False
2022-02-03,1.0147495577328733,1.0147495577328733,0.0,0,False
2022-02-04,1.0147495577328733,1.0147495577328733,0.0,0,False
2022-02-05,1.0147495577328733,1.0147495577328733,0.0,0,False
2022-02-06,1.0147495577328733,1.0147495577328733,0.0,0,False
2022-02-07,1.0147495577328733,1.0147495577328733,0.0,0,False
2022-02-08,1.0147495577328733,1.0147495577328733,0.0,0,False
2022-02-09,1.0147495577328733,1.0147495577328733,0.0,0,False
2022-02-10,1.0147495577328733,1.0144602112051848,-0.028514082660457962,1,True
2022-02-11,1.0144602112051848,1.011910694093299,-0.25131760553299687,0,True
2022-02-12,1.011910694093299,1.011910694093299,0.0,0,False
2022-02-13,1.011910694093299,1.011910694093299,0.0,0,False
2022-02-14,1.011910694093299,1.011910694093299,0.0,0,False
2022-02-15,1.011910694093299,1.011910694093299,0.0,0,False
2022-02-16,1.011910694093299,1.011910694093299,0.0,0,False
2022-02-17,1.011910694093299,1.011910694093299,0.0,0,False
2022-02-18,1.011910694093299,1.011910694093299,0.0,0,False
2022-02-19,1.011910694093299,1.011910694093299,0.0,0,False
2022-02-20,1.011910694093299,1.011910694093299,0.0,0,False
2022-02-21,1.011910694093299,1.011910694093299,0.0,0,False
2022-02-22,1.011910694093299,1.011910694093299,0.0,0,False
2022-02-23,1.011910694093299,1.011910694093299,0.0,0,False
2022-02-24,1.011910694093299,1.011910694093299,0.0,0,False
2022-02-25,1.011910694093299,1.011910694093299,0.0,0,False
2022-02-26,1.011910694093299,1.011910694093299,0.0,0,False
2022-02-27,1.011910694093299,1.011910694093299,0.0,0,False
2022-02-28,1.011910694093299,1.011910694093299,0.0,0,False
2022-03-01,1.011910694093299,1.011910694093299,0.0,0,False
2022-03-02,1.011910694093299,1.011910694093299,0.0,0,False
2022-03-03,1.011910694093299,1.011910694093299,0.0,0,False
2022-03-04,1.011910694093299,1.011910694093299,0.0,0,False
2022-03-05,1.011910694093299,1.011910694093299,0.0,0,False
2022-03-06,1.011910694093299,1.011910694093299,0.0,0,False
2022-03-07,1.011910694093299,1.011910694093299,0.0,0,False
2022-03-08,1.011910694093299,1.011910694093299,0.0,0,False
2022-03-09,1.011910694093299,1.011910694093299,0.0,0,False
2022-03-10,1.011910694093299,1.011910694093299,0.0,0,False
2022-03-11,1.011910694093299,1.011910694093299,0.0,0,False
2022-03-12,1.011910694093299,1.011910694093299,0.0,0,False
2022-03-13,1.011910694093299,1.011910694093299,0.0,0,False
2022-03-14,1.011910694093299,1.011910694093299,0.0,0,False
2022-03-15,1.011910694093299,1.011910694093299,0.0,0,False
2022-03-16,1.011910694093299,1.011910694093299,0.0,0,False
2022-03-17,1.011910694093299,1.011910694093299,0.0,0,False
2022-03-18,1.011910694093299,1.011910694093299,0.0,0,False
2022-03-19,1.011910694093299,1.011910694093299,0.0,0,False
2022-03-20,1.011910694093299,1.011910694093299,0.0,0,False
2022-03-21,1.011910694093299,1.011910694093299,0.0,0,False
2022-03-22,1.011910694093299,1.011910694093299,0.0,0,False
2022-03-23,1.011910694093299,1.011910694093299,0.0,0,False
2022-03-24,1.011910694093299,1.011910694093299,0.0,0,False
2022-03-25,1.011910694093299,1.011910694093299,0.0,0,False
2022-03-26,1.011910694093299,1.011910694093299,0.0,0,False
2022-03-27,1.011910694093299,1.011910694093299,0.0,0,False
2022-03-28,1.011910694093299,1.011910694093299,0.0,0,False
2022-03-29,1.011910694093299,1.011910694093299,0.0,0,False
2022-03-30,1.011910694093299,1.010672592432397,-0.12235285861973422,1,True
2022-03-31,1.010672592432397,1.010672592432397,0.0,0,False
2022-04-01,1.010672592432397,1.010672592432397,0.0,0,False
2022-04-02,1.010672592432397,1.010672592432397,0.0,0,False
2022-04-03,1.010672592432397,1.010672592432397,0.0,0,False
2022-04-04,1.010672592432397,1.010672592432397,0.0,0,False
2022-04-05,1.010672592432397,1.010672592432397,0.0,0,False
2022-04-06,1.010672592432397,1.0116290440593165,0.09463516019738716,1,True
2022-04-07,1.0116290440593165,1.0116290440593165,0.0,0,False
2022-04-08,1.0116290440593165,1.0116290440593165,0.0,0,False
2022-04-09,1.0116290440593165,1.0116290440593165,0.0,0,False
2022-04-10,1.0116290440593165,1.0116290440593165,0.0,0,False
2022-04-11,1.0116290440593165,1.0116290440593165,0.0,0,False
2022-04-12,1.0116290440593165,1.0116290440593165,0.0,0,False
2022-04-13,1.0116290440593165,1.0116290440593165,0.0,0,False
2022-04-14,1.0116290440593165,1.0116290440593165,0.0,0,False
2022-04-15,1.0116290440593165,1.0116290440593165,0.0,0,False
2022-04-16,1.0116290440593165,1.0116290440593165,0.0,0,False
2022-04-17,1.0116290440593165,1.0116290440593165,0.0,0,False
2022-04-18,1.0116290440593165,1.0137410744586404,0.20877518411779317,1,True
2022-04-19,1.0137410744586404,1.012641936238669,-0.10842396028575285,0,True
2022-04-20,1.012641936238669,1.012641936238669,0.0,0,False
2022-04-21,1.012641936238669,1.012641936238669,0.0,0,False
2022-04-22,1.012641936238669,1.012641936238669,0.0,0,False
2022-04-23,1.012641936238669,1.012641936238669,0.0,0,False
2022-04-24,1.012641936238669,1.012641936238669,0.0,0,False
2022-04-25,1.012641936238669,1.012641936238669,0.0,0,False
2022-04-26,1.012641936238669,1.012641936238669,0.0,0,False
2022-04-27,1.012641936238669,1.012641936238669,0.0,0,False
2022-04-28,1.012641936238669,1.012641936238669,0.0,0,False
2022-04-29,1.012641936238669,1.012641936238669,0.0,0,False
2022-04-30,1.012641936238669,1.012641936238669,0.0,0,False
2022-05-01,1.012641936238669,1.0253013928082213,1.2501414484743067,4,True
2022-05-02,1.0253013928082213,1.0253013928082213,0.0,0,False
2022-05-03,1.0253013928082213,1.0253013928082213,0.0,0,False
2022-05-04,1.0253013928082213,1.0253013928082213,0.0,0,False
2022-05-05,1.0253013928082213,1.0253013928082213,0.0,0,False
2022-05-06,1.0253013928082213,1.0259033043028802,0.058705810689518856,1,True
2022-05-07,1.0259033043028802,1.0251465310901269,-0.07376652454273991,0,True
2022-05-08,1.0251465310901269,1.0251465310901269,0.0,0,False
2022-05-09,1.0251465310901269,1.0251465310901269,0.0,0,False
2022-05-10,1.0251465310901269,1.0251465310901269,0.0,0,False
2022-05-11,1.0251465310901269,1.0251465310901269,0.0,0,False
2022-05-12,1.0251465310901269,1.0251465310901269,0.0,0,False
2022-05-13,1.0251465310901269,1.0251465310901269,0.0,0,False
2022-05-14,1.0251465310901269,1.0251465310901269,0.0,0,False
2022-05-15,1.0251465310901269,1.0251465310901269,0.0,0,False
2022-05-16,1.0251465310901269,1.0251465310901269,0.0,0,False
2022-05-17,1.0251465310901269,1.0251465310901269,0.0,0,False
2022-05-18,1.0251465310901269,1.0251465310901269,0.0,0,False
2022-05-19,1.0251465310901269,1.0251465310901269,0.0,0,False
2022-05-20,1.0251465310901269,1.0281425675227767,0.29225445746412504,1,True
2022-05-21,1.0281425675227767,1.0281425675227767,0.0,0,False
2022-05-22,1.0281425675227767,1.0281425675227767,0.0,0,False
2022-05-23,1.0281425675227767,1.0281425675227767,0.0,0,False
2022-05-24,1.0281425675227767,1.0281425675227767,0.0,0,False
2022-05-25,1.0281425675227767,1.0230098920072699,-0.49921826774214084,1,True
2022-05-26,1.0230098920072699,1.0230098920072699,0.0,0,False
2022-05-27,1.0230098920072699,1.0230098920072699,0.0,0,False
2022-05-28,1.0230098920072699,1.0230098920072699,0.0,0,False
2022-05-29,1.0230098920072699,1.0230098920072699,0.0,0,False
2022-05-30,1.0230098920072699,1.0230098920072699,0.0,0,False
2022-05-31,1.0230098920072699,1.0230098920072699,0.0,0,False
2022-06-01,1.0230098920072699,1.0230098920072699,0.0,0,False
2022-06-02,1.0230098920072699,1.0230098920072699,0.0,0,False
2022-06-03,1.0230098920072699,1.0230098920072699,0.0,0,False
2022-06-04,1.0230098920072699,1.0230098920072699,0.0,0,False
2022-06-05,1.0230098920072699,1.0230098920072699,0.0,0,False
2022-06-06,1.0230098920072699,1.0230098920072699,0.0,0,False
2022-06-07,1.0230098920072699,1.0230098920072699,0.0,0,False
2022-06-08,1.0230098920072699,1.0230098920072699,0.0,0,False
2022-06-09,1.0230098920072699,1.0230098920072699,0.0,0,False
2022-06-10,1.0230098920072699,1.0230098920072699,0.0,0,False
2022-06-11,1.0230098920072699,1.0230098920072699,0.0,0,False
2022-06-12,1.0230098920072699,1.0230098920072699,0.0,0,False
2022-06-13,1.0230098920072699,1.0230098920072699,0.0,0,False
2022-06-14,1.0230098920072699,1.0230098920072699,0.0,0,False
2022-06-15,1.0230098920072699,1.0230098920072699,0.0,0,False
2022-06-16,1.0230098920072699,1.0230098920072699,0.0,0,False
2022-06-17,1.0230098920072699,1.0230098920072699,0.0,0,False
2022-06-18,1.0230098920072699,1.015438257998853,-0.7401330199809153,4,True
2022-06-19,1.015438257998853,1.0153000089344528,-0.01361471889710364,0,True
2022-06-20,1.0153000089344528,1.0153000089344528,0.0,0,False
2022-06-21,1.0153000089344528,1.0153000089344528,0.0,0,False
2022-06-22,1.0153000089344528,1.0153000089344528,0.0,0,False
2022-06-23,1.0153000089344528,1.0153000089344528,0.0,0,False
2022-06-24,1.0153000089344528,1.0153000089344528,0.0,0,False
2022-06-25,1.0153000089344528,1.0153000089344528,0.0,0,False
2022-06-26,1.0153000089344528,1.0153000089344528,0.0,0,False
2022-06-27,1.0153000089344528,1.0153000089344528,0.0,0,False
2022-06-28,1.0153000089344528,1.0164615710528158,0.11440580204289397,1,True
2022-06-29,1.0164615710528158,1.0207448084821555,0.4213870500685335,0,True
2022-06-30,1.0207448084821555,1.0207448084821555,0.0,0,False
2022-07-01,1.0207448084821555,1.0207448084821555,0.0,0,False
2022-07-02,1.0207448084821555,1.0207448084821555,0.0,0,False
2022-07-03,1.0207448084821555,1.0207448084821555,0.0,0,False
2022-07-04,1.0207448084821555,1.0207448084821555,0.0,0,False
2022-07-05,1.0207448084821555,1.0207448084821555,0.0,0,False
2022-07-06,1.0207448084821555,1.0207448084821555,0.0,0,False
2022-07-07,1.0207448084821555,1.0207448084821555,0.0,0,False
2022-07-08,1.0207448084821555,1.0207448084821555,0.0,0,False
2022-07-09,1.0207448084821555,1.0207448084821555,0.0,0,False
2022-07-10,1.0207448084821555,1.0207448084821555,0.0,0,False
2022-07-11,1.0207448084821555,1.0207448084821555,0.0,0,False
2022-07-12,1.0207448084821555,1.0207448084821555,0.0,0,False
2022-07-13,1.0207448084821555,1.02900340160741,0.8090752024039194,4,True
2022-07-14,1.02900340160741,1.047365834607033,1.7844871038267485,0,True
2022-07-15,1.047365834607033,1.047365834607033,0.0,0,False
2022-07-16,1.047365834607033,1.047365834607033,0.0,0,False
2022-07-17,1.047365834607033,1.047365834607033,0.0,0,False
2022-07-18,1.047365834607033,1.047365834607033,0.0,0,False
2022-07-19,1.047365834607033,1.047365834607033,0.0,0,False
2022-07-20,1.047365834607033,1.047365834607033,0.0,0,False
2022-07-21,1.047365834607033,1.0448515416046738,-0.2400587186713543,3,True
2022-07-22,1.0448515416046738,1.0448515416046738,0.0,0,False
2022-07-23,1.0448515416046738,1.0448515416046738,0.0,0,False
2022-07-24,1.0448515416046738,1.0448515416046738,0.0,0,False
2022-07-25,1.0448515416046738,1.0455778662798836,0.06951462923567853,1,True
2022-07-26,1.0455778662798836,1.0455778662798836,0.0,0,False
2022-07-27,1.0455778662798836,1.0455778662798836,0.0,0,False
2022-07-28,1.0455778662798836,1.0455778662798836,0.0,0,False
2022-07-29,1.0455778662798836,1.0455778662798836,0.0,0,False
2022-07-30,1.0455778662798836,1.0455778662798836,0.0,0,False
2022-07-31,1.0455778662798836,1.0455778662798836,0.0,0,False
2022-08-01,1.0455778662798836,1.0455778662798836,0.0,0,False
2022-08-02,1.0455778662798836,1.0455778662798836,0.0,0,False
2022-08-03,1.0455778662798836,1.0455778662798836,0.0,0,False
2022-08-04,1.0455778662798836,1.0455778662798836,0.0,0,False
2022-08-05,1.0455778662798836,1.0455778662798836,0.0,0,False
2022-08-06,1.0455778662798836,1.0455778662798836,0.0,0,False
2022-08-07,1.0455778662798836,1.0455778662798836,0.0,0,False
2022-08-08,1.0455778662798836,1.0455778662798836,0.0,0,False
2022-08-09,1.0455778662798836,1.0470257232836127,0.13847433562079736,1,True
2022-08-10,1.0470257232836127,1.0470257232836127,0.0,0,False
2022-08-11,1.0470257232836127,1.0470257232836127,0.0,0,False
2022-08-12,1.0470257232836127,1.047182774154051,0.014999714615004933,1,True
2022-08-13,1.047182774154051,1.047182774154051,0.0,0,False
2022-08-14,1.047182774154051,1.047182774154051,0.0,0,False
2022-08-15,1.047182774154051,1.047182774154051,0.0,0,False
2022-08-16,1.047182774154051,1.047182774154051,0.0,0,False
2022-08-17,1.047182774154051,1.047182774154051,0.0,0,False
2022-08-18,1.047182774154051,1.047182774154051,0.0,0,False
2022-08-19,1.047182774154051,1.024645402724486,-2.1521908100304077,7,True
2022-08-20,1.024645402724486,1.0260807530947347,0.14008264385241276,0,True
2022-08-21,1.0260807530947347,1.0260807530947347,0.0,0,False
2022-08-22,1.0260807530947347,1.0260807530947347,0.0,0,False
2022-08-23,1.0260807530947347,1.0260807530947347,0.0,0,False
2022-08-24,1.0260807530947347,1.0260807530947347,0.0,0,False
2022-08-25,1.0260807530947347,1.0260807530947347,0.0,0,False
2022-08-26,1.0260807530947347,1.0260807530947347,0.0,0,False
2022-08-27,1.0260807530947347,1.0260807530947347,0.0,0,False
2022-08-28,1.0260807530947347,1.0260807530947347,0.0,0,False
2022-08-29,1.0260807530947347,1.0260807530947347,0.0,0,False
2022-08-30,1.0260807530947347,1.0260807530947347,0.0,0,False
2022-08-31,1.0260807530947347,1.0260807530947347,0.0,0,False
2022-09-01,1.0260807530947347,1.0260807530947347,0.0,0,False
2022-09-02,1.0260807530947347,1.0260807530947347,0.0,0,False
2022-09-03,1.0260807530947347,1.0260807530947347,0.0,0,False
2022-09-04,1.0260807530947347,1.0260807530947347,0.0,0,False
2022-09-05,1.0260807530947347,1.0260807530947347,0.0,0,False
2022-09-06,1.0260807530947347,1.0260807530947347,0.0,0,False
2022-09-07,1.0260807530947347,1.012581884934525,-1.3155756132737229,4,True
2022-09-08,1.012581884934525,1.012581884934525,0.0,0,False
2022-09-09,1.012581884934525,1.012581884934525,0.0,0,False
2022-09-10,1.012581884934525,1.012581884934525,0.0,0,False
2022-09-11,1.012581884934525,1.012581884934525,0.0,0,False
2022-09-12,1.012581884934525,1.012581884934525,0.0,0,False
2022-09-13,1.012581884934525,1.0058960012232718,-0.6602807941488487,4,True
2022-09-14,1.0058960012232718,1.001176374203253,-0.4691963199256577,0,True
2022-09-15,1.001176374203253,1.0048425095152365,0.3661827632420067,1,True
2022-09-16,1.0048425095152365,1.0048425095152365,0.0,0,False
2022-09-17,1.0048425095152365,1.0048425095152365,0.0,0,False
2022-09-18,1.0048425095152365,1.0048425095152365,0.0,0,False
2022-09-19,1.0048425095152365,1.0013200606819181,-0.3505473544324511,5,True
2022-09-20,1.0013200606819181,1.0013200606819181,0.0,0,False
2022-09-21,1.0013200606819181,1.0013200606819181,0.0,0,False
2022-09-22,1.0013200606819181,1.0013200606819181,0.0,0,False
2022-09-23,1.0013200606819181,1.0013200606819181,0.0,0,False
2022-09-24,1.0013200606819181,1.0013200606819181,0.0,0,False
2022-09-25,1.0013200606819181,1.0013200606819181,0.0,0,False
2022-09-26,1.0013200606819181,1.0013200606819181,0.0,0,False
2022-09-27,1.0013200606819181,1.0013200606819181,0.0,0,False
2022-09-28,1.0013200606819181,1.0013200606819181,0.0,0,False
2022-09-29,1.0013200606819181,1.0013200606819181,0.0,0,False
2022-09-30,1.0013200606819181,1.0013200606819181,0.0,0,False
2022-10-01,1.0013200606819181,1.0013200606819181,0.0,0,False
2022-10-02,1.0013200606819181,1.0013200606819181,0.0,0,False
2022-10-03,1.0013200606819181,1.0013200606819181,0.0,0,False
2022-10-04,1.0013200606819181,1.0013200606819181,0.0,0,False
2022-10-05,1.0013200606819181,1.0013200606819181,0.0,0,False
2022-10-06,1.0013200606819181,1.0013200606819181,0.0,0,False
2022-10-07,1.0013200606819181,1.0013200606819181,0.0,0,False
2022-10-08,1.0013200606819181,1.0013200606819181,0.0,0,False
2022-10-09,1.0013200606819181,1.0013200606819181,0.0,0,False
2022-10-10,1.0013200606819181,1.0013200606819181,0.0,0,False
2022-10-11,1.0013200606819181,1.019693080292706,1.8348798083876794,4,True
2022-10-12,1.019693080292706,1.019693080292706,0.0,0,False
2022-10-13,1.019693080292706,1.019693080292706,0.0,0,False
2022-10-14,1.019693080292706,1.019693080292706,0.0,0,False
2022-10-15,1.019693080292706,1.019693080292706,0.0,0,False
2022-10-16,1.019693080292706,1.019693080292706,0.0,0,False
2022-10-17,1.019693080292706,1.019693080292706,0.0,0,False
2022-10-18,1.019693080292706,1.019693080292706,0.0,0,False
2022-10-19,1.019693080292706,1.019693080292706,0.0,0,False
2022-10-20,1.019693080292706,1.0227187721814457,0.2967257449536742,1,True
2022-10-21,1.0227187721814457,1.0227187721814457,0.0,0,False
2022-10-22,1.0227187721814457,1.0227187721814457,0.0,0,False
2022-10-23,1.0227187721814457,1.0227187721814457,0.0,0,False
2022-10-24,1.0227187721814457,1.0227187721814457,0.0,0,False
2022-10-25,1.0227187721814457,1.0227187721814457,0.0,0,False
2022-10-26,1.0227187721814457,1.0227187721814457,0.0,0,False
2022-10-27,1.0227187721814457,1.0227187721814457,0.0,0,False
2022-10-28,1.0227187721814457,1.0227187721814457,0.0,0,False
2022-10-29,1.0227187721814457,1.0227187721814457,0.0,0,False
2022-10-30,1.0227187721814457,1.0227187721814457,0.0,0,False
2022-10-31,1.0227187721814457,1.0227187721814457,0.0,0,False
2022-11-01,1.0227187721814457,1.0227187721814457,0.0,0,False
2022-11-02,1.0227187721814457,1.026089419557068,0.3295771493890598,1,True
2022-11-03,1.026089419557068,1.026089419557068,0.0,0,False
2022-11-04,1.026089419557068,1.0209668891424897,-0.4992284606920139,1,True
2022-11-05,1.0209668891424897,1.0209668891424897,0.0,0,False
2022-11-06,1.0209668891424897,1.0209668891424897,0.0,0,False
2022-11-07,1.0209668891424897,1.0209668891424897,0.0,0,False
2022-11-08,1.0209668891424897,1.017674065921335,-0.322520079365185,2,True
2022-11-09,1.017674065921335,1.0200730404652014,0.2357311269099327,0,True
2022-11-10,1.0200730404652014,1.0200730404652014,0.0,0,False
2022-11-11,1.0200730404652014,1.0167689807346243,-0.3239042303353368,2,True
2022-11-12,1.0167689807346243,1.0184836435331786,0.16863838600931214,0,True
2022-11-13,1.0184836435331786,1.0133951300412747,-0.4996166137976932,1,True
2022-11-14,1.0133951300412747,1.0133951300412747,0.0,0,False
2022-11-15,1.0133951300412747,1.0133951300412747,0.0,0,False
2022-11-16,1.0133951300412747,1.0133951300412747,0.0,0,False
2022-11-17,1.0133951300412747,1.0133951300412747,0.0,0,False
2022-11-18,1.0133951300412747,1.0133951300412747,0.0,0,False
2022-11-19,1.0133951300412747,1.0133637752482723,-0.003094034308326332,2,True
2022-11-20,1.0133637752482723,1.0082804057910946,-0.5016332319489392,0,True
2022-11-21,1.0082804057910946,1.0082804057910946,0.0,0,False
2022-11-22,1.0082804057910946,1.0082804057910946,0.0,0,False
2022-11-23,1.0082804057910946,1.0082804057910946,0.0,0,False
2022-11-24,1.0082804057910946,1.0082804057910946,0.0,0,False
2022-11-25,1.0082804057910946,1.0082804057910946,0.0,0,False
2022-11-26,1.0082804057910946,1.0082804057910946,0.0,0,False
2022-11-27,1.0082804057910946,1.0082804057910946,0.0,0,False
2022-11-28,1.0082804057910946,1.0054688727802288,-0.2788443566608678,2,True
2022-11-29,1.0054688727802288,1.0054688727802288,0.0,0,False
2022-11-30,1.0054688727802288,1.0054688727802288,0.0,0,False
2022-12-01,1.0054688727802288,1.005300433356707,-0.016752326012436924,1,True
2022-12-02,1.005300433356707,1.005300433356707,0.0,0,False
2022-12-03,1.005300433356707,1.005300433356707,0.0,0,False
2022-12-04,1.005300433356707,1.005300433356707,0.0,0,False
2022-12-05,1.005300433356707,1.005300433356707,0.0,0,False
2022-12-06,1.005300433356707,1.005300433356707,0.0,0,False
2022-12-07,1.005300433356707,1.005300433356707,0.0,0,False
2022-12-08,1.005300433356707,1.0002809046014924,-0.4993063355652194,1,True
2022-12-09,1.0002809046014924,1.0002809046014924,0.0,0,False
2022-12-10,1.0002809046014924,1.0002809046014924,0.0,0,False
2022-12-11,1.0002809046014924,1.0002809046014924,0.0,0,False
2022-12-12,1.0002809046014924,1.0002809046014924,0.0,0,False
2022-12-13,1.0002809046014924,1.0002809046014924,0.0,0,False
2022-12-14,1.0002809046014924,1.0002809046014924,0.0,0,False
2022-12-15,1.0002809046014924,1.0002809046014924,0.0,0,False
2022-12-16,1.0002809046014924,1.0002809046014924,0.0,0,False
2022-12-17,1.0002809046014924,1.0023668523552287,0.20853619659642053,4,True
2022-12-18,1.0023668523552287,1.0023668523552287,0.0,0,False
2022-12-19,1.0023668523552287,1.0023668523552287,0.0,0,False
2022-12-20,1.0023668523552287,1.0023668523552287,0.0,0,False
2022-12-21,1.0023668523552287,1.0023668523552287,0.0,0,False
2022-12-22,1.0023668523552287,1.0023668523552287,0.0,0,False
2022-12-23,1.0023668523552287,1.0023668523552287,0.0,0,False
2022-12-24,1.0023668523552287,1.0023668523552287,0.0,0,False
2022-12-25,1.0023668523552287,1.0023668523552287,0.0,0,False
2022-12-26,1.0023668523552287,1.0023668523552287,0.0,0,False
2022-12-27,1.0023668523552287,1.0023668523552287,0.0,0,False
2022-12-28,1.0023668523552287,1.0041700035927685,0.17988935221699975,1,True
2022-12-29,1.0041700035927685,1.0034230142070644,-0.07438873726874906,0,True
2022-12-30,1.0034230142070644,1.0034230142070644,0.0,0,False
2022-12-31,1.0034230142070644,1.0034230142070644,0.0,0,False
2023-01-01,1.0034230142070644,1.0034230142070644,0.0,0,False
2023-01-02,1.0034230142070644,1.0034230142070644,0.0,0,False
2023-01-03,1.0034230142070644,1.0034230142070644,0.0,0,False
2023-01-04,1.0034230142070644,1.0034230142070644,0.0,0,False
2023-01-05,1.0034230142070644,1.0034230142070644,0.0,0,False
2023-01-06,1.0034230142070644,1.0034230142070644,0.0,0,False
2023-01-07,1.0034230142070644,1.0034230142070644,0.0,0,False
2023-01-08,1.0034230142070644,1.0034230142070644,0.0,0,False
2023-01-09,1.0034230142070644,1.0034230142070644,0.0,0,False
2023-01-10,1.0034230142070644,1.0016625303442477,-0.175447825881081,2,True
2023-01-11,1.0016625303442477,1.0021816159112515,0.051822400387235845,0,True
2023-01-12,1.0021816159112515,1.0021816159112515,0.0,0,False
2023-01-13,1.0021816159112515,1.0021816159112515,0.0,0,False
2023-01-14,1.0021816159112515,1.0021816159112515,0.0,0,False
2023-01-15,1.0021816159112515,1.0021816159112515,0.0,0,False
2023-01-16,1.0021816159112515,1.0021816159112515,0.0,0,False
2023-01-17,1.0021816159112515,1.0021816159112515,0.0,0,False
2023-01-18,1.0021816159112515,1.0021816159112515,0.0,0,False
2023-01-19,1.0021816159112515,1.0021816159112515,0.0,0,False
2023-01-20,1.0021816159112515,1.0021816159112515,0.0,0,False
2023-01-21,1.0021816159112515,1.0021816159112515,0.0,0,False
2023-01-22,1.0021816159112515,1.0021816159112515,0.0,0,False
2023-01-23,1.0021816159112515,1.0021816159112515,0.0,0,False
2023-01-24,1.0021816159112515,1.0021816159112515,0.0,0,False
2023-01-25,1.0021816159112515,1.0102695747352957,0.807035241480647,4,True
2023-01-26,1.0102695747352957,1.0102695747352957,0.0,0,False
2023-01-27,1.0102695747352957,1.0102695747352957,0.0,0,False
2023-01-28,1.0102695747352957,1.0102695747352957,0.0,0,False
2023-01-29,1.0102695747352957,1.0102695747352957,0.0,0,False
2023-01-30,1.0102695747352957,1.0111785216482847,0.08997073016152601,1,True
2023-01-31,1.0111785216482847,1.0085823885002314,-0.25674330422104097,1,True
2023-02-01,1.0085823885002314,1.0085823885002314,0.0,0,False
2023-02-02,1.0085823885002314,1.0085823885002314,0.0,0,False
2023-02-03,1.0085823885002314,1.0085823885002314,0.0,0,False
2023-02-04,1.0085823885002314,1.0085823885002314,0.0,0,False
2023-02-05,1.0085823885002314,1.010342896664092,0.17455273698347984,4,True
2023-02-06,1.010342896664092,1.0211729730357257,1.0719208703690697,0,True
2023-02-07,1.0211729730357257,1.0211729730357257,0.0,0,False
2023-02-08,1.0211729730357257,1.0211729730357257,0.0,0,False
2023-02-09,1.0211729730357257,1.0211729730357257,0.0,0,False
2023-02-10,1.0211729730357257,1.0211729730357257,0.0,0,False
2023-02-11,1.0211729730357257,1.0211729730357257,0.0,0,False
2023-02-12,1.0211729730357257,1.0211729730357257,0.0,0,False
2023-02-13,1.0211729730357257,1.0211729730357257,0.0,0,False
2023-02-14,1.0211729730357257,1.0211729730357257,0.0,0,False
2023-02-15,1.0211729730357257,1.0211729730357257,0.0,0,False
2023-02-16,1.0211729730357257,1.0211729730357257,0.0,0,False
2023-02-17,1.0211729730357257,1.0211729730357257,0.0,0,False
2023-02-18,1.0211729730357257,1.0211729730357257,0.0,0,False
2023-02-19,1.0211729730357257,1.0211729730357257,0.0,0,False
2023-02-20,1.0211729730357257,1.0211729730357257,0.0,0,False
2023-02-21,1.0211729730357257,1.0211729730357257,0.0,0,False
2023-02-22,1.0211729730357257,1.0211729730357257,0.0,0,False
2023-02-23,1.0211729730357257,1.0295789562357225,0.8231693769771065,1,True
2023-02-24,1.0295789562357225,1.0295789562357225,0.0,0,False
2023-02-25,1.0295789562357225,1.0295789562357225,0.0,0,False
2023-02-26,1.0295789562357225,1.0295789562357225,0.0,0,False
2023-02-27,1.0295789562357225,1.0295789562357225,0.0,0,False
2023-02-28,1.0295789562357225,1.0295789562357225,0.0,0,False
2023-03-01,1.0295789562357225,1.0295789562357225,0.0,0,False
2023-03-02,1.0295789562357225,1.0295789562357225,0.0,0,False
2023-03-03,1.0295789562357225,1.0302441788506513,0.06461113165725507,1,True
2023-03-04,1.0302441788506513,1.0302441788506513,0.0,0,False
2023-03-05,1.0302441788506513,1.0302441788506513,0.0,0,False
2023-03-06,1.0302441788506513,1.0302441788506513,0.0,0,False
2023-03-07,1.0302441788506513,1.0302441788506513,0.0,0,False
2023-03-08,1.0302441788506513,1.0302441788506513,0.0,0,False
2023-03-09,1.0302441788506513,1.0302441788506513,0.0,0,False
2023-03-10,1.0302441788506513,1.0302441788506513,0.0,0,False
2023-03-11,1.0302441788506513,1.0302441788506513,0.0,0,False
2023-03-12,1.0302441788506513,1.0302441788506513,0.0,0,False
2023-03-13,1.0302441788506513,1.0302441788506513,0.0,0,False
2023-03-14,1.0302441788506513,1.0302441788506513,0.0,0,False
2023-03-15,1.0302441788506513,1.0302441788506513,0.0,0,False
2023-03-16,1.0302441788506513,1.0302441788506513,0.0,0,False
2023-03-17,1.0302441788506513,1.0302441788506513,0.0,0,False
2023-03-18,1.0302441788506513,1.0302441788506513,0.0,0,False
2023-03-19,1.0302441788506513,1.0302441788506513,0.0,0,False
2023-03-20,1.0302441788506513,1.0302441788506513,0.0,0,False
2023-03-21,1.0302441788506513,1.0302441788506513,0.0,0,False
2023-03-22,1.0302441788506513,1.0302441788506513,0.0,0,False
2023-03-23,1.0302441788506513,1.0372727318206048,0.6822220512611388,3,True
2023-03-24,1.0372727318206048,1.0382035930193763,0.08974121947056268,0,True
2023-03-25,1.0382035930193763,1.0339613985235039,-0.40860911331802585,1,True
2023-03-26,1.0339613985235039,1.0342407927903998,0.02702173091713167,0,True
2023-03-27,1.0342407927903998,1.0342407927903998,0.0,0,False
2023-03-28,1.0342407927903998,1.0342407927903998,0.0,0,False
2023-03-29,1.0342407927903998,1.0342407927903998,0.0,0,False
2023-03-30,1.0342407927903998,1.0342407927903998,0.0,0,False
2023-03-31,1.0342407927903998,1.0342407927903998,0.0,0,False
2023-04-01,1.0342407927903998,1.0342407927903998,0.0,0,False
2023-04-02,1.0342407927903998,1.0342407927903998,0.0,0,False
2023-04-03,1.0342407927903998,1.0342407927903998,0.0,0,False
2023-04-04,1.0342407927903998,1.0342407927903998,0.0,0,False
2023-04-05,1.0342407927903998,1.0342407927903998,0.0,0,False
2023-04-06,1.0342407927903998,1.0342407927903998,0.0,0,False
2023-04-07,1.0342407927903998,1.0311995280282744,-0.2940577071921524,1,True
2023-04-08,1.0311995280282744,1.0311995280282744,0.0,0,False
2023-04-09,1.0311995280282744,1.0311995280282744,0.0,0,False
2023-04-10,1.0311995280282744,1.0311995280282744,0.0,0,False
2023-04-11,1.0311995280282744,1.0311995280282744,0.0,0,False
2023-04-12,1.0311995280282744,1.0311995280282744,0.0,0,False
2023-04-13,1.0311995280282744,1.0311995280282744,0.0,0,False
2023-04-14,1.0311995280282744,1.0311995280282744,0.0,0,False
2023-04-15,1.0311995280282744,1.0311995280282744,0.0,0,False
2023-04-16,1.0311995280282744,1.0311995280282744,0.0,0,False
2023-04-17,1.0311995280282744,1.0311995280282744,0.0,0,False
2023-04-18,1.0311995280282744,1.0311995280282744,0.0,0,False
2023-04-19,1.0311995280282744,1.0251377636514616,-0.5878362249062796,2,True
2023-04-20,1.0251377636514616,1.0238029944775238,-0.1302038829574914,0,True
2023-04-21,1.0238029944775238,1.0238029944775238,0.0,0,False
2023-04-22,1.0238029944775238,1.0238029944775238,0.0,0,False
2023-04-23,1.0238029944775238,1.0238029944775238,0.0,0,False
2023-04-24,1.0238029944775238,1.0238029944775238,0.0,0,False
2023-04-25,1.0238029944775238,1.0238029944775238,0.0,0,False
2023-04-26,1.0238029944775238,1.0238029944775238,0.0,0,False
2023-04-27,1.0238029944775238,1.0238029944775238,0.0,0,False
2023-04-28,1.0238029944775238,1.0238029944775238,0.0,0,False
2023-04-29,1.0238029944775238,1.0238029944775238,0.0,0,False
2023-04-30,1.0238029944775238,1.0238029944775238,0.0,0,False
2023-05-01,1.0238029944775238,1.0238029944775238,0.0,0,False
2023-05-02,1.0238029944775238,1.0238029944775238,0.0,0,False
2023-05-03,1.0238029944775238,1.0238029944775238,0.0,0,False
2023-05-04,1.0238029944775238,1.0238029944775238,0.0,0,False
2023-05-05,1.0238029944775238,1.0238029944775238,0.0,0,False
2023-05-06,1.0238029944775238,1.0238029944775238,0.0,0,False
2023-05-07,1.0238029944775238,1.0238029944775238,0.0,0,False
2023-05-08,1.0238029944775238,1.031921757187603,0.7930004848464511,4,True
2023-05-09,1.031921757187603,1.0267701372158218,-0.4992258314061915,1,True
2023-05-10,1.0267701372158218,1.0267701372158218,0.0,0,False
2023-05-11,1.0267701372158218,1.0267701372158218,0.0,0,False
2023-05-12,1.0267701372158218,1.0267701372158218,0.0,0,False
2023-05-13,1.0267701372158218,1.0267701372158218,0.0,0,False
2023-05-14,1.0267701372158218,1.0267701372158218,0.0,0,False
2023-05-15,1.0267701372158218,1.0267701372158218,0.0,0,False
2023-05-16,1.0267701372158218,1.0267701372158218,0.0,0,False
2023-05-17,1.0267701372158218,1.0267701372158218,0.0,0,False
2023-05-18,1.0267701372158218,1.0267701372158218,0.0,0,False
2023-05-19,1.0267701372158218,1.0267701372158218,0.0,0,False
2023-05-20,1.0267701372158218,1.0267701372158218,0.0,0,False
2023-05-21,1.0267701372158218,1.0267701372158218,0.0,0,False
2023-05-22,1.0267701372158218,1.0267701372158218,0.0,0,False
2023-05-23,1.0267701372158218,1.0267701372158218,0.0,0,False
2023-05-24,1.0267701372158218,1.0267701372158218,0.0,0,False
2023-05-25,1.0267701372158218,1.0267701372158218,0.0,0,False
2023-05-26,1.0267701372158218,1.0281463585027724,0.13403401959881656,1,True
2023-05-27,1.0281463585027724,1.030761466248342,0.25435170041139266,0,True
2023-05-28,1.030761466248342,1.030761466248342,0.0,0,False
2023-05-29,1.030761466248342,1.030761466248342,0.0,0,False
2023-05-30,1.030761466248342,1.030761466248342,0.0,0,False
2023-05-31,1.030761466248342,1.030761466248342,0.0,0,False
2023-06-01,1.030761466248342,1.030761466248342,0.0,0,False
2023-06-02,1.030761466248342,1.030761466248342,0.0,0,False
2023-06-03,1.030761466248342,1.030761466248342,0.0,0,False
2023-06-04,1.030761466248342,1.030761466248342,0.0,0,False
2023-06-05,1.030761466248342,1.030761466248342,0.0,0,False
2023-06-06,1.030761466248342,1.0223903703601376,-0.8121273604331236,4,True
2023-06-07,1.0223903703601376,1.0223903703601376,0.0,0,False
2023-06-08,1.0223903703601376,1.0223903703601376,0.0,0,False
2023-06-09,1.0223903703601376,1.0223903703601376,0.0,0,False
2023-06-10,1.0223903703601376,1.03028175789253,0.7718565981419401,5,True
2023-06-11,1.03028175789253,1.0293892860317706,-0.08662405734379819,0,True
2023-06-12,1.0293892860317706,1.0293892860317706,0.0,0,False
2023-06-13,1.0293892860317706,1.0293892860317706,0.0,0,False
2023-06-14,1.0293892860317706,1.0293892860317706,0.0,0,False
2023-06-15,1.0293892860317706,1.0293892860317706,0.0,0,False
2023-06-16,1.0293892860317706,1.0293892860317706,0.0,0,False
2023-06-17,1.0293892860317706,1.0293892860317706,0.0,0,False
2023-06-18,1.0293892860317706,1.0293892860317706,0.0,0,False
2023-06-19,1.0293892860317706,1.0293892860317706,0.0,0,False
2023-06-20,1.0293892860317706,1.0293892860317706,0.0,0,False
2023-06-21,1.0293892860317706,1.0293892860317706,0.0,0,False
2023-06-22,1.0293892860317706,1.0293892860317706,0.0,0,False
2023-06-23,1.0293892860317706,1.0293892860317706,0.0,0,False
2023-06-24,1.0293892860317706,1.0293892860317706,0.0,0,False
2023-06-25,1.0293892860317706,1.0293892860317706,0.0,0,False
2023-06-26,1.0293892860317706,1.0293892860317706,0.0,0,False
2023-06-27,1.0293892860317706,1.0293892860317706,0.0,0,False
2023-06-28,1.0293892860317706,1.0293892860317706,0.0,0,False
2023-06-29,1.0293892860317706,1.0293892860317706,0.0,0,False
2023-06-30,1.0293892860317706,1.0175536096387896,-1.149776528042834,3,True
2023-07-01,1.0175536096387896,1.0211085532282274,0.34936179831348557,0,True
2023-07-02,1.0211085532282274,1.0211085532282274,0.0,0,False
2023-07-03,1.0211085532282274,1.0211085532282274,0.0,0,False
2023-07-04,1.0211085532282274,1.0211085532282274,0.0,0,False
2023-07-05,1.0211085532282274,1.0211085532282274,0.0,0,False
2023-07-06,1.0211085532282274,1.0211085532282274,0.0,0,False
2023-07-07,1.0211085532282274,1.0211085532282274,0.0,0,False
2023-07-08,1.0211085532282274,1.0211085532282274,0.0,0,False
2023-07-09,1.0211085532282274,1.0211085532282274,0.0,0,False
2023-07-10,1.0211085532282274,1.0211085532282274,0.0,0,False
2023-07-11,1.0211085532282274,1.0211085532282274,0.0,0,False
2023-07-12,1.0211085532282274,1.0211085532282274,0.0,0,False
2023-07-13,1.0211085532282274,1.0211085532282274,0.0,0,False
2023-07-14,1.0211085532282274,1.0211085532282274,0.0,0,False
2023-07-15,1.0211085532282274,1.0211085532282274,0.0,0,False
2023-07-16,1.0211085532282274,1.0211085532282274,0.0,0,False
2023-07-17,1.0211085532282274,1.0211085532282274,0.0,0,False
2023-07-18,1.0211085532282274,1.0211085532282274,0.0,0,False
2023-07-19,1.0211085532282274,1.0211085532282274,0.0,0,False
2023-07-20,1.0211085532282274,1.0211085532282274,0.0,0,False
2023-07-21,1.0211085532282274,1.0211085532282274,0.0,0,False
2023-07-22,1.0211085532282274,1.0211085532282274,0.0,0,False
2023-07-23,1.0211085532282274,1.0211085532282274,0.0,0,False
2023-07-24,1.0211085532282274,1.0209309197507237,-0.017396140394876358,1,True
2023-07-25,1.0209309197507237,1.021193157988982,0.025686188280227285,0,True
2023-07-26,1.021193157988982,1.021193157988982,0.0,0,False
2023-07-27,1.021193157988982,1.021193157988982,0.0,0,False
2023-07-28,1.021193157988982,1.021193157988982,0.0,0,False
2023-07-29,1.021193157988982,1.021193157988982,0.0,0,False
2023-07-30,1.021193157988982,1.021193157988982,0.0,0,False
2023-07-31,1.021193157988982,1.021193157988982,0.0,0,False
2023-08-01,1.021193157988982,1.021193157988982,0.0,0,False
2023-08-02,1.021193157988982,1.021193157988982,0.0,0,False
2023-08-03,1.021193157988982,1.021193157988982,0.0,0,False
2023-08-04,1.021193157988982,1.021193157988982,0.0,0,False
2023-08-05,1.021193157988982,1.021193157988982,0.0,0,False
2023-08-06,1.021193157988982,1.021193157988982,0.0,0,False
2023-08-07,1.021193157988982,1.021193157988982,0.0,0,False
2023-08-08,1.021193157988982,1.021193157988982,0.0,0,False
2023-08-09,1.021193157988982,1.021193157988982,0.0,0,False
2023-08-10,1.021193157988982,1.021193157988982,0.0,0,False
2023-08-11,1.021193157988982,1.021193157988982,0.0,0,False
2023-08-12,1.021193157988982,1.021193157988982,0.0,0,False
2023-08-13,1.021193157988982,1.021193157988982,0.0,0,False
2023-08-14,1.021193157988982,1.021193157988982,0.0,0,False
2023-08-15,1.021193157988982,1.021193157988982,0.0,0,False
2023-08-16,1.021193157988982,1.023771671777322,0.2525001042327668,4,True
2023-08-17,1.023771671777322,1.023771671777322,0.0,0,False
2023-08-18,1.023771671777322,1.0541397054775028,2.9662897047600723,4,True
2023-08-19,1.0541397054775028,1.0541397054775028,0.0,0,False
2023-08-20,1.0541397054775028,1.0541397054775028,0.0,0,False
2023-08-21,1.0541397054775028,1.0541397054775028,0.0,0,False
2023-08-22,1.0541397054775028,1.0541397054775028,0.0,0,False
2023-08-23,1.0541397054775028,1.0541397054775028,0.0,0,False
2023-08-24,1.0541397054775028,1.0541397054775028,0.0,0,False
2023-08-25,1.0541397054775028,1.0396407774908933,-1.37542755587996,3,True
2023-08-26,1.0396407774908933,1.0396407774908933,0.0,0,False
2023-08-27,1.0396407774908933,1.0396407774908933,0.0,0,False
2023-08-28,1.0396407774908933,1.0396407774908933,0.0,0,False
2023-08-29,1.0396407774908933,1.0396407774908933,0.0,0,False
2023-08-30,1.0396407774908933,1.0396407774908933,0.0,0,False
2023-08-31,1.0396407774908933,1.0396407774908933,0.0,0,False
2023-09-01,1.0396407774908933,1.0396407774908933,0.0,0,False
2023-09-02,1.0396407774908933,1.0396407774908933,0.0,0,False
2023-09-03,1.0396407774908933,1.0396407774908933,0.0,0,False
2023-09-04,1.0396407774908933,1.0396407774908933,0.0,0,False
2023-09-05,1.0396407774908933,1.0396407774908933,0.0,0,False
2023-09-06,1.0396407774908933,1.0396407774908933,0.0,0,False
2023-09-07,1.0396407774908933,1.0396407774908933,0.0,0,False
2023-09-08,1.0396407774908933,1.0396407774908933,0.0,0,False
2023-09-09,1.0396407774908933,1.0396407774908933,0.0,0,False
2023-09-10,1.0396407774908933,1.0387478199919034,-0.08589096525677409,1,True
2023-09-11,1.0387478199919034,1.0383250626366176,-0.040698747775858024,0,True
2023-09-12,1.0383250626366176,1.0383250626366176,0.0,0,False
2023-09-13,1.0383250626366176,1.0383250626366176,0.0,0,False
2023-09-14,1.0383250626366176,1.0383250626366176,0.0,0,False
2023-09-15,1.0383250626366176,1.0383250626366176,0.0,0,False
2023-09-16,1.0383250626366176,1.0383250626366176,0.0,0,False
2023-09-17,1.0383250626366176,1.0383250626366176,0.0,0,False
2023-09-18,1.0383250626366176,1.0383250626366176,0.0,0,False
2023-09-19,1.0383250626366176,1.0383250626366176,0.0,0,False
2023-09-20,1.0383250626366176,1.0383250626366176,0.0,0,False
2023-09-21,1.0383250626366176,1.0383250626366176,0.0,0,False
2023-09-22,1.0383250626366176,1.0383250626366176,0.0,0,False
2023-09-23,1.0383250626366176,1.0383250626366176,0.0,0,False
2023-09-24,1.0383250626366176,1.0383250626366176,0.0,0,False
2023-09-25,1.0383250626366176,1.0383250626366176,0.0,0,False
2023-09-26,1.0383250626366176,1.0383250626366176,0.0,0,False
2023-09-27,1.0383250626366176,1.0383250626366176,0.0,0,False
2023-09-28,1.0383250626366176,1.0383250626366176,0.0,0,False
2023-09-29,1.0383250626366176,1.0383250626366176,0.0,0,False
2023-09-30,1.0383250626366176,1.0383250626366176,0.0,0,False
2023-10-01,1.0383250626366176,1.0383250626366176,0.0,0,False
2023-10-02,1.0383250626366176,1.0383250626366176,0.0,0,False
2023-10-03,1.0383250626366176,1.0384748048639019,0.014421517179208365,1,True
2023-10-04,1.0384748048639019,1.0331335892300382,-0.5143327126327035,0,True
2023-10-05,1.0331335892300382,1.0331335892300382,0.0,0,False
2023-10-06,1.0331335892300382,1.0331335892300382,0.0,0,False
2023-10-07,1.0331335892300382,1.0331335892300382,0.0,0,False
2023-10-08,1.0331335892300382,1.0331335892300382,0.0,0,False
2023-10-09,1.0331335892300382,1.0331335892300382,0.0,0,False
2023-10-10,1.0331335892300382,1.0331335892300382,0.0,0,False
2023-10-11,1.0331335892300382,1.0331335892300382,0.0,0,False
2023-10-12,1.0331335892300382,1.0331335892300382,0.0,0,False
2023-10-13,1.0331335892300382,1.0331335892300382,0.0,0,False
2023-10-14,1.0331335892300382,1.0331335892300382,0.0,0,False
2023-10-15,1.0331335892300382,1.0331335892300382,0.0,0,False
2023-10-16,1.0331335892300382,1.0331335892300382,0.0,0,False
2023-10-17,1.0331335892300382,1.0331335892300382,0.0,0,False
2023-10-18,1.0331335892300382,1.0331335892300382,0.0,0,False
2023-10-19,1.0331335892300382,1.0279754761632771,-0.4992687412869068,1,True
2023-10-20,1.0279754761632771,1.0279754761632771,0.0,0,False
2023-10-21,1.0279754761632771,1.028573834259304,0.058207429058532156,1,True
2023-10-22,1.028573834259304,1.028573834259304,0.0,0,False
2023-10-23,1.028573834259304,1.028573834259304,0.0,0,False
2023-10-24,1.028573834259304,1.028573834259304,0.0,0,False
2023-10-25,1.028573834259304,1.028573834259304,0.0,0,False
2023-10-26,1.028573834259304,1.028573834259304,0.0,0,False
2023-10-27,1.028573834259304,1.0291887212930912,0.05978054402191457,1,True
2023-10-28,1.0291887212930912,1.0301789230752592,0.09621187656660979,0,True
2023-10-29,1.0301789230752592,1.0301789230752592,0.0,0,False
2023-10-30,1.0301789230752592,1.0301789230752592,0.0,0,False
2023-10-31,1.0301789230752592,1.0301789230752592,0.0,0,False
2023-11-01,1.0301789230752592,1.0301789230752592,0.0,0,False
2023-11-02,1.0301789230752592,1.0301789230752592,0.0,0,False
2023-11-03,1.0301789230752592,1.0301789230752592,0.0,0,False
2023-11-04,1.0301789230752592,1.0301789230752592,0.0,0,False
2023-11-05,1.0301789230752592,1.0301789230752592,0.0,0,False
2023-11-06,1.0301789230752592,1.0301789230752592,0.0,0,False
2023-11-07,1.0301789230752592,1.0301789230752592,0.0,0,False
2023-11-08,1.0301789230752592,1.0301789230752592,0.0,0,False
2023-11-09,1.0301789230752592,1.0301789230752592,0.0,0,False
2023-11-10,1.0301789230752592,1.043502641658684,1.2933402426494212,4,True
2023-11-11,1.043502641658684,1.043502641658684,0.0,0,False
2023-11-12,1.043502641658684,1.043502641658684,0.0,0,False
2023-11-13,1.043502641658684,1.043502641658684,0.0,0,False
2023-11-14,1.043502641658684,1.043502641658684,0.0,0,False
2023-11-15,1.043502641658684,1.043502641658684,0.0,0,False
2023-11-16,1.043502641658684,1.043502641658684,0.0,0,False
2023-11-17,1.043502641658684,1.043502641658684,0.0,0,False
2023-11-18,1.043502641658684,1.043502641658684,0.0,0,False
2023-11-19,1.043502641658684,1.043502641658684,0.0,0,False
2023-11-20,1.043502641658684,1.043502641658684,0.0,0,False
2023-11-21,1.043502641658684,1.043502641658684,0.0,0,False
2023-11-22,1.043502641658684,1.043502641658684,0.0,0,False
2023-11-23,1.043502641658684,1.043502641658684,0.0,0,False
2023-11-24,1.043502641658684,1.043502641658684,0.0,0,False
2023-11-25,1.043502641658684,1.043502641658684,0.0,0,False
2023-11-26,1.043502641658684,1.043502641658684,0.0,0,False
2023-11-27,1.043502641658684,1.043502641658684,0.0,0,False
2023-11-28,1.043502641658684,1.043502641658684,0.0,0,False
2023-11-29,1.043502641658684,1.043502641658684,0.0,0,False
2023-11-30,1.043502641658684,1.043502641658684,0.0,0,False
2023-12-01,1.043502641658684,1.043502641658684,0.0,0,False
2023-12-02,1.043502641658684,1.043502641658684,0.0,0,False
2023-12-03,1.043502641658684,1.0440015111431835,0.047807208586148064,1,True
2023-12-04,1.0440015111431835,1.0507083380488003,0.6424154404022664,4,True
2023-12-05,1.0507083380488003,1.0550094667167786,0.40935514759175007,0,True
2023-12-06,1.0550094667167786,1.0550094667167786,0.0,0,False
2023-12-07,1.0550094667167786,1.0550094667167786,0.0,0,False
2023-12-08,1.0550094667167786,1.0550094667167786,0.0,0,False
2023-12-09,1.0550094667167786,1.0550094667167786,0.0,0,False
2023-12-10,1.0550094667167786,1.0550094667167786,0.0,0,False
2023-12-11,1.0550094667167786,1.0649360645486068,0.940901304205366,4,True
2023-12-12,1.0649360645486068,1.0649360645486068,0.0,0,False
2023-12-13,1.0649360645486068,1.0649360645486068,0.0,0,False
2023-12-14,1.0649360645486068,1.0649360645486068,0.0,0,False
2023-12-15,1.0649360645486068,1.0649360645486068,0.0,0,False
2023-12-16,1.0649360645486068,1.0649360645486068,0.0,0,False
2023-12-17,1.0649360645486068,1.0649360645486068,0.0,0,False
2023-12-18,1.0649360645486068,1.0649360645486068,0.0,0,False
2023-12-19,1.0649360645486068,1.0649360645486068,0.0,0,False
2023-12-20,1.0649360645486068,1.0649360645486068,0.0,0,False
2023-12-21,1.0649360645486068,1.0649360645486068,0.0,0,False
2023-12-22,1.0649360645486068,1.0649360645486068,0.0,0,False
2023-12-23,1.0649360645486068,1.0649360645486068,0.0,0,False
2023-12-24,1.0649360645486068,1.0636814326632702,-0.11781288352445962,1,True
2023-12-25,1.0636814326632702,1.066160990630257,0.23311095698816953,0,True
2023-12-26,1.066160990630257,1.066160990630257,0.0,0,False
2023-12-27,1.066160990630257,1.060836416737005,-0.49941556106871676,1,True
2023-12-28,1.060836416737005,1.060836416737005,0.0,0,False
2023-12-29,1.060836416737005,1.060836416737005,0.0,0,False
2023-12-30,1.060836416737005,1.060836416737005,0.0,0,False
2023-12-31,1.060836416737005,1.060836416737005,0.0,0,False
