day,start_equity,end_equity,return_pct,entries,active
2021-09-02,1.0,1.0,0.0,0,False
2021-09-03,1.0,1.0,0.0,0,False
2021-09-04,1.0,1.0,0.0,0,False
2021-09-05,1.0,1.0,0.0,0,False
2021-09-06,1.0,1.0,0.0,0,False
2021-09-07,1.0,1.0,0.0,0,False
2021-09-08,1.0,1.0,0.0,0,False
2021-09-09,1.0,1.0,0.0,0,False
2021-09-10,1.0,1.0,0.0,0,False
2021-09-11,1.0,1.0,0.0,0,False
2021-09-12,1.0,1.0,0.0,0,False
2021-09-13,1.0,1.0,0.0,0,False
2021-09-14,1.0,1.0,0.0,0,False
2021-09-15,1.0,1.0,0.0,0,False
2021-09-16,1.0,1.0,0.0,0,False
2021-09-17,1.0,1.0,0.0,0,False
2021-09-18,1.0,1.0,0.0,0,False
2021-09-19,1.0,1.0,0.0,0,False
2021-09-20,1.0,1.0,0.0,0,False
2021-09-21,1.0,1.0,0.0,0,False
2021-09-22,1.0,1.0,0.0,0,False
2021-09-23,1.0,1.0,0.0,0,False
2021-09-24,1.0,1.0,0.0,0,False
2021-09-25,1.0,1.0,0.0,0,False
2021-09-26,1.0,1.0,0.0,0,False
2021-09-27,1.0,1.0,0.0,0,False
2021-09-28,1.0,1.0,0.0,0,False
2021-09-29,1.0,1.0,0.0,0,False
2021-09-30,1.0,1.0,0.0,0,False
2021-10-01,1.0,1.0,0.0,0,False
2021-10-02,1.0,1.0,0.0,0,False
2021-10-03,1.0,1.0,0.0,0,False
2021-10-04,1.0,1.0,0.0,0,False
2021-10-05,1.0,1.0,0.0,0,False
2021-10-06,1.0,0.9979076339734806,-0.209236602651941,1,True
2021-10-07,0.9979076339734806,0.9979076339734806,0.0,0,False
2021-10-08,0.9979076339734806,0.9979076339734806,0.0,0,False
2021-10-09,0.9979076339734806,0.9959728762708805,-0.19388144120074946,3,True
2021-10-10,0.9959728762708805,0.9900453248315004,-0.595151894253787,1,True
2021-10-11,0.9900453248315004,0.9900453248315004,0.0,0,False
2021-10-12,0.9900453248315004,0.9900453248315004,0.0,0,False
2021-10-13,0.9900453248315004,1.0036748203430572,1.376653691473817,4,True
2021-10-14,1.0036748203430572,1.0169161724211782,1.3192870648677912,0,True
2021-10-15,1.0169161724211782,1.0200546994249693,0.3086318311094072,1,True
2021-10-16,1.0200546994249693,1.0360103346678833,1.5641940821319311,0,True
2021-10-17,1.0360103346678833,1.0360103346678833,0.0,0,False
2021-10-18,1.0360103346678833,1.0371218957091115,0.10729246649692215,1,True
2021-10-19,1.0371218957091115,1.0371218957091115,0.0,0,False
2021-10-20,1.0371218957091115,1.0371218957091115,0.0,0,False
2021-10-21,1.0371218957091115,1.0371218957091115,0.0,0,False
2021-10-22,1.0371218957091115,1.0371218957091115,0.0,0,False
2021-10-23,1.0371218957091115,1.0371218957091115,0.0,0,False
2021-10-24,1.0371218957091115,1.0371218957091115,0.0,0,False
2021-10-25,1.0371218957091115,1.0407787084187505,0.3525923736417358,1,True
2021-10-26,1.0407787084187505,1.0407787084187505,0.0,0,False
2021-10-27,1.0407787084187505,1.0349345939321994,-0.5615136473564153,6,True
2021-10-28,1.0349345939321994,1.0322363456319177,-0.26071679467490894,0,True
2021-10-29,1.0322363456319177,1.0322363456319177,0.0,0,False
2021-10-30,1.0322363456319177,1.0322363456319177,0.0,0,False
2021-10-31,1.0322363456319177,1.0322363456319177,0.0,0,False
2021-11-01,1.0322363456319177,1.0335936060584605,0.13148737033783497,1,True
2021-11-02,1.0335936060584605,1.0324638258499717,-0.10930603690527674,0,True
2021-11-03,1.0324638258499717,1.032619224635924,0.015051257202580715,1,True
2021-11-04,1.032619224635924,1.052012500282647,1.8780664918920609,1,True
2021-11-05,1.052012500282647,1.0436328192464854,-0.7965381622281331,0,True
2021-11-06,1.0436328192464854,1.0424641009087847,-0.11198558689871074,1,True
2021-11-07,1.0424641009087847,1.0424641009087847,0.0,0,False
2021-11-08,1.0424641009087847,1.0424641009087847,0.0,0,False
2021-11-09,1.0424641009087847,1.0424641009087847,0.0,0,False
2021-11-10,1.0424641009087847,1.0424641009087847,0.0,0,False
2021-11-11,1.0424641009087847,1.035380658168836,-0.6794903281344244,9,True
2021-11-12,1.035380658168836,1.0360481014693177,0.06446356663278863,0,True
2021-11-13,1.0360481014693177,1.0348785756526027,-0.11288335117417558,1,True
2021-11-14,1.0348785756526027,1.0348785756526027,0.0,0,False
2021-11-15,1.0348785756526027,1.0348785756526027,0.0,0,False
2021-11-16,1.0348785756526027,1.0533983577388926,1.7895608742901192,5,True
2021-11-17,1.0533983577388926,1.0398820762388314,-1.283112072537651,0,True
2021-11-18,1.0398820762388314,1.0371921946773133,-0.25867178817499115,2,True
2021-11-19,1.0371921946773133,1.0437852590580399,0.6356646737760929,2,True
2021-11-20,1.0437852590580399,1.0443214489986372,0.05136975598614146,0,True
2021-11-21,1.0443214489986372,1.0443214489986372,0.0,0,False
2021-11-22,1.0443214489986372,1.0403694680601192,-0.37842571770477784,1,True
2021-11-23,1.0403694680601192,1.0403694680601192,0.0,0,False
2021-11-24,1.0403694680601192,1.0403694680601192,0.0,0,False
2021-11-25,1.0403694680601192,1.0429889355813695,0.2517824293839066,2,True
2021-11-26,1.0429889355813695,1.0218472753981584,-2.027026314658509,9,True
2021-11-27,1.0218472753981584,1.0335607379826703,1.1463026683657507,0,True
2021-11-28,1.0335607379826703,1.0322726673365066,-0.12462457200898003,1,True
2021-11-29,1.0322726673365066,1.0322726673365066,0.0,0,False
2021-11-30,1.0322726673365066,1.0322726673365066,0.0,0,False
2021-12-01,1.0322726673365066,1.0323730109435911,0.009720649423328176,1,True
2021-12-02,1.0323730109435911,1.0304193540704665,-0.18923943694915124,3,True
2021-12-03,1.0304193540704665,1.0276443548690553,-0.26930775227087533,1,True
2021-12-04,1.0276443548690553,0.9574269644893733,-6.832849326421808,16,True
2021-12-05,0.9574269644893733,0.9578311174396715,0.04221240525785763,1,True
2021-12-06,0.9578311174396715,0.9519103250354273,-0.6181457562237869,7,True
2021-12-07,0.9519103250354273,0.9784898336564037,2.7922282091001893,0,True
2021-12-08,0.9784898336564037,0.9820166016365722,0.3604297008370283,1,True
2021-12-09,0.9820166016365722,0.9805279521873358,-0.15159106747844042,0,True
2021-12-10,0.9805279521873358,0.9768714367040655,-0.3729129266650144,1,True
2021-12-11,0.9768714367040655,0.9741271962709749,-0.28092135054634815,1,True
2021-12-12,0.9741271962709749,0.9741271962709749,0.0,0,False
2021-12-13,0.9741271962709749,0.971011816249584,-0.3198124468053787,1,True
2021-12-14,0.971011816249584,0.971011816249584,0.0,0,False
2021-12-15,0.971011816249584,0.971011816249584,0.0,0,False
2021-12-16,0.971011816249584,0.971011816249584,0.0,0,False
2021-12-17,0.971011816249584,0.9715343610312727,0.053814461672252456,2,True
2021-12-18,0.9715343610312727,0.9744167858450724,0.2966878917941784,0,True
2021-12-19,0.9744167858450724,0.9700267028273444,-0.45053442033232693,1,True
2021-12-20,0.9700267028273444,0.9700267028273444,0.0,0,False
2021-12-21,0.9700267028273444,0.9674732250907908,-0.2632378808862579,1,True
2021-12-22,0.9674732250907908,0.9666719437233738,-0.08282207162289001,0,True
2021-12-23,0.9666719437233738,0.9666719437233738,0.0,0,False
2021-12-24,0.9666719437233738,0.9666719437233738,0.0,0,False
2021-12-25,0.9666719437233738,0.9686769424508611,0.20741252919418418,1,True
2021-12-26,0.9686769424508611,0.9686769424508611,0.0,0,False
2021-12-27,0.9686769424508611,0.9686769424508611,0.0,0,False
2021-12-28,0.9686769424508611,0.9686769424508611,0.0,0,False
2021-12-29,0.9686769424508611,0.9686769424508611,0.0,0,False
2021-12-30,0.9686769424508611,0.9686769424508611,0.0,0,False
2021-12-31,0.9686769424508611,0.9686769424508611,0.0,0,False
2022-01-01,0.9686769424508611,0.9686769424508611,0.0,0,False
2022-01-02,0.9686769424508611,0.9686769424508611,0.0,0,False
2022-01-03,0.9686769424508611,0.9686769424508611,0.0,0,False
2022-01-04,0.9686769424508611,0.9686769424508611,0.0,0,False
2022-01-05,0.9686769424508611,0.9697558650076736,0.1113810507435753,1,True
2022-01-06,0.9697558650076736,0.9547452342243885,-1.5478772879776614,9,True
2022-01-07,0.9547452342243885,0.961753771017213,0.7340740274569768,4,True
2022-01-08,0.961753771017213,0.9673867800691064,0.5857017899639327,0,True
2022-01-09,0.9673867800691064,0.9680526499420212,0.06883181439250041,1,True
2022-01-10,0.9680526499420212,0.9695282633164028,0.15243110738554222,0,True
2022-01-11,0.9695282633164028,0.9695282633164028,0.0,0,False
2022-01-12,0.9695282633164028,0.9695282633164028,0.0,0,False
2022-01-13,0.9695282633164028,0.9695282633164028,0.0,0,False
2022-01-14,0.9695282633164028,0.9695282633164028,0.0,0,False
2022-01-15,0.9695282633164028,0.9699958903257047,0.04823242673732686,1,True
2022-01-16,0.9699958903257047,0.9689819297043456,-0.10453246570133468,0,True
2022-01-17,0.9689819297043456,0.9711501441074462,0.22376210914090144,1,True
2022-01-18,0.9711501441074462,0.9764176021556744,0.542393787427109,0,True
2022-01-19,0.9764176021556744,0.9764176021556744,0.0,0,False
2022-01-20,0.9764176021556744,0.9764176021556744,0.0,0,False
2022-01-21,0.9764176021556744,0.9497899587823141,-2.727075312302185,7,True
2022-01-22,0.9497899587823141,0.9329719280507226,-1.7707105214244567,8,True
2022-01-23,0.9329719280507226,0.9422103321330254,0.9902124388249112,0,True
2022-01-24,0.9422103321330254,0.9365914309335458,-0.5963531716701942,2,True
2022-01-25,0.9365914309335458,0.9520942592574863,1.6552391802782118,0,True
2022-01-26,0.9520942592574863,0.9520942592574863,0.0,0,False
2022-01-27,0.9520942592574863,0.9623766326585157,1.079974309376519,4,True
2022-01-28,0.9623766326585157,0.9557526691230743,-0.688292224754361,0,True
2022-01-29,0.9557526691230743,0.9557526691230743,0.0,0,False
2022-01-30,0.9557526691230743,0.9626150005876569,0.7180028564166996,1,True
2022-01-31,0.9626150005876569,0.9601746166152915,-0.25351609634959305,0,True
2022-02-01,0.9601746166152915,0.9601746166152915,0.0,0,False
2022-02-02,0.9601746166152915,0.9601746166152915,0.0,0,False
2022-02-03,0.9601746166152915,0.9601309156205095,-0.004551359099247421,3,True
2022-02-04,0.9601309156205095,0.9669451278096761,0.7097169852886998,0,True
2022-02-05,0.9669451278096761,0.9669451278096761,0.0,0,False
2022-02-06,0.9669451278096761,0.9669451278096761,0.0,0,False
2022-02-07,0.9669451278096761,0.9669451278096761,0.0,0,False
2022-02-08,0.9669451278096761,0.9669451278096761,0.0,0,False
2022-02-09,0.9669451278096761,0.9695339819480898,0.26773537235540434,2,True
2022-02-10,0.9695339819480898,0.9756180360419884,0.6275235532924528,5,True
2022-02-11,0.9756180360419884,0.9663345931384879,-0.951544821902095,0,True
2022-02-12,0.9663345931384879,0.9470686453356575,-1.9937139723269048,4,True
2022-02-13,0.9470686453356575,0.9470686453356575,0.0,0,False
2022-02-14,0.9470686453356575,0.9470686453356575,0.0,0,False
2022-02-15,0.9470686453356575,0.9470686453356575,0.0,0,False
2022-02-16,0.9470686453356575,0.9470686453356575,0.0,0,False
2022-02-17,0.9470686453356575,0.9470686453356575,0.0,0,False
2022-02-18,0.9470686453356575,0.9470686453356575,0.0,0,False
2022-02-19,0.9470686453356575,0.9470686453356575,0.0,0,False
2022-02-20,0.9470686453356575,0.9470686453356575,0.0,0,False
2022-02-21,0.9470686453356575,0.9470686453356575,0.0,0,False
2022-02-22,0.9470686453356575,0.9468728439452331,-0.020674466564674088,2,True
2022-02-23,0.9468728439452331,0.9460680093590571,-0.08499922574847218,0,True
2022-02-24,0.9460680093590571,0.9272167277513945,-1.9925926488555512,4,True
2022-02-25,0.9272167277513945,0.9272167277513945,0.0,0,False
2022-02-26,0.9272167277513945,0.9272167277513945,0.0,0,False
2022-02-27,0.9272167277513945,0.9272167277513945,0.0,0,False
2022-02-28,0.9272167277513945,0.9295814787893296,0.25503757289515594,1,True
2022-03-01,0.9295814787893296,0.9324051949808089,0.3037620968047605,0,True
2022-03-02,0.9324051949808089,0.9324051949808089,0.0,0,False
2022-03-03,0.9324051949808089,0.9324051949808089,0.0,0,False
2022-03-04,0.9324051949808089,0.9298970573395746,-0.26899653227328013,1,True
2022-03-05,0.9298970573395746,0.9298970573395746,0.0,0,False
2022-03-06,0.9298970573395746,0.9239161895565104,-0.6431752564284188,3,True
2022-03-07,0.9239161895565104,0.921954794485908,-0.21229144945971168,0,True
2022-03-08,0.921954794485908,0.9230679763731002,0.12074148253797823,1,True
2022-03-09,0.9230679763731002,0.9317091301444952,0.9361340651582006,1,True
2022-03-10,0.9317091301444952,0.9299960779485086,-0.18386126534156721,3,True
2022-03-11,0.9299960779485086,0.9267982225978947,-0.3438568641781936,0,True
2022-03-12,0.9267982225978947,0.9267982225978947,0.0,0,False
2022-03-13,0.9267982225978947,0.9267982225978947,0.0,0,False
2022-03-14,0.9267982225978947,0.9231347125616168,-0.39528669207076206,1,True
2022-03-15,0.9231347125616168,0.9241426725423652,0.10918882878441227,1,True
2022-03-16,0.9241426725423652,0.9267136210607406,0.27819822574610686,1,True
2022-03-17,0.9267136210607406,0.9227898176421849,-0.42341056928292264,1,True
2022-03-18,0.9227898176421849,0.9220724254744243,-0.07774166489977752,0,True
2022-03-19,0.9220724254744243,0.9220724254744243,0.0,0,False
2022-03-20,0.9220724254744243,0.9184012686937327,-0.39814191155349565,1,True
2022-03-21,0.9184012686937327,0.916404730826233,-0.21739276017546105,3,True
2022-03-22,0.916404730826233,0.916404730826233,0.0,0,False
2022-03-23,0.916404730826233,0.916404730826233,0.0,0,False
2022-03-24,0.916404730826233,0.916404730826233,0.0,0,False
2022-03-25,0.916404730826233,0.916404730826233,0.0,0,False
2022-03-26,0.916404730826233,0.916404730826233,0.0,0,False
2022-03-27,0.916404730826233,0.916404730826233,0.0,0,False
2022-03-28,0.916404730826233,0.916404730826233,0.0,0,False
2022-03-29,0.916404730826233,0.916404730826233,0.0,0,False
2022-03-30,0.916404730826233,0.9143497242106315,-0.22424661794888667,4,True
2022-03-31,0.9143497242106315,0.9171360909690958,0.30473752927193676,5,True
2022-04-01,0.9171360909690958,0.9003554252094466,-1.829681104569536,0,True
2022-04-02,0.9003554252094466,0.9003554252094466,0.0,0,False
2022-04-03,0.9003554252094466,0.8968927897146288,-0.3845853979290714,1,True
2022-04-04,0.8968927897146288,0.8968927897146288,0.0,0,False
2022-04-05,0.8968927897146288,0.8977499088885971,0.09556539909758577,3,True
2022-04-06,0.8977499088885971,0.8818906456457039,-1.7665569314873841,9,True
2022-04-07,0.8818906456457039,0.8850634227294739,0.35976989884578536,1,True
2022-04-08,0.8850634227294739,0.8890386906012856,0.4491506223985864,0,True
2022-04-09,0.8890386906012856,0.8890386906012856,0.0,0,False
2022-04-10,0.8890386906012856,0.8890386906012856,0.0,0,False
2022-04-11,0.8890386906012856,0.8815390366952089,-0.8435689003596036,6,True
2022-04-12,0.8815390366952089,0.8741642091491626,-0.8365854759754932,0,True
2022-04-13,0.8741642091491626,0.8741642091491626,0.0,0,False
2022-04-14,0.8741642091491626,0.8741642091491626,0.0,0,False
2022-04-15,0.8741642091491626,0.8741642091491626,0.0,0,False
2022-04-16,0.8741642091491626,0.8741642091491626,0.0,0,False
2022-04-17,0.8741642091491626,0.8748315490210588,0.07634033341923363,1,True
2022-04-18,0.8748315490210588,0.8771642794987193,0.26664910293541233,6,True
2022-04-19,0.8771642794987193,0.8851261314164784,0.9076808191857966,0,True
2022-04-20,0.8851261314164784,0.8851261314164784,0.0,0,False
2022-04-21,0.8851261314164784,0.8875936397357356,0.27877476798796597,2,True
2022-04-22,0.8875936397357356,0.8831560071850416,-0.49996218449865903,0,True
2022-04-23,0.8831560071850416,0.8831560071850416,0.0,0,False
2022-04-24,0.8831560071850416,0.8831560071850416,0.0,0,False
2022-04-25,0.8831560071850416,0.8791808340886694,-0.450109953850919,3,True
2022-04-26,0.8791808340886694,0.8752190573233309,-0.45062137523108614,2,True
2022-04-27,0.8752190573233309,0.8749233283988481,-0.03378913221876445,0,True
2022-04-28,0.8749233283988481,0.8749233283988481,0.0,0,False
2022-04-29,0.8749233283988481,0.8749233283988481,0.0,0,False
2022-04-30,0.8749233283988481,0.8728650159798866,-0.23525631928551505,1,True
2022-05-01,0.8728650159798866,0.8784838203681071,0.6437197373425185,6,True
2022-05-02,0.8784838203681071,0.8784838203681071,0.0,0,False
2022-05-03,0.8784838203681071,0.8796776520546855,0.13589683257662077,3,True
2022-05-04,0.8796776520546855,0.8722565713637593,-0.8436136434286534,1,True
2022-05-05,0.8722565713637593,0.8722565713637593,0.0,0,False
2022-05-06,0.8722565713637593,0.8600795650296003,-1.3960349206794231,6,True
2022-05-07,0.8600795650296003,0.8529254225770249,-0.8318000733256836,2,True
2022-05-08,0.8529254225770249,0.8455994591219645,-0.8589219246069257,3,True
2022-05-09,0.8455994591219645,0.8386011969372553,-0.8276095862189803,3,True
2022-05-10,0.8386011969372553,0.8191936812568492,-2.3142723563102874,7,True
2022-05-11,0.8191936812568492,0.8124637506289755,-0.821531071571302,9,True
2022-05-12,0.8124637506289755,0.8073497280219754,-0.6294462495146425,0,True
2022-05-13,0.8073497280219754,0.8073497280219754,0.0,0,False
2022-05-14,0.8073497280219754,0.7976365781568392,-1.2030907459315787,5,True
2022-05-15,0.7976365781568392,0.8233166686065622,3.2195226689658574,1,True
2022-05-16,0.8233166686065622,0.8273798819022957,0.4935176768144922,8,True
2022-05-17,0.8273798819022957,0.8415055211022836,1.7072737093281054,4,True
2022-05-18,0.8415055211022836,0.8359500476998543,-0.6601826444528003,0,True
2022-05-19,0.8359500476998543,0.8486229378298173,1.5159865311130671,6,True
2022-05-20,0.8486229378298173,0.8590464052465021,1.228280188058628,1,True
2022-05-21,0.8590464052465021,0.8590464052465021,0.0,0,False
2022-05-22,0.8590464052465021,0.8590464052465021,0.0,0,False
2022-05-23,0.8590464052465021,0.8592719396944681,0.026254047114182555,1,True
2022-05-24,0.8592719396944681,0.8396783113026309,-2.280259308689181,10,True
2022-05-25,0.8396783113026309,0.8354866906373482,-0.4991936327115698,1,True
2022-05-26,0.8354866906373482,0.8093506401667089,-3.128242587646901,9,True
2022-05-27,0.8093506401667089,0.8105549593736322,0.14880067391744856,2,True
2022-05-28,0.8105549593736322,0.8111421589440504,0.07244414010765254,0,True
2022-05-29,0.8111421589440504,0.80709718468536,-0.49867636814195926,1,True
2022-05-30,0.80709718468536,0.80709718468536,0.0,0,False
2022-05-31,0.80709718468536,0.8057353456416573,-0.16873296915705938,1,True
2022-06-01,0.8057353456416573,0.8052608064072287,-0.058895174078610335,1,True
2022-06-02,0.8052608064072287,0.8063139555131712,0.13078360421403534,1,True
2022-06-03,0.8063139555131712,0.8076481043714333,0.16546270210751057,0,True
2022-06-04,0.8076481043714333,0.8076481043714333,0.0,0,False
2022-06-05,0.8076481043714333,0.8076481043714333,0.0,0,False
2022-06-06,0.8076481043714333,0.8093752353259173,0.21384696443114137,1,True
2022-06-07,0.8093752353259173,0.8052948167736986,-0.5041442305280697,4,True
2022-06-08,0.8052948167736986,0.8070086716331132,0.21282328207212764,3,True
2022-06-09,0.8070086716331132,0.8081166077644751,0.13728924735341153,3,True
2022-06-10,0.8081166077644751,0.8073610417966856,-0.09349714639322881,4,True
2022-06-11,0.8073610417966856,0.7888321169198982,-2.2949986335175976,5,True
2022-06-12,0.7888321169198982,0.7841258172898296,-0.5966161277059845,8,True
2022-06-13,0.7841258172898296,0.7611146154709808,-2.9346313195479645,4,True
2022-06-14,0.7611146154709808,0.7694020752058779,1.088858309437235,4,True
2022-06-15,0.7694020752058779,0.770502822042166,0.143065228410455,4,True
2022-06-16,0.770502822042166,0.7799056912039471,1.220354928338807,1,True
2022-06-17,0.7799056912039471,0.7799056912039471,0.0,0,False
2022-06-18,0.7799056912039471,0.7744376664842665,-0.7011135809561364,5,True
2022-06-19,0.7744376664842665,0.7783825774751095,0.509390382411512,2,True
2022-06-20,0.7783825774751095,0.779718508088246,0.17162904872176643,0,True
2022-06-21,0.779718508088246,0.779718508088246,0.0,0,False
2022-06-22,0.779718508088246,0.779718508088246,0.0,0,False
2022-06-23,0.779718508088246,0.779718508088246,0.0,0,False
2022-06-24,0.779718508088246,0.7758279308005921,-0.49897203250863775,1,True
2022-06-25,0.7758279308005921,0.7764113655300223,0.07520156290687918,3,True
2022-06-26,0.7764113655300223,0.7754839489997926,-0.11944911826434756,0,True
2022-06-27,0.7754839489997926,0.7736523132950578,-0.23619260038807433,4,True
2022-06-28,0.7736523132950578,0.7705571531391157,-0.4000712080546309,2,True
2022-06-29,0.7705571531391157,0.7736099903121578,0.39618568987458413,2,True
2022-06-30,0.7736099903121578,0.774863376877984,0.1620178877628442,1,True
2022-07-01,0.774863376877984,0.7743355024011617,-0.06812484530488438,1,True
2022-07-02,0.7743355024011617,0.7760933748336472,0.22701689733124475,1,True
2022-07-03,0.7760933748336472,0.7771853744645284,0.14070467115059326,1,True
2022-07-04,0.7771853744645284,0.7769922652341197,-0.024847254818938236,0,True
2022-07-05,0.7769922652341197,0.7769922652341197,0.0,0,False
2022-07-06,0.7769922652341197,0.7769922652341197,0.0,0,False
2022-07-07,0.7769922652341197,0.7769922652341197,0.0,0,False
2022-07-08,0.7769922652341197,0.7769922652341197,0.0,0,False
2022-07-09,0.7769922652341197,0.7769922652341197,0.0,0,False
2022-07-10,0.7769922652341197,0.7769922652341197,0.0,0,False
2022-07-11,0.7769922652341197,0.7731123692770578,-0.499348079854145,1,True
2022-07-12,0.7731123692770578,0.7766098876093745,0.45239456401238165,2,True
2022-07-13,0.7766098876093745,0.7815032870886077,0.6300974990540498,5,True
2022-07-14,0.7815032870886077,0.7959102092084496,1.8434883586367246,0,True
2022-07-15,0.7959102092084496,0.7959102092084496,0.0,0,False
2022-07-16,0.7959102092084496,0.7959102092084496,0.0,0,False
2022-07-17,0.7959102092084496,0.7959102092084496,0.0,0,False
2022-07-18,0.7959102092084496,0.7959102092084496,0.0,0,False
2022-07-19,0.7959102092084496,0.7959102092084496,0.0,0,False
2022-07-20,0.7959102092084496,0.7954645941459366,-0.055988107371574,1,True
2022-07-21,0.7954645941459366,0.7878265727938323,-0.9601962687358911,7,True
2022-07-22,0.7878265727938323,0.7878265727938323,0.0,0,False
2022-07-23,0.7878265727938323,0.7865418865393398,-0.163067139248263,1,True
2022-07-24,0.7865418865393398,0.789355758214731,0.3577522981988768,1,True
2022-07-25,0.789355758214731,0.7900234027768105,0.08458094530019444,1,True
2022-07-26,0.7900234027768105,0.7896077423415214,-0.05261368635764985,1,True
2022-07-27,0.7896077423415214,0.7882818987582186,-0.16791167464633716,0,True
2022-07-28,0.7882818987582186,0.7882818987582186,0.0,0,False
2022-07-29,0.7882818987582186,0.7882818987582186,0.0,0,False
2022-07-30,0.7882818987582186,0.7882818987582186,0.0,0,False
2022-07-31,0.7882818987582186,0.7875205343042193,-0.09658530218678019,1,True
2022-08-01,0.7875205343042193,0.7873299355765103,-0.024202381957871832,1,True
2022-08-02,0.7873299355765103,0.7874913497522686,0.02050146558192356,1,True
2022-08-03,0.7874913497522686,0.7887548401383423,0.1604449860269641,1,True
2022-08-04,0.7887548401383423,0.786848078543551,-0.2417432512308748,0,True
2022-08-05,0.786848078543551,0.7871944019812944,0.044014015816684626,1,True
2022-08-06,0.7871944019812944,0.7871944019812944,0.0,0,False
2022-08-07,0.7871944019812944,0.7880798920003287,0.11248682876878746,2,True
2022-08-08,0.7880798920003287,0.7868023660128176,-0.16210615198776201,0,True
2022-08-09,0.7868023660128176,0.7861551388029073,-0.0822604554673867,5,True
2022-08-10,0.7861551388029073,0.7914186725181177,0.6695286280549162,1,True
2022-08-11,0.7914186725181177,0.7933954341040389,0.24977444361169443,1,True
2022-08-12,0.7933954341040389,0.7946797906286296,0.16188100780301085,2,True
2022-08-13,0.7946797906286296,0.7946797906286296,0.0,0,False
2022-08-14,0.7946797906286296,0.7946797906286296,0.0,0,False
2022-08-15,0.7946797906286296,0.7946797906286296,0.0,0,False
2022-08-16,0.7946797906286296,0.7937921603216511,-0.11169659999485937,1,True
2022-08-17,0.7937921603216511,0.7913603323481311,-0.3063557559619401,1,True
2022-08-18,0.7913603323481311,0.7876144252761627,-0.4733503713603593,1,True
2022-08-19,0.7876144252761627,0.7720380038146143,-1.9776709214139654,10,True
2022-08-20,0.7720380038146143,0.7722094879429027,0.02221187654507517,1,True
2022-08-21,0.7722094879429027,0.7710881572079777,-0.1452106911962514,0,True
2022-08-22,0.7710881572079777,0.7710881572079777,0.0,0,False
2022-08-23,0.7710881572079777,0.7710881572079777,0.0,0,False
2022-08-24,0.7710881572079777,0.7710881572079777,0.0,0,False
2022-08-25,0.7710881572079777,0.7697079679293426,-0.17899241036624103,1,True
2022-08-26,0.7697079679293426,0.7682496762901474,-0.18946037977471963,0,True
2022-08-27,0.7682496762901474,0.7635100559547108,-0.6169374985387721,3,True
2022-08-28,0.7635100559547108,0.7635100559547108,0.0,0,False
2022-08-29,0.7635100559547108,0.7610763161600449,-0.3187567440251504,1,True
2022-08-30,0.7610763161600449,0.7572831178704248,-0.4983992024293227,1,True
2022-08-31,0.7572831178704248,0.7572831178704248,0.0,0,False
2022-09-01,0.7572831178704248,0.7572831178704248,0.0,0,False
2022-09-02,0.7572831178704248,0.7572831178704248,0.0,0,False
2022-09-03,0.7572831178704248,0.7572831178704248,0.0,0,False
2022-09-04,0.7572831178704248,0.7572831178704248,0.0,0,False
2022-09-05,0.7572831178704248,0.7572831178704248,0.0,0,False
2022-09-06,0.7572831178704248,0.754821313912272,-0.3250836972406912,1,True
2022-09-07,0.754821313912272,0.7439267776802264,-1.4433265239396587,5,True
2022-09-08,0.7439267776802264,0.7439263203950506,-6.146911087911988e-05,0,True
2022-09-09,0.7439263203950506,0.7439263203950506,0.0,0,False
2022-09-10,0.7439263203950506,0.7439263203950506,0.0,0,False
2022-09-11,0.7439263203950506,0.7439263203950506,0.0,0,False
2022-09-12,0.7439263203950506,0.7439263203950506,0.0,0,False
2022-09-13,0.7439263203950506,0.7374907628060989,-0.8650799699537637,4,True
2022-09-14,0.7374907628060989,0.7317774003113938,-0.7747029227818669,0,True
2022-09-15,0.7317774003113938,0.7346203443536018,0.3884984752191345,1,True
2022-09-16,0.7346203443536018,0.7328947028305385,-0.23490249573495658,1,True
2022-09-17,0.7328947028305385,0.7323349443682168,-0.07637638260445945,1,True
2022-09-18,0.7323349443682168,0.7316992156413218,-0.08680846541379017,0,True
2022-09-19,0.7316992156413218,0.7276318419054101,-0.5558805652602361,8,True
2022-09-20,0.7276318419054101,0.7276401311589284,0.0011392098367535297,0,True
2022-09-21,0.7276401311589284,0.7276401311589284,0.0,0,False
2022-09-22,0.7276401311589284,0.7257931453405294,-0.25383231893179037,1,True
2022-09-23,0.7257931453405294,0.7257931453405294,0.0,0,False
2022-09-24,0.7257931453405294,0.7257931453405294,0.0,0,False
2022-09-25,0.7257931453405294,0.7257931453405294,0.0,0,False
2022-09-26,0.7257931453405294,0.7257931453405294,0.0,0,False
2022-09-27,0.7257931453405294,0.7257931453405294,0.0,0,False
2022-09-28,0.7257931453405294,0.7257931453405294,0.0,0,False
2022-09-29,0.7257931453405294,0.7257931453405294,0.0,0,False
2022-09-30,0.7257931453405294,0.7257931453405294,0.0,0,False
2022-10-01,0.7257931453405294,0.7257931453405294,0.0,0,False
2022-10-02,0.7257931453405294,0.7257931453405294,0.0,0,False
2022-10-03,0.7257931453405294,0.7257931453405294,0.0,0,False
2022-10-04,0.7257931453405294,0.7257931453405294,0.0,0,False
2022-10-05,0.7257931453405294,0.7257931453405294,0.0,0,False
2022-10-06,0.7257931453405294,0.7257931453405294,0.0,0,False
2022-10-07,0.7257931453405294,0.7257931453405294,0.0,0,False
2022-10-08,0.7257931453405294,0.7239330678734681,-0.2562820383469666,1,True
2022-10-09,0.7239330678734681,0.7239330678734681,0.0,0,False
2022-10-10,0.7239330678734681,0.7239330678734681,0.0,0,False
2022-10-11,0.7239330678734681,0.7350020859909066,1.5290112592802663,6,True
2022-10-12,0.7350020859909066,0.7326657586472349,-0.3178667636734467,2,True
2022-10-13,0.7326657586472349,0.7339369585768398,0.17350339013413318,1,True
2022-10-14,0.7339369585768398,0.7405625133205944,0.902741668249285,0,True
2022-10-15,0.7405625133205944,0.7405625133205944,0.0,0,False
2022-10-16,0.7405625133205944,0.7405625133205944,0.0,0,False
2022-10-17,0.7405625133205944,0.7405625133205944,0.0,0,False
2022-10-18,0.7405625133205944,0.7405625133205944,0.0,0,False
2022-10-19,0.7405625133205944,0.7405625133205944,0.0,0,False
2022-10-20,0.7405625133205944,0.7442425381490954,0.4969229149879739,2,True
2022-10-21,0.7442425381490954,0.7430361445143072,-0.1620968398001521,0,True
2022-10-22,0.7430361445143072,0.7430361445143072,0.0,0,False
2022-10-23,0.7430361445143072,0.7430361445143072,0.0,0,False
2022-10-24,0.7430361445143072,0.7430361445143072,0.0,0,False
2022-10-25,0.7430361445143072,0.7425865078214675,-0.06051343479847038,1,True
2022-10-26,0.7425865078214675,0.7410864431908638,-0.20200537106503935,0,True
2022-10-27,0.7410864431908638,0.7410864431908638,0.0,0,False
2022-10-28,0.7410864431908638,0.7410864431908638,0.0,0,False
2022-10-29,0.7410864431908638,0.7410864431908638,0.0,0,False
2022-10-30,0.7410864431908638,0.7410864431908638,0.0,0,False
2022-10-31,0.7410864431908638,0.7410864431908638,0.0,0,False
2022-11-01,0.7410864431908638,0.7410864431908638,0.0,0,False
2022-11-02,0.7410864431908638,0.7448549500010792,0.5085110981101648,2,True
2022-11-03,0.7448549500010792,0.7444078972837468,-0.06001876168396647,0,True
2022-11-04,0.7444078972837468,0.7447490940231747,0.0458346480031846,2,True
2022-11-05,0.7447490940231747,0.7433609437718525,-0.18639166700067378,0,True
2022-11-06,0.7433609437718525,0.7436661564979168,0.041058482910827365,1,True
2022-11-07,0.7436661564979168,0.745788015850158,0.2853241785579552,3,True
2022-11-08,0.745788015850158,0.7280814091310437,-2.374214433967503,7,True
2022-11-09,0.7280814091310437,0.7102650339983084,-2.4470306354888116,5,True
2022-11-10,0.7102650339983084,0.7102650339983084,0.0,0,False
2022-11-11,0.7102650339983084,0.7063084004455931,-0.5570643862956581,10,True
2022-11-12,0.7063084004455931,0.700064884079753,-0.8839646196903805,5,True
2022-11-13,0.700064884079753,0.6962064254634287,-0.5511572861416014,1,True
2022-11-14,0.6962064254634287,0.6939023934256843,-0.3309409326710422,2,True
2022-11-15,0.6939023934256843,0.6929199771125345,-0.1415784586503155,0,True
2022-11-16,0.6929199771125345,0.6925920645456732,-0.047323295285517375,1,True
2022-11-17,0.6925920645456732,0.6933491986867832,0.10931891655538983,1,True
2022-11-18,0.6933491986867832,0.6949299892025933,0.22799341497821146,0,True
2022-11-19,0.6949299892025933,0.6948770494666544,-0.00761799559112486,3,True
2022-11-20,0.6948770494666544,0.6898384053324551,-0.7251130452598287,2,True
2022-11-21,0.6898384053324551,0.6786870741181219,-1.6165135382624873,4,True
2022-11-22,0.6786870741181219,0.6768010093876471,-0.2778990203880838,0,True
2022-11-23,0.6768010093876471,0.683326501941148,0.9641670835280003,1,True
2022-11-24,0.683326501941148,0.6806881470380506,-0.38610457747541016,1,True
2022-11-25,0.6806881470380506,0.6807188035355733,0.004503750749318414,1,True
2022-11-26,0.6807188035355733,0.679784288686828,-0.13728353673962967,0,True
2022-11-27,0.679784288686828,0.679784288686828,0.0,0,False
2022-11-28,0.679784288686828,0.6769655317421719,-0.4146546178790511,4,True
2022-11-29,0.6769655317421719,0.6769090255766291,-0.008346978227580237,0,True
2022-11-30,0.6769090255766291,0.6769090255766291,0.0,0,False
2022-12-01,0.6769090255766291,0.6768755699725538,-0.004942407740360366,1,True
2022-12-02,0.6768755699725538,0.6768755699725538,0.0,0,False
2022-12-03,0.6768755699725538,0.6768755699725538,0.0,0,False
2022-12-04,0.6768755699725538,0.6768755699725538,0.0,0,False
2022-12-05,0.6768755699725538,0.6768755699725538,0.0,0,False
2022-12-06,0.6768755699725538,0.6777515528911541,0.12941565000428312,2,True
2022-12-07,0.6777515528911541,0.6762490659835576,-0.22168697381617086,1,True
2022-12-08,0.6762490659835576,0.6743581250688998,-0.2796219632344443,1,True
2022-12-09,0.6743581250688998,0.6743581250688998,0.0,0,False
2022-12-10,0.6743581250688998,0.6743581250688998,0.0,0,False
2022-12-11,0.6743581250688998,0.6743581250688998,0.0,0,False
2022-12-12,0.6743581250688998,0.6731210782324943,-0.18344063642431463,1,True
2022-12-13,0.6731210782324943,0.6731210782324943,0.0,0,False
2022-12-14,0.6731210782324943,0.6731210782324943,0.0,0,False
2022-12-15,0.6731210782324943,0.6731210782324943,0.0,0,False
2022-12-16,0.6731210782324943,0.6742671215108775,0.17025811781032907,5,True
2022-12-17,0.6742671215108775,0.6682462666948553,-0.8929480059076345,5,True
2022-12-18,0.6682462666948553,0.6682620207542905,0.0023575230001959824,0,True
2022-12-19,0.6682620207542905,0.6682620207542905,0.0,0,False
2022-12-20,0.6682620207542905,0.6682620207542905,0.0,0,False
2022-12-21,0.6682620207542905,0.6682620207542905,0.0,0,False
2022-12-22,0.6682620207542905,0.6682620207542905,0.0,0,False
2022-12-23,0.6682620207542905,0.6682620207542905,0.0,0,False
2022-12-24,0.6682620207542905,0.6682620207542905,0.0,0,False
2022-12-25,0.6682620207542905,0.6682620207542905,0.0,0,False
2022-12-26,0.6682620207542905,0.6682620207542905,0.0,0,False
2022-12-27,0.6682620207542905,0.6682620207542905,0.0,0,False
2022-12-28,0.6682620207542905,0.6696123722361987,0.2020691644849082,4,True
2022-12-29,0.6696123722361987,0.665071604046698,-0.6781189204041582,0,True
2022-12-30,0.665071604046698,0.665071604046698,0.0,0,False
2022-12-31,0.665071604046698,0.665071604046698,0.0,0,False
2023-01-01,0.665071604046698,0.665071604046698,0.0,0,False
2023-01-02,0.665071604046698,0.665071604046698,0.0,0,False
2023-01-03,0.665071604046698,0.665071604046698,0.0,0,False
2023-01-04,0.665071604046698,0.665071604046698,0.0,0,False
2023-01-05,0.665071604046698,0.665071604046698,0.0,0,False
2023-01-06,0.665071604046698,0.6645189320525995,-0.08309962276779048,1,True
2023-01-07,0.6645189320525995,0.6657210021912472,0.18089328695793938,0,True
2023-01-08,0.6657210021912472,0.6657210021912472,0.0,0,False
2023-01-09,0.6657210021912472,0.6657210021912472,0.0,0,False
2023-01-10,0.6657210021912472,0.6646978256096574,-0.15369450238492677,2,True
2023-01-11,0.6646978256096574,0.6634280266879818,-0.19103401165949663,1,True
2023-01-12,0.6634280266879818,0.6627357088995471,-0.10435461882594144,0,True
2023-01-13,0.6627357088995471,0.6627357088995471,0.0,0,False
2023-01-14,0.6627357088995471,0.6645844715899509,0.2789592692196363,4,True
2023-01-15,0.6645844715899509,0.6632911452050972,-0.19460677162069784,1,True
2023-01-16,0.6632911452050972,0.6632911452050972,0.0,0,False
2023-01-17,0.6632911452050972,0.6632911452050972,0.0,0,False
2023-01-18,0.6632911452050972,0.6632911452050972,0.0,0,False
2023-01-19,0.6632911452050972,0.6542526246588076,-1.3626777036944815,5,True
2023-01-20,0.6542526246588076,0.6542526246588076,0.0,0,False
2023-01-21,0.6542526246588076,0.6549038858722048,0.09954277428185776,1,True
2023-01-22,0.6549038858722048,0.6541456617651376,-0.1157763945861201,0,True
2023-01-23,0.6541456617651376,0.6541456617651376,0.0,0,False
2023-01-24,0.6541456617651376,0.6541456617651376,0.0,0,False
2023-01-25,0.6541456617651376,0.6513306739594819,-0.430330424887293,6,True
2023-01-26,0.6513306739594819,0.6513277115197678,-0.0004548288346506446,0,True
2023-01-27,0.6513277115197678,0.6513277115197678,0.0,0,False
2023-01-28,0.6513277115197678,0.6513277115197678,0.0,0,False
2023-01-29,0.6513277115197678,0.6513277115197678,0.0,0,False
2023-01-30,0.6513277115197678,0.6539166643567722,0.3974885132652428,4,True
2023-01-31,0.6539166643567722,0.6548020813467259,0.1354021144001072,2,True
2023-02-01,0.6548020813467259,0.6633611198942946,1.3071184089649357,0,True
2023-02-02,0.6633611198942946,0.6633611198942946,0.0,0,False
2023-02-03,0.6633611198942946,0.6637443649237531,0.057773212502953974,1,True
2023-02-04,0.6637443649237531,0.665085153946482,0.20200382761561553,0,True
2023-02-05,0.665085153946482,0.6670955019782667,0.30226926880800864,5,True
2023-02-06,0.6670955019782667,0.6591918794399138,-1.1847812666874291,0,True
2023-02-07,0.6591918794399138,0.6591918794399138,0.0,0,False
2023-02-08,0.6591918794399138,0.6576269207584603,-0.23740563715425322,1,True
2023-02-09,0.6576269207584603,0.6637196776389774,0.9264761961828016,4,True
2023-02-10,0.6637196776389774,0.6452584016247496,-2.7814869192818614,4,True
2023-02-11,0.6452584016247496,0.6452584016247496,0.0,0,False
2023-02-12,0.6452584016247496,0.6452584016247496,0.0,0,False
2023-02-13,0.6452584016247496,0.6460649163348231,0.12499096610640859,3,True
2023-02-14,0.6460649163348231,0.645986781046569,-0.012094030534470779,0,True
2023-02-15,0.645986781046569,0.645986781046569,0.0,0,False
2023-02-16,0.645986781046569,0.645986781046569,0.0,0,False
2023-02-17,0.645986781046569,0.6488236819157551,0.4391577277463865,1,True
2023-02-18,0.6488236819157551,0.6488236819157551,0.0,0,False
2023-02-19,0.6488236819157551,0.6488236819157551,0.0,0,False
2023-02-20,0.6488236819157551,0.6501498083875665,0.20438934471316283,1,True
2023-02-21,0.6501498083875665,0.6481932192469231,-0.30094435396297303,1,True
2023-02-22,0.6481932192469231,0.6481932192469231,0.0,0,False
2023-02-23,0.6481932192469231,0.6537647361994292,0.8595457013541585,1,True
2023-02-24,0.6537647361994292,0.6537647361994292,0.0,0,False
2023-02-25,0.6537647361994292,0.6531944431035903,-0.08723215925566796,1,True
2023-02-26,0.6531944431035903,0.6531944431035903,0.0,0,False
2023-02-27,0.6531944431035903,0.6531944431035903,0.0,0,False
2023-02-28,0.6531944431035903,0.6531944431035903,0.0,0,False
2023-03-01,0.6531944431035903,0.6531944431035903,0.0,0,False
2023-03-02,0.6531944431035903,0.6517860558235201,-0.2156153186757659,1,True
2023-03-03,0.6517860558235201,0.6459929358216665,-0.8888069866014758,9,True
2023-03-04,0.6459929358216665,0.6461061706388813,0.01752880115799549,0,True
2023-03-05,0.6461061706388813,0.6510741327561541,0.7689080128054471,3,True
2023-03-06,0.6510741327561541,0.6503298415472727,-0.11431742891253593,0,True
2023-03-07,0.6503298415472727,0.6503298415472727,0.0,0,False
2023-03-08,0.6503298415472727,0.6503298415472727,0.0,0,False
2023-03-09,0.6503298415472727,0.6503298415472727,0.0,0,False
2023-03-10,0.6503298415472727,0.6390495439523016,-1.7345502042675487,8,True
2023-03-11,0.6390495439523016,0.6383039865072963,-0.11666661091632724,5,True
2023-03-12,0.6383039865072963,0.6409531107332976,0.4150254866019276,0,True
2023-03-13,0.6409531107332976,0.6409531107332976,0.0,0,False
2023-03-14,0.6409531107332976,0.6409531107332976,0.0,0,False
2023-03-15,0.6409531107332976,0.6397860877766417,-0.18207618265878578,1,True
2023-03-16,0.6397860877766417,0.6389539674783591,-0.13006226833945922,1,True
2023-03-17,0.6389539674783591,0.6389128175799214,-0.006440197656198965,1,True
2023-03-18,0.6389128175799214,0.6488189320878466,1.5504642003345115,1,True
2023-03-19,0.6488189320878466,0.6454465695817055,-0.5197694363339611,1,True
2023-03-20,0.6454465695817055,0.6454465695817055,0.0,0,False
2023-03-21,0.6454465695817055,0.6454465695817055,0.0,0,False
2023-03-22,0.6454465695817055,0.6454465695817055,0.0,0,False
2023-03-23,0.6454465695817055,0.6559509513419771,1.6274595381425838,6,True
2023-03-24,0.6559509513419771,0.6513259403094757,-0.7050848882891869,1,True
2023-03-25,0.6513259403094757,0.6486801685778684,-0.4062131673045588,1,True
2023-03-26,0.6486801685778684,0.6488600454693904,0.027729673302068214,0,True
2023-03-27,0.6488600454693904,0.6456224815297658,-0.4989618273201768,1,True
2023-03-28,0.6456224815297658,0.6528587322638004,1.1208176513445967,4,True
2023-03-29,0.6528587322638004,0.653134689626433,0.042269077366197116,0,True
2023-03-30,0.653134689626433,0.653134689626433,0.0,0,False
2023-03-31,0.653134689626433,0.653134689626433,0.0,0,False
2023-04-01,0.653134689626433,0.653134689626433,0.0,0,False
2023-04-02,0.653134689626433,0.653134689626433,0.0,0,False
2023-04-03,0.653134689626433,0.653134689626433,0.0,0,False
2023-04-04,0.653134689626433,0.653134689626433,0.0,0,False
2023-04-05,0.653134689626433,0.653134689626433,0.0,0,False
2023-04-06,0.653134689626433,0.653134689626433,0.0,0,False
2023-04-07,0.653134689626433,0.6515375377729796,-0.24453636881036633,1,True
2023-04-08,0.6515375377729796,0.6515375377729796,0.0,0,False
2023-04-09,0.6515375377729796,0.6515375377729796,0.0,0,False
2023-04-10,0.6515375377729796,0.6515375377729796,0.0,0,False
2023-04-11,0.6515375377729796,0.6515375377729796,0.0,0,False
2023-04-12,0.6515375377729796,0.6541014948233617,0.3935240721733235,1,True
2023-04-13,0.6541014948233617,0.6543392861949416,0.036353895146534754,0,True
2023-04-14,0.6543392861949416,0.6580611990815782,0.5688047416929409,1,True
2023-04-15,0.6580611990815782,0.6573852085543359,-0.10272456850302092,0,True
2023-04-16,0.6573852085543359,0.6573852085543359,0.0,0,False
2023-04-17,0.6573852085543359,0.6573852085543359,0.0,0,False
2023-04-18,0.6573852085543359,0.6573852085543359,0.0,0,False
2023-04-19,0.6573852085543359,0.6527835940599627,-0.6999875315863435,7,True
2023-04-20,0.6527835940599627,0.6465422990225076,-0.956104763392962,0,True
2023-04-21,0.6465422990225076,0.6465422990225076,0.0,0,False
2023-04-22,0.6465422990225076,0.6465422990225076,0.0,0,False
2023-04-23,0.6465422990225076,0.6465422990225076,0.0,0,False
2023-04-24,0.6465422990225076,0.6465422990225076,0.0,0,False
2023-04-25,0.6465422990225076,0.6465422990225076,0.0,0,False
2023-04-26,0.6465422990225076,0.6465422990225076,0.0,0,False
2023-04-27,0.6465422990225076,0.643104166734954,-0.531772212390691,8,True
2023-04-28,0.643104166734954,0.6476798662597409,0.7115020802956229,0,True
2023-04-29,0.6476798662597409,0.6476798662597409,0.0,0,False
2023-04-30,0.6476798662597409,0.6476798662597409,0.0,0,False
2023-05-01,0.6476798662597409,0.6476798662597409,0.0,0,False
2023-05-02,0.6476798662597409,0.6476798662597409,0.0,0,False
2023-05-03,0.6476798662597409,0.6476798662597409,0.0,0,False
2023-05-04,0.6476798662597409,0.6476798662597409,0.0,0,False
2023-05-05,0.6476798662597409,0.6476798662597409,0.0,0,False
2023-05-06,0.6476798662597409,0.6444501789877134,-0.4986548818752934,1,True
2023-05-07,0.6444501789877134,0.6444501789877134,0.0,0,False
2023-05-08,0.6444501789877134,0.647956052572965,0.5440100258422564,6,True
2023-05-09,0.647956052572965,0.6456472567873786,-0.3563198115703048,6,True
2023-05-10,0.6456472567873786,0.6416388413324344,-0.6208367514622837,1,True
2023-05-11,0.6416388413324344,0.6445532799689833,0.4542179258500978,5,True
2023-05-12,0.6445532799689833,0.6415973742312259,-0.4585975790705188,0,True
2023-05-13,0.6415973742312259,0.6415973742312259,0.0,0,False
2023-05-14,0.6415973742312259,0.6415973742312259,0.0,0,False
2023-05-15,0.6415973742312259,0.6415973742312259,0.0,0,False
2023-05-16,0.6415973742312259,0.6415973742312259,0.0,0,False
2023-05-17,0.6415973742312259,0.6415973742312259,0.0,0,False
2023-05-18,0.6415973742312259,0.6400390963733708,-0.24287472493512707,1,True
2023-05-19,0.6400390963733708,0.6400390963733708,0.0,0,False
2023-05-20,0.6400390963733708,0.6400390963733708,0.0,0,False
2023-05-21,0.6400390963733708,0.6400390963733708,0.0,0,False
2023-05-22,0.6400390963733708,0.6400390963733708,0.0,0,False
2023-05-23,0.6400390963733708,0.6400390963733708,0.0,0,False
2023-05-24,0.6400390963733708,0.6400390963733708,0.0,0,False
2023-05-25,0.6400390963733708,0.6400390963733708,0.0,0,False
2023-05-26,0.6400390963733708,0.6410021810588392,0.15047279001010327,1,True
2023-05-27,0.6410021810588392,0.6426745789969228,0.2609036267741116,0,True
2023-05-28,0.6426745789969228,0.6426745789969228,0.0,0,False
2023-05-29,0.6426745789969228,0.6426745789969228,0.0,0,False
2023-05-30,0.6426745789969228,0.6443037864588178,0.25350426407682036,2,True
2023-05-31,0.6443037864588178,0.6412489015176643,-0.4741373565323226,1,True
2023-06-01,0.6412489015176643,0.6412489015176643,0.0,0,False
2023-06-02,0.6412489015176643,0.6412489015176643,0.0,0,False
2023-06-03,0.6412489015176643,0.6412489015176643,0.0,0,False
2023-06-04,0.6412489015176643,0.6382463113900949,-0.468240977951484,1,True
2023-06-05,0.6382463113900949,0.6382463113900949,0.0,0,False
2023-06-06,0.6382463113900949,0.6271130128795925,-1.7443576738037314,9,True
2023-06-07,0.6271130128795925,0.62685298489397,-0.041464294358761755,0,True
2023-06-08,0.62685298489397,0.62685298489397,0.0,0,False
2023-06-09,0.62685298489397,0.62685298489397,0.0,0,False
2023-06-10,0.62685298489397,0.6342595279589153,1.1815438776602516,6,True
2023-06-11,0.6342595279589153,0.6337272952674672,-0.08391402383198798,1,True
2023-06-12,0.6337272952674672,0.6337207847646363,-0.0010273350823708505,0,True
2023-06-13,0.6337207847646363,0.6337207847646363,0.0,0,False
2023-06-14,0.6337207847646363,0.6337207847646363,0.0,0,False
2023-06-15,0.6337207847646363,0.6365039243795878,0.43917442537175777,4,True
2023-06-16,0.6365039243795878,0.6392262359821641,0.4276975362296209,0,True
2023-06-17,0.6392262359821641,0.6392262359821641,0.0,0,False
2023-06-18,0.6392262359821641,0.6392262359821641,0.0,0,False
2023-06-19,0.6392262359821641,0.6392262359821641,0.0,0,False
2023-06-20,0.6392262359821641,0.6371575234044374,-0.3236276080796574,1,True
2023-06-21,0.6371575234044374,0.6371575234044374,0.0,0,False
2023-06-22,0.6371575234044374,0.6371575234044374,0.0,0,False
2023-06-23,0.6371575234044374,0.6371575234044374,0.0,0,False
2023-06-24,0.6371575234044374,0.6371575234044374,0.0,0,False
2023-06-25,0.6371575234044374,0.6367740557117708,-0.06018412693578057,3,True
2023-06-26,0.6367740557117708,0.6354623028934453,-0.2059997273066161,0,True
2023-06-27,0.6354623028934453,0.6354623028934453,0.0,0,False
2023-06-28,0.6354623028934453,0.6354623028934453,0.0,0,False
2023-06-29,0.6354623028934453,0.634701905687928,-0.11966047428070281,2,True
2023-06-30,0.634701905687928,0.6270696420551467,-1.2024957802055036,7,True
2023-07-01,0.6270696420551467,0.6346560355374388,1.2098167370100388,0,True
2023-07-02,0.6346560355374388,0.6346560355374388,0.0,0,False
2023-07-03,0.6346560355374388,0.6346560355374388,0.0,0,False
2023-07-04,0.6346560355374388,0.6346560355374388,0.0,0,False
2023-07-05,0.6346560355374388,0.634111982694551,-0.08572404773981024,1,True
2023-07-06,0.634111982694551,0.6349270823566205,0.12854191125766246,1,True
2023-07-07,0.6349270823566205,0.6331541191741996,-0.2792388656411293,0,True
2023-07-08,0.6331541191741996,0.6331541191741996,0.0,0,False
2023-07-09,0.6331541191741996,0.6331541191741996,0.0,0,False
2023-07-10,0.6331541191741996,0.6331541191741996,0.0,0,False
2023-07-11,0.6331541191741996,0.6331541191741996,0.0,0,False
2023-07-12,0.6331541191741996,0.6320740235709517,-0.1705896827547626,1,True
2023-07-13,0.6320740235709517,0.6320740235709517,0.0,0,False
2023-07-14,0.6320740235709517,0.6320740235709517,0.0,0,False
2023-07-15,0.6320740235709517,0.6381287126767498,0.9579082322655363,5,True
2023-07-16,0.6381287126767498,0.6379711395168708,-0.024693005775899834,1,True
2023-07-17,0.6379711395168708,0.6371890010649547,-0.12259777965950569,0,True
2023-07-18,0.6371890010649547,0.6371890010649547,0.0,0,False
2023-07-19,0.6371890010649547,0.6371890010649547,0.0,0,False
2023-07-20,0.6371890010649547,0.6371890010649547,0.0,0,False
2023-07-21,0.6371890010649547,0.6371890010649547,0.0,0,False
2023-07-22,0.6371890010649547,0.6371890010649547,0.0,0,False
2023-07-23,0.6371890010649547,0.6371890010649547,0.0,0,False
2023-07-24,0.6371890010649547,0.6370560452326842,-0.020865996124896924,2,True
2023-07-25,0.6370560452326842,0.637612272041005,0.08731206814269754,0,True
2023-07-26,0.637612272041005,0.637612272041005,0.0,0,False
2023-07-27,0.637612272041005,0.637612272041005,0.0,0,False
2023-07-28,0.637612272041005,0.637612272041005,0.0,0,False
2023-07-29,0.637612272041005,0.637612272041005,0.0,0,False
2023-07-30,0.637612272041005,0.637612272041005,0.0,0,False
2023-07-31,0.637612272041005,0.6344318652222694,-0.49879949903648413,1,True
2023-08-01,0.6344318652222694,0.6318183952359976,-0.411938638258047,2,True
2023-08-02,0.6318183952359976,0.6318183952359976,0.0,0,False
2023-08-03,0.6318183952359976,0.6318183952359976,0.0,0,False
2023-08-04,0.6318183952359976,0.6318183952359976,0.0,0,False
2023-08-05,0.6318183952359976,0.6318183952359976,0.0,0,False
2023-08-06,0.6318183952359976,0.6318183952359976,0.0,0,False
2023-08-07,0.6318183952359976,0.6321497846270118,0.052450101724299536,1,True
2023-08-08,0.6321497846270118,0.6315665734143869,-0.09225838983223378,1,True
2023-08-09,0.6315665734143869,0.6316515616008295,0.013456726498839444,0,True
2023-08-10,0.6316515616008295,0.6289262600640324,-0.4314564710154678,1,True
2023-08-11,0.6289262600640324,0.6286449548655252,-0.044727850682935166,0,True
2023-08-12,0.6286449548655252,0.6286449548655252,0.0,0,False
2023-08-13,0.6286449548655252,0.630440567917731,0.2856323013981532,1,True
2023-08-14,0.630440567917731,0.6299159607723375,-0.08321278358183193,0,True
2023-08-15,0.6299159607723375,0.6299159607723375,0.0,0,False
2023-08-16,0.6299159607723375,0.6324985487668116,0.409989293064994,6,True
2023-08-17,0.6324985487668116,0.6358762420460424,0.5340238781284867,4,True
2023-08-18,0.6358762420460424,0.6517951154087992,2.5034546520459777,5,True
2023-08-19,0.6517951154087992,0.6517951154087992,0.0,0,False
2023-08-20,0.6517951154087992,0.6517951154087992,0.0,0,False
2023-08-21,0.6517951154087992,0.6517951154087992,0.0,0,False
2023-08-22,0.6517951154087992,0.6528583469495776,0.16312358218755207,1,True
2023-08-23,0.6528583469495776,0.6528583469495776,0.0,0,False
2023-08-24,0.6528583469495776,0.6528583469495776,0.0,0,False
2023-08-25,0.6528583469495776,0.6406888416317393,-1.8640345757543253,4,True
2023-08-26,0.6406888416317393,0.6406888416317393,0.0,0,False
2023-08-27,0.6406888416317393,0.6406888416317393,0.0,0,False
2023-08-28,0.6406888416317393,0.6390313621661967,-0.2587027208592052,1,True
2023-08-29,0.6390313621661967,0.6429362247707235,0.6110596186218675,1,True
2023-08-30,0.6429362247707235,0.6401596708910293,-0.43185525604571007,1,True
2023-08-31,0.6401596708910293,0.6420603431005668,0.2969059589292833,1,True
2023-09-01,0.6420603431005668,0.6396235333938934,-0.37952970197564495,0,True
2023-09-02,0.6396235333938934,0.6378342334459816,-0.2797426696321992,1,True
2023-09-03,0.6378342334459816,0.6372374496537057,-0.09356408937972738,0,True
2023-09-04,0.6372374496537057,0.6359082606876267,-0.20858613485463806,2,True
2023-09-05,0.6359082606876267,0.6381844807962599,0.3579478754013765,0,True
2023-09-06,0.6381844807962599,0.6385416163475184,0.05596117768531528,2,True
2023-09-07,0.6385416163475184,0.6379282067701026,-0.09606415019971504,1,True
2023-09-08,0.6379282067701026,0.6372969204962441,-0.09895882752305463,1,True
2023-09-09,0.6372969204962441,0.6369445736583953,-0.055287704446216335,2,True
2023-09-10,0.6369445736583953,0.6336918171865504,-0.5106812439208186,3,True
2023-09-11,0.6336918171865504,0.6330688924614002,-0.09830089457615321,0,True
2023-09-12,0.6330688924614002,0.6330688924614002,0.0,0,False
2023-09-13,0.6330688924614002,0.6330688924614002,0.0,0,False
2023-09-14,0.6330688924614002,0.6339019555527189,0.1315912219410631,2,True
2023-09-15,0.6339019555527189,0.6420781352015074,1.2898177040106207,0,True
2023-09-16,0.6420781352015074,0.6400460242511046,-0.31648966675450474,2,True
2023-09-17,0.6400460242511046,0.6405460392596312,0.0781217271229373,1,True
2023-09-18,0.6405460392596312,0.6405460392596312,0.0,0,False
2023-09-19,0.6405460392596312,0.6405460392596312,0.0,0,False
2023-09-20,0.6405460392596312,0.6417601387321996,0.18954132851587424,1,True
2023-09-21,0.6417601387321996,0.6409018880453896,-0.13373387267484604,0,True
2023-09-22,0.6409018880453896,0.6478158459150662,1.078785692262918,1,True
2023-09-23,0.6478158459150662,0.647143053252511,-0.10385554271290509,0,True
2023-09-24,0.647143053252511,0.6451985271377815,-0.3004785580184133,1,True
2023-09-25,0.6451985271377815,0.6449429384935771,-0.03961395345061236,1,True
2023-09-26,0.6449429384935771,0.6449429384935771,0.0,0,False
2023-09-27,0.6449429384935771,0.6449429384935771,0.0,0,False
2023-09-28,0.6449429384935771,0.6449429384935771,0.0,0,False
2023-09-29,0.6449429384935771,0.6417275347034739,-0.4985563215272326,1,True
2023-09-30,0.6417275347034739,0.6417275347034739,0.0,0,False
2023-10-01,0.6417275347034739,0.6413966582661124,-0.051560268099515305,1,True
2023-10-02,0.6413966582661124,0.6431221195096207,0.2690162509066951,0,True
2023-10-03,0.6431221195096207,0.643256272381176,0.02085962642017769,3,True
2023-10-04,0.643256272381176,0.6391611247598349,-0.6366277014574484,3,True
2023-10-05,0.6391611247598349,0.6350889979920655,-0.6371048879575514,0,True
2023-10-06,0.6350889979920655,0.6350889979920655,0.0,0,False
2023-10-07,0.6350889979920655,0.6334444108509042,-0.258953807475959,1,True
2023-10-08,0.6334444108509042,0.6314815112513735,-0.30987716773661633,1,True
2023-10-09,0.6314815112513735,0.6303638294429117,-0.17699359182298258,1,True
2023-10-10,0.6303638294429117,0.6275789376233304,-0.4417911830446375,1,True
2023-10-11,0.6275789376233304,0.6275789376233304,0.0,0,False
2023-10-12,0.6275789376233304,0.6275789376233304,0.0,0,False
2023-10-13,0.6275789376233304,0.6275789376233304,0.0,0,False
2023-10-14,0.6275789376233304,0.6275789376233304,0.0,0,False
2023-10-15,0.6275789376233304,0.6275789376233304,0.0,0,False
2023-10-16,0.6275789376233304,0.6275789376233304,0.0,0,False
2023-10-17,0.6275789376233304,0.6275789376233304,0.0,0,False
2023-10-18,0.6275789376233304,0.6243924893263857,-0.5077366536569761,3,True
2023-10-19,0.6243924893263857,0.6183411817145094,-0.9691512494656496,3,True
2023-10-20,0.6183411817145094,0.6172462592036335,-0.17707416928626207,0,True
2023-10-21,0.6172462592036335,0.6180179665638964,0.12502422635312094,2,True
2023-10-22,0.6180179665638964,0.6180179665638964,0.0,0,False
2023-10-23,0.6180179665638964,0.6180179665638964,0.0,0,False
2023-10-24,0.6180179665638964,0.6168822058965429,-0.18377470054280476,1,True
2023-10-25,0.6168822058965429,0.6181489993519604,0.2053541897154343,3,True
2023-10-26,0.6181489993519604,0.6175314099459045,-0.09990947274902684,1,True
2023-10-27,0.6175314099459045,0.6126790799705694,-0.785762456319461,5,True
2023-10-28,0.6126790799705694,0.6136351119810621,0.15604123622741106,1,True
2023-10-29,0.6136351119810621,0.6136351119810621,0.0,0,False
2023-10-30,0.6136351119810621,0.6136351119810621,0.0,0,False
2023-10-31,0.6136351119810621,0.6122449193537033,-0.22655037174629244,1,True
2023-11-01,0.6122449193537033,0.611004522106245,-0.2025982100051782,1,True
2023-11-02,0.611004522106245,0.6102751337092214,-0.1193752862105324,2,True
2023-11-03,0.6102751337092214,0.6086753067053593,-0.2621484827897924,0,True
2023-11-04,0.6086753067053593,0.6084089506018379,-0.043759965385026245,1,True
2023-11-05,0.6084089506018379,0.6081648545106432,-0.04012039779381915,1,True
2023-11-06,0.6081648545106432,0.6052300123120468,-0.4825734629071765,3,True
2023-11-07,0.6052300123120468,0.5994119431693848,-0.9612988490832142,2,True
2023-11-08,0.5994119431693848,0.5994119431693848,0.0,0,False
2023-11-09,0.5994119431693848,0.5994119431693848,0.0,0,False
2023-11-10,0.5994119431693848,0.6044562931886216,0.841549801721464,5,True
2023-11-11,0.6044562931886216,0.6044562931886216,0.0,0,False
2023-11-12,0.6044562931886216,0.6052302022586317,0.12803391721303292,1,True
2023-11-13,0.6052302022586317,0.6029984726763918,-0.3687406170265972,1,True
2023-11-14,0.6029984726763918,0.6040630798176685,0.17655221190717718,2,True
2023-11-15,0.6040630798176685,0.6034069061063232,-0.1086266870578112,1,True
2023-11-16,0.6034069061063232,0.6035095000327523,0.017002444849545384,0,True
2023-11-17,0.6035095000327523,0.6029491658885323,-0.09284595258062245,2,True
2023-11-18,0.6029491658885323,0.5983121623793577,-0.7690538061100649,3,True
2023-11-19,0.5983121623793577,0.5963975296885894,-0.32000564440378687,2,True
2023-11-20,0.5963975296885894,0.5974983708536159,0.18458177813065468,0,True
2023-11-21,0.5974983708536159,0.6020673844245642,0.7646905487659783,2,True
2023-11-22,0.6020673844245642,0.5957933936875484,-1.0420745084891658,4,True
2023-11-23,0.5957933936875484,0.5940416965422721,-0.2940108372861294,2,True
2023-11-24,0.5940416965422721,0.6016222320362771,1.2760948495920132,1,True
2023-11-25,0.6016222320362771,0.5990039460981492,-0.4352043190401833,2,True
2023-11-26,0.5990039460981492,0.5979315020861693,-0.17903788764093154,0,True
2023-11-27,0.5979315020861693,0.5979315020861693,0.0,0,False
2023-11-28,0.5979315020861693,0.5980335326606973,0.01706392357183617,1,True
2023-11-29,0.5980335326606973,0.5985551924273551,0.08722918334309604,1,True
2023-11-30,0.5985551924273551,0.5983594178924022,-0.03270785007460919,0,True
2023-12-01,0.5983594178924022,0.5983594178924022,0.0,0,False
2023-12-02,0.5983594178924022,0.5983594178924022,0.0,0,False
2023-12-03,0.5983594178924022,0.5992601990405242,0.15054181837645952,2,True
2023-12-04,0.5992601990405242,0.6066664431807228,1.2358978874380089,4,True
2023-12-05,0.6066664431807228,0.606516994241872,-0.024634449544835846,0,True
2023-12-06,0.606516994241872,0.6051678155210717,-0.22244697734921104,1,True
2023-12-07,0.6051678155210717,0.6052784033393266,0.01827390938820006,2,True
2023-12-08,0.6052784033393266,0.6036209701695212,-0.27382988731488034,0,True
2023-12-09,0.6036209701695212,0.6036209701695212,0.0,0,False
2023-12-10,0.6036209701695212,0.6014179032726189,-0.3649752089102565,1,True
2023-12-11,0.6014179032726189,0.6077010009307054,1.0447141037699392,5,True
2023-12-12,0.6077010009307054,0.6076906203570148,-0.0017081712346600497,0,True
2023-12-13,0.6076906203570148,0.607016598440658,-0.11091530686466733,3,True
2023-12-14,0.607016598440658,0.6097512163198276,0.45050133492139377,0,True
2023-12-15,0.6097512163198276,0.6097512163198276,0.0,0,False
2023-12-16,0.6097512163198276,0.6161287030900334,1.045916203119246,3,True
2023-12-17,0.6161287030900334,0.6118073921533587,-0.701364976993013,2,True
2023-12-18,0.6118073921533587,0.6107984206151025,-0.1649165327514135,2,True
2023-12-19,0.6107984206151025,0.6331344271147636,3.656854003841037,1,True
2023-12-20,0.6331344271147636,0.6348388999367938,0.2692118370181795,0,True
2023-12-21,0.6348388999367938,0.6340617777731054,-0.12241249926017161,1,True
2023-12-22,0.6340617777731054,0.6329255495255338,-0.17919835060269396,0,True
2023-12-23,0.6329255495255338,0.6327790254164154,-0.023150291409190782,1,True
2023-12-24,0.6327790254164154,0.6321172908340339,-0.10457593501080886,1,True
2023-12-25,0.6321172908340339,0.6320706649435964,-0.007376145394777378,1,True
2023-12-26,0.6320706649435964,0.6320706649435964,0.0,0,False
2023-12-27,0.6320706649435964,0.6228664103091058,-1.4562065833749638,7,True
2023-12-28,0.6228664103091058,0.6215376078484867,-0.21333667037202186,1,True
2023-12-29,0.6215376078484867,0.6215376078484867,0.0,0,False
2023-12-30,0.6215376078484867,0.6210059132088215,-0.08554504714617384,1,True
2023-12-31,0.6210059132088215,0.6214202860486608,0.06672606991746655,0,True
