day,start_equity,end_equity,return_pct,entries,active
2024-01-02,1.0,1.0,0.0,0,False
2024-01-03,1.0,0.9935142824198505,-0.6485717580149486,6,True
2024-01-04,0.9935142824198505,0.9988284641940535,0.5348873054204617,2,True
2024-01-05,0.9988284641940535,0.9968948699435509,-0.19358621823645228,1,True
2024-01-06,0.9968948699435509,0.9968448976766661,-0.00501279205977756,2,True
2024-01-07,0.9968448976766661,0.9950354354999302,-0.18151892846651752,1,True
2024-01-08,0.9950354354999302,1.0016618575679825,0.6659483503442365,3,True
2024-01-09,1.0016618575679825,1.0054282143729523,0.3760108040965493,0,True
2024-01-10,1.0054282143729523,1.0054282143729523,0.0,0,False
2024-01-11,1.0054282143729523,1.006248752196723,0.08161078155961565,1,True
2024-01-12,1.006248752196723,1.0044432447333735,-0.17942953563001574,2,True
2024-01-13,1.0044432447333735,1.0086852271075943,0.4223217584928607,4,True
2024-01-14,1.0086852271075943,1.0136025450764434,0.48749776805490086,0,True
2024-01-15,1.0136025450764434,1.0136025450764434,0.0,0,False
2024-01-16,1.0136025450764434,1.0132810334234919,-0.03171969669110153,1,True
2024-01-17,1.0132810334234919,1.0176226790463982,0.42847398497509737,0,True
2024-01-18,1.0176226790463982,1.0176226790463982,0.0,0,False
2024-01-19,1.0176226790463982,1.0176226790463982,0.0,0,False
2024-01-20,1.0176226790463982,1.031991821368437,1.412030472385295,6,True
2024-01-21,1.031991821368437,1.0338826142143527,0.1832178130451112,0,True
2024-01-22,1.0338826142143527,1.0338826142143527,0.0,0,False
2024-01-23,1.0338826142143527,1.0150577937953942,-1.8207889522606435,8,True
2024-01-24,1.0150577937953942,1.0300888195905447,1.480804924313528,0,True
2024-01-25,1.0300888195905447,1.0249478551076698,-0.4990797283789927,1,True
2024-01-26,1.0249478551076698,1.0249478551076698,0.0,0,False
2024-01-27,1.0249478551076698,1.0249478551076698,0.0,0,False
2024-01-28,1.0249478551076698,1.0240122137239225,-0.09128673025508016,1,True
2024-01-29,1.0240122137239225,1.0240122137239225,0.0,0,False
2024-01-30,1.0240122137239225,1.0240122137239225,0.0,0,False
2024-01-31,1.0240122137239225,1.0188969597294777,-0.49953056476178537,1,True
2024-02-01,1.0188969597294777,1.0188969597294777,0.0,0,False
2024-02-02,1.0188969597294777,1.0186912432342607,-0.020190117680940478,2,True
2024-02-03,1.0186912432342607,1.0270618334453236,0.8217004187144106,1,True
2024-02-04,1.0270618334453236,1.0254187624567181,-0.1599778061164736,1,True
2024-02-05,1.0254187624567181,1.0254187624567181,0.0,0,False
2024-02-06,1.0254187624567181,1.0202996358473628,-0.49922302933982365,1,True
2024-02-07,1.0202996358473628,1.019961729348974,-0.03311835920711825,3,True
2024-02-08,1.019961729348974,1.0352499105535702,1.4988975335725963,0,True
2024-02-09,1.0352499105535702,1.0352499105535702,0.0,0,False
2024-02-10,1.0352499105535702,1.0352499105535702,0.0,0,False
2024-02-11,1.0352499105535702,1.0352499105535702,0.0,0,False
2024-02-12,1.0352499105535702,1.0352499105535702,0.0,0,False
2024-02-13,1.0352499105535702,1.0352499105535702,0.0,0,False
2024-02-14,1.0352499105535702,1.0366035372643536,0.1307536177481694,1,True
2024-02-15,1.0366035372643536,1.0340155498038799,-0.24966029609579943,0,True
2024-02-16,1.0340155498038799,1.0392894362683816,0.5100393766323874,1,True
2024-02-17,1.0392894362683816,1.035325546731841,-0.38140381285631797,2,True
2024-02-18,1.035325546731841,1.035707724127347,0.036913741451893856,0,True
2024-02-19,1.035707724127347,1.035707724127347,0.0,0,False
2024-02-20,1.035707724127347,1.0341860223226633,-0.1469238636764736,7,True
2024-02-21,1.0341860223226633,1.015306231277051,-1.8255701235654231,4,True
2024-02-22,1.015306231277051,1.039871385130229,2.419482230723613,3,True
2024-02-23,1.039871385130229,1.0464908570109794,0.6365664038270769,1,True
2024-02-24,1.0464908570109794,1.058678375357031,1.1646082012471526,3,True
2024-02-25,1.058678375357031,1.0559732216729543,-0.25552176629323187,1,True
2024-02-26,1.0559732216729543,1.061366911918279,0.5107790741870843,0,True
2024-02-27,1.061366911918279,1.0605199142816624,-0.07980252889980832,1,True
2024-02-28,1.0605199142816624,1.0605798063164822,0.005647421987386991,1,True
2024-02-29,1.0605798063164822,1.0807284014595666,1.8997717119528135,5,True
2024-03-01,1.0807284014595666,1.0793006920468577,-0.1321062175085541,1,True
2024-03-02,1.0793006920468577,1.0788664512656627,-0.040233531248046184,1,True
2024-03-03,1.0788664512656627,1.0823877858186224,0.32639207093969613,6,True
2024-03-04,1.0823877858186224,1.105091398792969,2.097548888837064,0,True
2024-03-05,1.105091398792969,1.097807226441725,-0.6591465972136001,5,True
2024-03-06,1.097807226441725,1.0767946824652386,-1.9140467898533853,4,True
2024-03-07,1.0767946824652386,1.0767946824652386,0.0,0,False
2024-03-08,1.0767946824652386,1.0777160496356453,0.08556572440507892,2,True
2024-03-09,1.0777160496356453,1.0751852785582794,-0.23482726068907445,3,True
2024-03-10,1.0751852785582794,1.081190637467555,0.5585417721984065,2,True
2024-03-11,1.081190637467555,1.0736157695939668,-0.7006042793092138,0,True
2024-03-12,1.0736157695939668,1.0696513727085668,-0.3692565811416193,1,True
2024-03-13,1.0696513727085668,1.0748164981206074,0.4828793328205183,2,True
2024-03-14,1.0748164981206074,1.0724831401744306,-0.21709361088677603,1,True
2024-03-15,1.0724831401744306,1.057934805544704,-1.3565094018504031,10,True
2024-03-16,1.057934805544704,1.068017781546587,0.9530810357157637,1,True
2024-03-17,1.068017781546587,1.0524771286176524,-1.4550930890336211,4,True
2024-03-18,1.0524771286176524,1.0537836882102543,0.12414137628984356,0,True
2024-03-19,1.0537836882102543,1.0382461224483301,-1.4744549508365568,8,True
2024-03-20,1.0382461224483301,1.0357022657575194,-0.24501480292667965,0,True
2024-03-21,1.0357022657575194,1.0402929039881308,0.4432391800604618,2,True
2024-03-22,1.0402929039881308,1.0402929039881308,0.0,0,False
2024-03-23,1.0402929039881308,1.0421124585937838,0.1749079128269937,1,True
2024-03-24,1.0421124585937838,1.0397039435447042,-0.23111853516554204,2,True
2024-03-25,1.0397039435447042,1.0482069490745534,0.8178294968142152,2,True
2024-03-26,1.0482069490745534,1.0520897294785756,0.37042116611136766,2,True
2024-03-27,1.0520897294785756,1.0461381482621175,-0.5656914091736076,3,True
2024-03-28,1.0461381482621175,1.0417704436980502,-0.41750743640532884,0,True
2024-03-29,1.0417704436980502,1.0306291167432153,-1.069460841611669,4,True
2024-03-30,1.0306291167432153,1.0305162193767332,-0.010954218607650557,0,True
2024-03-31,1.0305162193767332,1.0305162193767332,0.0,0,False
2024-04-01,1.0305162193767332,1.0294016657611018,-0.1081548834142021,4,True
2024-04-02,1.0294016657611018,1.0020891501443157,-2.653241832146469,5,True
2024-04-03,1.0020891501443157,0.9848202090848172,-1.7232938862786318,1,True
2024-04-04,0.9848202090848172,0.9843529197758524,-0.047449199828975,1,True
2024-04-05,0.9843529197758524,0.9700556116127442,-1.452457535897167,3,True
2024-04-06,0.9700556116127442,0.969796775658018,-0.02668258928948397,1,True
2024-04-07,0.969796775658018,0.9825591093411729,1.3159802139469212,1,True
2024-04-08,0.9825591093411729,0.9825591093411729,0.0,0,False
2024-04-09,0.9825591093411729,0.9776579420171934,-0.4988165370799713,1,True
2024-04-10,0.9776579420171934,0.9670072061823625,-1.0894133190239685,5,True
2024-04-11,0.9670072061823625,0.972302224952495,0.5475676640546157,1,True
2024-04-12,0.972302224952495,0.9690203059259018,-0.33754103841050487,3,True
2024-04-13,0.9690203059259018,0.9428738005674747,-2.6982412234843767,7,True
2024-04-14,0.9428738005674747,0.8982094907843605,-4.737040074316701,13,True
2024-04-15,0.8982094907843605,0.9073361283065496,1.0160923053951887,0,True
2024-04-16,0.9073361283065496,0.9073361283065496,0.0,0,False
2024-04-17,0.9073361283065496,0.9073361283065496,0.0,0,False
2024-04-18,0.9073361283065496,0.9073361283065496,0.0,0,False
2024-04-19,0.9073361283065496,0.9124718834363775,0.5660256402898023,4,True
2024-04-20,0.9124718834363775,0.9096339329362882,-0.3110178572737543,0,True
2024-04-21,0.9096339329362882,0.9096339329362882,0.0,0,False
2024-04-22,0.9096339329362882,0.9096339329362882,0.0,0,False
2024-04-23,0.9096339329362882,0.9115196339143425,0.20730327989935127,1,True
2024-04-24,0.9115196339143425,0.9087407147852077,-0.30486662335525994,1,True
2024-04-25,0.9087407147852077,0.9060490130574379,-0.2962012908606204,0,True
2024-04-26,0.9060490130574379,0.9060490130574379,0.0,0,False
2024-04-27,0.9060490130574379,0.91358880563168,0.8321616673693244,3,True
2024-04-28,0.91358880563168,0.9160930628425669,0.2741120726797108,1,True
2024-04-29,0.9160930628425669,0.9188980142868992,0.30618629898022665,2,True
2024-04-30,0.9188980142868992,0.9162022327674256,-0.2933711334185074,2,True
2024-05-01,0.9162022327674256,0.9112214957745904,-0.5436285587070322,3,True
2024-05-02,0.9112214957745904,0.9144789065910194,0.35747738958462616,1,True
2024-05-03,0.9144789065910194,0.9124210223503453,-0.2250335383180646,1,True
2024-05-04,0.9124210223503453,0.9131299833436849,0.07770108052895797,0,True
2024-05-05,0.9131299833436849,0.9102551973653089,-0.3148276839896491,1,True
2024-05-06,0.9102551973653089,0.9115736626615322,0.14484567624986067,0,True
2024-05-07,0.9115736626615322,0.9165372398230618,0.544506424970348,2,True
2024-05-08,0.9165372398230618,0.9189747218391944,0.2659446785384434,2,True
2024-05-09,0.9189747218391944,0.9163474800688519,-0.28588836100784665,1,True
2024-05-10,0.9163474800688519,0.9163474800688519,0.0,0,False
2024-05-11,0.9163474800688519,0.9098280185105831,-0.7114617216799624,4,True
2024-05-12,0.9098280185105831,0.9056969226416824,-0.4540523906554794,0,True
2024-05-13,0.9056969226416824,0.907036348237247,0.1478889418833118,3,True
2024-05-14,0.907036348237247,0.9074656891513581,0.04733447727265361,3,True
2024-05-15,0.9074656891513581,0.9127963733371155,0.5874254254992994,1,True
2024-05-16,0.9127963733371155,0.913667983578215,0.09548791675333401,0,True
2024-05-17,0.913667983578215,0.913667983578215,0.0,0,False
2024-05-18,0.913667983578215,0.9189839716282727,0.5818293018475584,2,True
2024-05-19,0.9189839716282727,0.9183248200945692,-0.0717261186324758,0,True
2024-05-20,0.9183248200945692,0.9158114944113661,-0.2736859146357684,1,True
2024-05-21,0.9158114944113661,0.9107090680598349,-0.5571481011832913,2,True
2024-05-22,0.9107090680598349,0.914055329195035,0.36743470034057424,1,True
2024-05-23,0.914055329195035,0.9095938842517884,-0.4880935322783442,1,True
2024-05-24,0.9095938842517884,0.9126363441156641,0.3344855233254229,2,True
2024-05-25,0.9126363441156641,0.9121820720091478,-0.049775807137775185,0,True
2024-05-26,0.9121820720091478,0.9138035138580315,0.17775418950214394,2,True
2024-05-27,0.9138035138580315,0.926328823689336,1.3706786679363203,2,True
2024-05-28,0.926328823689336,0.9339236328010996,0.8198826288828398,1,True
2024-05-29,0.9339236328010996,0.9339236328010996,0.0,0,False
2024-05-30,0.9339236328010996,0.9300704397785257,-0.41258116694371516,3,True
2024-05-31,0.9300704397785257,0.9272346365936895,-0.30490197984481826,0,True
2024-06-01,0.9272346365936895,0.9253512861682696,-0.203114762013068,2,True
2024-06-02,0.9253512861682696,0.9344497067524059,0.9832396323575132,0,True
2024-06-03,0.9344497067524059,0.9354963438277726,0.11200571500034062,1,True
2024-06-04,0.9354963438277726,0.9374522719141716,0.2090791801917513,3,True
2024-06-05,0.9374522719141716,0.9376449871769036,0.02055734126480413,0,True
2024-06-06,0.9376449871769036,0.938803977081698,0.12360647373415024,1,True
2024-06-07,0.938803977081698,0.9381402734160128,-0.07069672497004298,0,True
2024-06-08,0.9381402734160128,0.9570433997335678,2.0149573420106703,5,True
2024-06-09,0.9570433997335678,0.9570433997335678,0.0,0,False
2024-06-10,0.9570433997335678,0.9570433997335678,0.0,0,False
2024-06-11,0.9570433997335678,0.9572538232361462,0.021986829712949962,1,True
2024-06-12,0.9572538232361462,0.9669764011441873,1.0156739698539363,1,True
2024-06-13,0.9669764011441873,0.9616192421540672,-0.5540113475138719,1,True
2024-06-14,0.9616192421540672,0.9550457914066526,-0.6835814487956671,4,True
2024-06-15,0.9550457914066526,0.9653604520438523,1.0800173907900001,4,True
2024-06-16,0.9653604520438523,0.9656746743940008,0.032549743412757515,0,True
2024-06-17,0.9656746743940008,0.9560666566211355,-0.9949538936489866,2,True
2024-06-18,0.9560666566211355,0.9584691188501897,0.25128605965034634,5,True
2024-06-19,0.9584691188501897,0.963980090551695,0.5749764487056552,0,True
2024-06-20,0.963980090551695,0.9731021729658439,0.9462936531114741,1,True
2024-06-21,0.9731021729658439,0.9716846950469752,-0.14566588774007627,1,True
2024-06-22,0.9716846950469752,0.9723416098751911,0.06760576054809508,0,True
2024-06-23,0.9723416098751911,0.9730542920929725,0.0732954560972443,2,True
2024-06-24,0.9730542920929725,0.9730542920929725,0.0,0,False
2024-06-25,0.9730542920929725,0.9730542920929725,0.0,0,False
2024-06-26,0.9730542920929725,0.9730542920929725,0.0,0,False
2024-06-27,0.9730542920929725,0.9682058018633397,-0.4982754065247508,1,True
2024-06-28,0.9682058018633397,0.9680231149087566,-0.018868607710420537,1,True
2024-06-29,0.9680231149087566,0.9563562212537411,-1.2052288292842217,3,True
2024-06-30,0.9563562212537411,0.9522704171800627,-0.42722617188835077,0,True
2024-07-01,0.9522704171800627,0.9461615373926767,-0.6415068322164208,2,True
2024-07-02,0.9461615373926767,0.9502933691727822,0.4366941179506645,0,True
2024-07-03,0.9502933691727822,0.9455462006808673,-0.49954768136993843,1,True
2024-07-04,0.9455462006808673,0.9328939602742223,-1.3380880170143272,4,True
2024-07-05,0.9328939602742223,0.9057776291028778,-2.9066895409392224,12,True
2024-07-06,0.9057776291028778,0.913142173377849,0.8130631667581989,0,True
2024-07-07,0.913142173377849,0.913142173377849,0.0,0,False
2024-07-08,0.913142173377849,0.9144794284005309,0.14644543442070557,2,True
2024-07-09,0.9144794284005309,0.9156307751560468,0.12590187594812008,1,True
2024-07-10,0.9156307751560468,0.9191088277317099,0.37985317554123377,1,True
2024-07-11,0.9191088277317099,0.9090287910225956,-1.0967185174350913,2,True
2024-07-12,0.9090287910225956,0.9090287910225956,0.0,0,False
2024-07-13,0.9090287910225956,0.9090287910225956,0.0,0,False
2024-07-14,0.9090287910225956,0.9098291263284278,0.08804289960189227,1,True
2024-07-15,0.9098291263284278,0.9118379615981104,0.2207925874816885,0,True
2024-07-16,0.9118379615981104,0.9101090051160603,-0.18961225073584886,1,True
2024-07-17,0.9101090051160603,0.9101090051160603,0.0,0,False
2024-07-18,0.9101090051160603,0.9101090051160603,0.0,0,False
2024-07-19,0.9101090051160603,0.9071941209006549,-0.3202785819082954,2,True
2024-07-20,0.9071941209006549,0.9090740568175018,0.20722531964607604,1,True
2024-07-21,0.9090740568175018,0.9088702030402381,-0.022424331190051827,1,True
2024-07-22,0.9088702030402381,0.9087813899573035,-0.009771811490522087,1,True
2024-07-23,0.9087813899573035,0.9056595881105836,-0.34351516010540095,3,True
2024-07-24,0.9056595881105836,0.9021863794500992,-0.38350045713426706,1,True
2024-07-25,0.9021863794500992,0.9013207513352455,-0.09594781461690349,0,True
2024-07-26,0.9013207513352455,0.9013207513352455,0.0,0,False
2024-07-27,0.9013207513352455,0.9013207513352455,0.0,0,False
2024-07-28,0.9013207513352455,0.8988300409667808,-0.27634006703771696,1,True
2024-07-29,0.8988300409667808,0.8988300409667808,0.0,0,False
2024-07-30,0.8988300409667808,0.8963607975261174,-0.2747175025444637,2,True
2024-07-31,0.8963607975261174,0.8845284282231004,-1.3200453807968193,4,True
2024-08-01,0.8845284282231004,0.8818007374252281,-0.308377968512763,0,True
2024-08-02,0.8818007374252281,0.8750280031412871,-0.7680572261389518,4,True
2024-08-03,0.8750280031412871,0.8764690511533244,0.16468593083467375,5,True
2024-08-04,0.8764690511533244,0.8532223878706104,-2.6523085158710713,2,True
2024-08-05,0.8532223878706104,0.8367871340282538,-1.9262567504087835,8,True
2024-08-06,0.8367871340282538,0.8427919193802708,0.7176001049526537,0,True
2024-08-07,0.8427919193802708,0.8427919193802708,0.0,0,False
2024-08-08,0.8427919193802708,0.8427919193802708,0.0,0,False
2024-08-09,0.8427919193802708,0.8427919193802708,0.0,0,False
2024-08-10,0.8427919193802708,0.8427919193802708,0.0,0,False
2024-08-11,0.8427919193802708,0.8394424091971746,-0.3974302679075503,1,True
2024-08-12,0.8394424091971746,0.8395280174049975,0.010198222878066154,1,True
2024-08-13,0.8395280174049975,0.8343865242269074,-0.6124266339535112,0,True
2024-08-14,0.8343865242269074,0.8343865242269074,0.0,0,False
2024-08-15,0.8343865242269074,0.8343865242269074,0.0,0,False
2024-08-16,0.8343865242269074,0.8343865242269074,0.0,0,False
2024-08-17,0.8343865242269074,0.8421688343851385,0.9326984475739986,1,True
2024-08-18,0.8421688343851385,0.8421688343851385,0.0,0,False
2024-08-19,0.8421688343851385,0.8417579092164382,-0.048793680307612775,1,True
2024-08-20,0.8417579092164382,0.8342998689806664,-0.8860077409565625,2,True
2024-08-21,0.8342998689806664,0.8373272198683006,0.3628612445226498,0,True
2024-08-22,0.8373272198683006,0.8373272198683006,0.0,0,False
2024-08-23,0.8373272198683006,0.8373272198683006,0.0,0,False
2024-08-24,0.8373272198683006,0.835968899554211,-0.16222096712719125,1,True
2024-08-25,0.835968899554211,0.8337378292351558,-0.26688436857459363,2,True
2024-08-26,0.8337378292351558,0.834830578255552,0.13106626352776818,2,True
2024-08-27,0.834830578255552,0.8286568822050497,-0.7395148442457256,0,True
2024-08-28,0.8286568822050497,0.8308014822185954,0.258804344669028,4,True
2024-08-29,0.8308014822185954,0.8211293090635756,-1.1641978694104993,2,True
2024-08-30,0.8211293090635756,0.8219857914730406,0.10430542425061695,0,True
2024-08-31,0.8219857914730406,0.8219857914730406,0.0,0,False
2024-09-01,0.8219857914730406,0.8195632183996822,-0.29472201326218306,1,True
2024-09-02,0.8195632183996822,0.8210111011458355,0.17666516915932906,0,True
2024-09-03,0.8210111011458355,0.8210111011458355,0.0,0,False
2024-09-04,0.8210111011458355,0.8210111011458355,0.0,0,False
2024-09-05,0.8210111011458355,0.8210111011458355,0.0,0,False
2024-09-06,0.8210111011458355,0.8209174492412348,-0.011406898697230439,1,True
2024-09-07,0.8209174492412348,0.8220964221565958,0.14361650083705157,0,True
2024-09-08,0.8220964221565958,0.8220964221565958,0.0,0,False
2024-09-09,0.8220964221565958,0.8220964221565958,0.0,0,False
2024-09-10,0.8220964221565958,0.8220964221565958,0.0,0,False
2024-09-11,0.8220964221565958,0.8179955622214795,-0.4988295563139178,1,True
2024-09-12,0.8179955622214795,0.8179955622214795,0.0,0,False
2024-09-13,0.8179955622214795,0.8179033901305292,-0.011268042909673426,1,True
2024-09-14,0.8179033901305292,0.81939282502947,0.18210401337290794,0,True
2024-09-15,0.81939282502947,0.8212233012660939,0.22339422322352753,1,True
2024-09-16,0.8212233012660939,0.8214316214920786,0.025367062242831473,0,True
2024-09-17,0.8214316214920786,0.8214316214920786,0.0,0,False
2024-09-18,0.8214316214920786,0.8214316214920786,0.0,0,False
2024-09-19,0.8214316214920786,0.8214316214920786,0.0,0,False
2024-09-20,0.8214316214920786,0.8214316214920786,0.0,0,False
2024-09-21,0.8214316214920786,0.8214316214920786,0.0,0,False
2024-09-22,0.8214316214920786,0.8215004136543139,0.008374666915100804,1,True
2024-09-23,0.8215004136543139,0.8205811829667323,-0.11189655809088483,0,True
2024-09-24,0.8205811829667323,0.8205811829667323,0.0,0,False
2024-09-25,0.8205811829667323,0.8205811829667323,0.0,0,False
2024-09-26,0.8205811829667323,0.8205811829667323,0.0,0,False
2024-09-27,0.8205811829667323,0.8205811829667323,0.0,0,False
2024-09-28,0.8205811829667323,0.8205811829667323,0.0,0,False
2024-09-29,0.8205811829667323,0.8205811829667323,0.0,0,False
2024-09-30,0.8205811829667323,0.818940029308016,-0.19999893889631748,1,True
2024-10-01,0.818940029308016,0.8200968517344344,0.14125850306716536,0,True
2024-10-02,0.8200968517344344,0.8022381096714568,-2.177638168614826,7,True
2024-10-03,0.8022381096714568,0.7921232688535633,-1.2608277637216503,1,True
2024-10-04,0.7921232688535633,0.7921232688535633,0.0,0,False
2024-10-05,0.7921232688535633,0.7921232688535633,0.0,0,False
2024-10-06,0.7921232688535633,0.7921232688535633,0.0,0,False
2024-10-07,0.7921232688535633,0.7921232688535633,0.0,0,False
2024-10-08,0.7921232688535633,0.7921232688535633,0.0,0,False
2024-10-09,0.7921232688535633,0.7921232688535633,0.0,0,False
2024-10-10,0.7921232688535633,0.7921232688535633,0.0,0,False
2024-10-11,0.7921232688535633,0.7921232688535633,0.0,0,False
2024-10-12,0.7921232688535633,0.7921232688535633,0.0,0,False
2024-10-13,0.7921232688535633,0.7921232688535633,0.0,0,False
2024-10-14,0.7921232688535633,0.7921232688535633,0.0,0,False
2024-10-15,0.7921232688535633,0.792311577281498,0.023772616629136323,1,True
2024-10-16,0.792311577281498,0.7923916593142428,0.010107391465807858,3,True
2024-10-17,0.7923916593142428,0.7902542536284385,-0.2697410631068653,2,True
2024-10-18,0.7902542536284385,0.7960593963466979,0.7345917711426564,1,True
2024-10-19,0.7960593963466979,0.795357449428859,-0.08817770647018275,1,True
2024-10-20,0.795357449428859,0.7968993634881824,0.19386428836878355,2,True
2024-10-21,0.7968993634881824,0.7938956943160564,-0.3769195095072342,0,True
2024-10-22,0.7938956943160564,0.7938956943160564,0.0,0,False
2024-10-23,0.7938956943160564,0.7938956943160564,0.0,0,False
2024-10-24,0.7938956943160564,0.7935195953254645,-0.04737385443511766,1,True
2024-10-25,0.7935195953254645,0.7932250949252477,-0.03711318560393195,0,True
2024-10-26,0.7932250949252477,0.7765924233366976,-2.0968413247336226,9,True
2024-10-27,0.7765924233366976,0.782989006994581,0.8236731991795532,0,True
2024-10-28,0.782989006994581,0.782989006994581,0.0,0,False
2024-10-29,0.782989006994581,0.7925856190122235,1.2256381548034767,2,True
2024-10-30,0.7925856190122235,0.7939640747255632,0.17391883984188006,0,True
2024-10-31,0.7939640747255632,0.7939640747255632,0.0,0,False
2024-11-01,0.7939640747255632,0.7932676047435145,-0.08772059142466704,2,True
2024-11-02,0.7932676047435145,0.790228299204018,-0.383137483659024,0,True
2024-11-03,0.790228299204018,0.7848542975285969,-0.6800568494995995,2,True
2024-11-04,0.7848542975285969,0.7952201580353899,1.3207369239658595,3,True
2024-11-05,0.7952201580353899,0.7968106438197986,0.200005717704399,1,True
2024-11-06,0.7968106438197986,0.7984623852478414,0.20729409689164147,1,True
2024-11-07,0.7984623852478414,0.7993293733413961,0.10858220870173518,1,True
2024-11-08,0.7993293733413961,0.7950163271429513,-0.5395830983184191,2,True
2024-11-09,0.7950163271429513,0.7966766741561678,0.2088443918105698,2,True
2024-11-10,0.7966766741561678,0.7989906897777276,0.2904585632572676,1,True
2024-11-11,0.7989906897777276,0.7988952740914118,-0.011942027302258573,2,True
2024-11-12,0.7988952740914118,0.7961089038903388,-0.34877790511927964,4,True
2024-11-13,0.7961089038903388,0.7923045484603456,-0.4778687201465237,0,True
2024-11-14,0.7923045484603456,0.7873317289075696,-0.6276399097341345,4,True
2024-11-15,0.7873317289075696,0.7972722555297456,1.2625588754016759,2,True
2024-11-16,0.7972722555297456,0.8010080116047766,0.4685671737753916,0,True
2024-11-17,0.8010080116047766,0.7953591044824142,-0.7052247968213354,4,True
2024-11-18,0.7953591044824142,0.8008079936055162,0.6850854026053899,1,True
2024-11-19,0.8008079936055162,0.7982891248185634,-0.3145409145595579,1,True
2024-11-20,0.7982891248185634,0.7997318858949037,0.1807316461524211,1,True
2024-11-21,0.7997318858949037,0.8111165812087283,1.4235640112167047,3,True
2024-11-22,0.8111165812087283,0.809866374911727,-0.1541339834451816,0,True
2024-11-23,0.809866374911727,0.809866374911727,0.0,0,False
2024-11-24,0.809866374911727,0.81321659826084,0.4136760647061255,8,True
2024-11-25,0.81321659826084,0.8216972904968105,1.0428577397592953,0,True
2024-11-26,0.8216972904968105,0.8175033274933093,-0.5104024379787631,2,True
2024-11-27,0.8175033274933093,0.8205203802882646,0.3690569436831881,0,True
2024-11-28,0.8205203802882646,0.8180718961714982,-0.2984062523719633,2,True
2024-11-29,0.8180718961714982,0.8283594302969098,1.257534230616697,2,True
2024-11-30,0.8283594302969098,0.8277648588006425,-0.07177699372048485,0,True
2024-12-01,0.8277648588006425,0.8283763317434859,0.07387036745305497,1,True
2024-12-02,0.8283763317434859,0.8368047669670213,1.0174645146845407,6,True
2024-12-03,0.8368047669670213,0.8530568711887041,1.9421620028036157,5,True
2024-12-04,0.8530568711887041,0.889237336072526,4.241272312056488,1,True
2024-12-05,0.889237336072526,0.9018672693260136,1.4203107248363933,5,True
2024-12-06,0.9018672693260136,0.8999254138067424,-0.21531500092273337,1,True
2024-12-07,0.8999254138067424,0.9012527789884229,0.14749724380664908,1,True
2024-12-08,0.9012527789884229,0.9005270647986141,-0.08052282408752554,0,True
2024-12-09,0.9005270647986141,0.9005270647986141,0.0,0,False
2024-12-10,0.9005270647986141,0.8785266412719375,-2.4430607792556014,7,True
2024-12-11,0.8785266412719375,0.8920163722975776,1.5354948150587244,3,True
2024-12-12,0.8920163722975776,0.8954764579659538,0.3878948611070854,0,True
2024-12-13,0.8954764579659538,0.8954764579659538,0.0,0,False
2024-12-14,0.8954764579659538,0.8954764579659538,0.0,0,False
2024-12-15,0.8954764579659538,0.8903503273566411,-0.5724472780620604,2,True
2024-12-16,0.8903503273566411,0.890547329114068,0.02212631942437593,0,True
2024-12-17,0.890547329114068,0.890547329114068,0.0,0,False
2024-12-18,0.890547329114068,0.8862509424323155,-0.48244338524113806,2,True
2024-12-19,0.8862509424323155,0.8706714592256183,-1.7579087886710032,5,True
2024-12-20,0.8706714592256183,0.8365477837392294,-3.9192367137816486,10,True
2024-12-21,0.8365477837392294,0.8412523763872058,0.5623818195952479,1,True
2024-12-22,0.8412523763872058,0.8434230589257451,0.25802988490342127,0,True
2024-12-23,0.8434230589257451,0.8417758136532225,-0.19530474713611579,1,True
2024-12-24,0.8417758136532225,0.8498528577041516,0.959524367405562,0,True
2024-12-25,0.8498528577041516,0.8498528577041516,0.0,0,False
2024-12-26,0.8498528577041516,0.8498528577041516,0.0,0,False
2024-12-27,0.8498528577041516,0.8498528577041516,0.0,0,False
2024-12-28,0.8498528577041516,0.8456129130820215,-0.49890337882538827,1,True
2024-12-29,0.8456129130820215,0.850066187993465,0.5266327941011006,3,True
2024-12-30,0.850066187993465,0.8506897438620916,0.0733538020255109,0,True
2024-12-31,0.8506897438620916,0.8506897438620916,0.0,0,False
