day,start_equity,end_equity,return_pct,entries,active
2024-01-02,1.0,1.0,0.0,0,False
2024-01-03,1.0,1.0092932468531264,0.929324685312638,4,True
2024-01-04,1.0092932468531264,1.0110458065700842,0.17364227120533204,1,True
2024-01-05,1.0110458065700842,1.0110458065700842,0.0,0,False
2024-01-06,1.0110458065700842,1.0110458065700842,0.0,0,False
2024-01-07,1.0110458065700842,1.0110458065700842,0.0,0,False
2024-01-08,1.0110458065700842,1.0080903197317614,-0.29231977612855786,1,True
2024-01-09,1.0080903197317614,1.0081193771343773,0.0028824205576594153,0,True
2024-01-10,1.0081193771343773,1.0071027496715028,-0.10084395617553366,1,True
2024-01-11,1.0071027496715028,1.0071027496715028,0.0,0,False
2024-01-12,1.0071027496715028,1.0071027496715028,0.0,0,False
2024-01-13,1.0071027496715028,1.0071027496715028,0.0,0,False
2024-01-14,1.0071027496715028,1.0071027496715028,0.0,0,False
2024-01-15,1.0071027496715028,1.0071027496715028,0.0,0,False
2024-01-16,1.0071027496715028,1.0071027496715028,0.0,0,False
2024-01-17,1.0071027496715028,1.0071027496715028,0.0,0,False
2024-01-18,1.0071027496715028,1.0071027496715028,0.0,0,False
2024-01-19,1.0071027496715028,1.0071027496715028,0.0,0,False
2024-01-20,1.0071027496715028,1.0071027496715028,0.0,0,False
2024-01-21,1.0071027496715028,1.0071027496715028,0.0,0,False
2024-01-22,1.0071027496715028,1.0071027496715028,0.0,0,False
2024-01-23,1.0071027496715028,0.9970767511019515,-0.9955288646388505,2,True
2024-01-24,0.9970767511019515,0.9970767511019515,0.0,0,False
2024-01-25,0.9970767511019515,0.9970767511019515,0.0,0,False
2024-01-26,0.9970767511019515,0.9970767511019515,0.0,0,False
2024-01-27,0.9970767511019515,0.9970767511019515,0.0,0,False
2024-01-28,0.9970767511019515,0.9936882604698625,-0.339842507444299,2,True
2024-01-29,0.9936882604698625,0.9936145346625538,-0.007419410114983815,0,True
2024-01-30,0.9936145346625538,0.9936145346625538,0.0,0,False
2024-01-31,0.9936145346625538,0.9936145346625538,0.0,0,False
2024-02-01,0.9936145346625538,0.9936145346625538,0.0,0,False
2024-02-02,0.9936145346625538,0.9936145346625538,0.0,0,False
2024-02-03,0.9936145346625538,0.9936145346625538,0.0,0,False
2024-02-04,0.9936145346625538,0.9936145346625538,0.0,0,False
2024-02-05,0.9936145346625538,0.9936145346625538,0.0,0,False
2024-02-06,0.9936145346625538,0.986869806351539,-0.6788073317894217,2,True
2024-02-07,0.986869806351539,0.9837182754855467,-0.31934616356776857,0,True
2024-02-08,0.9837182754855467,0.9837182754855467,0.0,0,False
2024-02-09,0.9837182754855467,0.9837182754855467,0.0,0,False
2024-02-10,0.9837182754855467,0.9837182754855467,0.0,0,False
2024-02-11,0.9837182754855467,0.9837182754855467,0.0,0,False
2024-02-12,0.9837182754855467,0.9837182754855467,0.0,0,False
2024-02-13,0.9837182754855467,0.9837182754855467,0.0,0,False
2024-02-14,0.9837182754855467,0.9837182754855467,0.0,0,False
2024-02-15,0.9837182754855467,0.9926614053267006,0.9091149431720957,1,True
2024-02-16,0.9926614053267006,0.9926614053267006,0.0,0,False
2024-02-17,0.9926614053267006,0.9926614053267006,0.0,0,False
2024-02-18,0.9926614053267006,0.9926614053267006,0.0,0,False
2024-02-19,0.9926614053267006,0.9926614053267006,0.0,0,False
2024-02-20,0.9926614053267006,0.9926614053267006,0.0,0,False
2024-02-21,0.9926614053267006,1.0090720907889767,1.6532007161974116,5,True
2024-02-22,1.0090720907889767,1.0216131098031913,1.2428268632827866,1,True
2024-02-23,1.0216131098031913,1.0216131098031913,0.0,0,False
2024-02-24,1.0216131098031913,1.0216131098031913,0.0,0,False
2024-02-25,1.0216131098031913,1.0216131098031913,0.0,0,False
2024-02-26,1.0216131098031913,1.0203545369372407,-0.12319466673573753,1,True
2024-02-27,1.0203545369372407,1.0191524460102612,-0.11781110226526392,1,True
2024-02-28,1.0191524460102612,1.0191524460102612,0.0,0,False
2024-02-29,1.0191524460102612,1.026702434160413,0.7408104822500539,2,True
2024-03-01,1.026702434160413,1.026702434160413,0.0,0,False
2024-03-02,1.026702434160413,1.026702434160413,0.0,0,False
2024-03-03,1.026702434160413,1.0417079682805297,1.4615270813483017,4,True
2024-03-04,1.0417079682805297,1.0445590801692841,0.2736958894017594,0,True
2024-03-05,1.0445590801692841,1.044127735391681,-0.041294435689864795,1,True
2024-03-06,1.044127735391681,1.051274642577501,0.6844859056578168,1,True
2024-03-07,1.051274642577501,1.0489135953765805,-0.22458899941996124,2,True
2024-03-08,1.0489135953765805,1.0498390443035566,0.08822928133025432,0,True
2024-03-09,1.0498390443035566,1.0498390443035566,0.0,0,False
2024-03-10,1.0498390443035566,1.0498390443035566,0.0,0,False
2024-03-11,1.0498390443035566,1.0498390443035566,0.0,0,False
2024-03-12,1.0498390443035566,1.0594509302020974,0.9155580515599171,1,True
2024-03-13,1.0594509302020974,1.0594509302020974,0.0,0,False
2024-03-14,1.0594509302020974,1.0594509302020974,0.0,0,False
2024-03-15,1.0594509302020974,1.0594509302020974,0.0,0,False
2024-03-16,1.0594509302020974,1.0594509302020974,0.0,0,False
2024-03-17,1.0594509302020974,1.0566748410027589,-0.2620309369881779,1,True
2024-03-18,1.0566748410027589,1.055925853938279,-0.07088150823854056,1,True
2024-03-19,1.055925853938279,1.0469212040489422,-0.8527729343639212,1,True
2024-03-20,1.0469212040489422,1.0469212040489422,0.0,0,False
2024-03-21,1.0469212040489422,1.0364915655336513,-0.9962200091997886,2,True
2024-03-22,1.0364915655336513,1.0364915655336513,0.0,0,False
2024-03-23,1.0364915655336513,1.0377420113129698,0.12064215676224066,1,True
2024-03-24,1.0377420113129698,1.0377420113129698,0.0,0,False
2024-03-25,1.0377420113129698,1.0377420113129698,0.0,0,False
2024-03-26,1.0377420113129698,1.041236618934381,0.33675109837651984,1,True
2024-03-27,1.041236618934381,1.0395764755727852,-0.15943958668056535,2,True
2024-03-28,1.0395764755727852,1.0395764755727852,0.0,0,False
2024-03-29,1.0395764755727852,1.0343852770720547,-0.49935705767776284,1,True
2024-03-30,1.0343852770720547,1.0343852770720547,0.0,0,False
2024-03-31,1.0343852770720547,1.0343852770720547,0.0,0,False
2024-04-01,1.0343852770720547,1.0343852770720547,0.0,0,False
2024-04-02,1.0343852770720547,1.0343852770720547,0.0,0,False
2024-04-03,1.0343852770720547,1.0343852770720547,0.0,0,False
2024-04-04,1.0343852770720547,1.0343852770720547,0.0,0,False
2024-04-05,1.0343852770720547,1.0333257143791876,-0.10243404622563013,2,True
2024-04-06,1.0333257143791876,1.0315393275881333,-0.17287741572632465,0,True
2024-04-07,1.0315393275881333,1.034435435009469,0.28075589014209257,1,True
2024-04-08,1.034435435009469,1.033755148165105,-0.06576407007536922,0,True
2024-04-09,1.033755148165105,1.031325833996448,-0.23499899110239753,1,True
2024-04-10,1.031325833996448,1.023452874302343,-0.7633823797079553,1,True
2024-04-11,1.023452874302343,1.023452874302343,0.0,0,False
2024-04-12,1.023452874302343,1.032532898805617,0.8871951734430006,1,True
2024-04-13,1.032532898805617,1.007097330312347,-2.4634148241371,8,True
2024-04-14,1.007097330312347,0.9867774151352244,-2.017671437061641,5,True
2024-04-15,0.9867774151352244,0.988521841993387,0.17678017670514912,1,True
2024-04-16,0.988521841993387,0.9818455873295276,-0.6753775566958109,0,True
2024-04-17,0.9818455873295276,0.9791467589972566,-0.2748729909365366,1,True
2024-04-18,0.9791467589972566,0.9793572981785521,0.021502311003018804,0,True
2024-04-19,0.9793572981785521,0.9793572981785521,0.0,0,False
2024-04-20,0.9793572981785521,0.9793572981785521,0.0,0,False
2024-04-21,0.9793572981785521,0.9793572981785521,0.0,0,False
2024-04-22,0.9793572981785521,0.9793572981785521,0.0,0,False
2024-04-23,0.9793572981785521,0.9793572981785521,0.0,0,False
2024-04-24,0.9793572981785521,0.9793572981785521,0.0,0,False
2024-04-25,0.9793572981785521,0.9861833625707707,0.696994284406105,1,True
2024-04-26,0.9861833625707707,0.9881394721192295,0.19835150568345838,0,True
2024-04-27,0.9881394721192295,0.9832025796853374,-0.4996149403185046,1,True
2024-04-28,0.9832025796853374,0.9832025796853374,0.0,0,False
2024-04-29,0.9832025796853374,0.991892873401251,0.88387621182755,1,True
2024-04-30,0.991892873401251,0.991892873401251,0.0,0,False
2024-05-01,0.991892873401251,0.991892873401251,0.0,0,False
2024-05-02,0.991892873401251,0.991892873401251,0.0,0,False
2024-05-03,0.991892873401251,0.991892873401251,0.0,0,False
2024-05-04,0.991892873401251,0.991892873401251,0.0,0,False
2024-05-05,0.991892873401251,0.991892873401251,0.0,0,False
2024-05-06,0.991892873401251,0.991892873401251,0.0,0,False
2024-05-07,0.991892873401251,0.9891243065890933,-0.2791195386517953,1,True
2024-05-08,0.9891243065890933,0.9891310843007041,0.0006852234411436342,0,True
2024-05-09,0.9891310843007041,0.9863793417272747,-0.27819796760050197,1,True
2024-05-10,0.9863793417272747,0.9863793417272747,0.0,0,False
2024-05-11,0.9863793417272747,0.9865638992499522,0.01871060299725169,1,True
2024-05-12,0.9865638992499522,0.981452911603924,-0.5180594637523184,0,True
2024-05-13,0.981452911603924,0.9902831377215737,0.8997096053461329,1,True
2024-05-14,0.9902831377215737,0.9902831377215737,0.0,0,False
2024-05-15,0.9902831377215737,0.9902831377215737,0.0,0,False
2024-05-16,0.9902831377215737,0.9902831377215737,0.0,0,False
2024-05-17,0.9902831377215737,0.9902831377215737,0.0,0,False
2024-05-18,0.9902831377215737,0.9902831377215737,0.0,0,False
2024-05-19,0.9902831377215737,0.9902831377215737,0.0,0,False
2024-05-20,0.9902831377215737,0.9902831377215737,0.0,0,False
2024-05-21,0.9902831377215737,0.9902831377215737,0.0,0,False
2024-05-22,0.9902831377215737,0.9902831377215737,0.0,0,False
2024-05-23,0.9902831377215737,0.9991300000113535,0.8933669526207,1,True
2024-05-24,0.9991300000113535,1.0018671178594236,0.27395012140951636,1,True
2024-05-25,1.0018671178594236,1.0018671178594236,0.0,0,False
2024-05-26,1.0018671178594236,1.0018671178594236,0.0,0,False
2024-05-27,1.0018671178594236,1.0018671178594236,0.0,0,False
2024-05-28,1.0018671178594236,1.0018671178594236,0.0,0,False
2024-05-29,1.0018671178594236,1.0018671178594236,0.0,0,False
2024-05-30,1.0018671178594236,1.0018671178594236,0.0,0,False
2024-05-31,1.0018671178594236,1.0018671178594236,0.0,0,False
2024-06-01,1.0018671178594236,1.0018671178594236,0.0,0,False
2024-06-02,1.0018671178594236,1.0018671178594236,0.0,0,False
2024-06-03,1.0018671178594236,0.9930583245191871,-0.8792376936232138,3,True
2024-06-04,0.9930583245191871,0.9939680424366691,0.0916077026918316,1,True
2024-06-05,0.9939680424366691,0.9939680424366691,0.0,0,False
2024-06-06,0.9939680424366691,0.9890044658050758,-0.49936984084772984,1,True
2024-06-07,0.9890044658050758,0.9890044658050758,0.0,0,False
2024-06-08,0.9890044658050758,1.0129380782153932,2.419970105072755,5,True
2024-06-09,1.0129380782153932,1.0129380782153932,0.0,0,False
2024-06-10,1.0129380782153932,1.0129380782153932,0.0,0,False
2024-06-11,1.0129380782153932,1.0129380782153932,0.0,0,False
2024-06-12,1.0129380782153932,1.0129380782153932,0.0,0,False
2024-06-13,1.0129380782153932,1.0055711707124602,-0.727281130146884,2,True
2024-06-14,1.0055711707124602,1.0005510471472931,-0.4992310550838708,1,True
2024-06-15,1.0005510471472931,1.0087838133263642,0.8228232035280891,1,True
2024-06-16,1.0087838133263642,1.0087838133263642,0.0,0,False
2024-06-17,1.0087838133263642,1.0087838133263642,0.0,0,False
2024-06-18,1.0087838133263642,1.0156822209821645,0.6838340945473309,4,True
2024-06-19,1.0156822209821645,1.0156822209821645,0.0,0,False
2024-06-20,1.0156822209821645,1.0156822209821645,0.0,0,False
2024-06-21,1.0156822209821645,1.0156822209821645,0.0,0,False
2024-06-22,1.0156822209821645,1.0156822209821645,0.0,0,False
2024-06-23,1.0156822209821645,1.0237246477633535,0.7918251018917966,1,True
2024-06-24,1.0237246477633535,1.02401282512865,0.028149890297757274,1,True
2024-06-25,1.02401282512865,1.0330294968255893,0.8805233172549887,0,True
2024-06-26,1.0330294968255893,1.0330294968255893,0.0,0,False
2024-06-27,1.0330294968255893,1.0332826498437329,0.02450588477109772,1,True
2024-06-28,1.0332826498437329,1.0278653063239624,-0.524284765701788,0,True
2024-06-29,1.0278653063239624,1.0176299891222091,-0.9957838968569388,2,True
2024-06-30,1.0176299891222091,1.0176299891222091,0.0,0,False
2024-07-01,1.0176299891222091,1.0176299891222091,0.0,0,False
2024-07-02,1.0176299891222091,1.0176299891222091,0.0,0,False
2024-07-03,1.0176299891222091,1.0176299891222091,0.0,0,False
2024-07-04,1.0176299891222091,1.0176299891222091,0.0,0,False
2024-07-05,1.0176299891222091,1.0344661513766489,1.6544483195667592,5,True
2024-07-06,1.0344661513766489,1.0344661513766489,0.0,0,False
2024-07-07,1.0344661513766489,1.0319470906434538,-0.24351311348783655,1,True
2024-07-08,1.0319470906434538,1.0292938206197657,-0.25711299036016433,0,True
2024-07-09,1.0292938206197657,1.0292938206197657,0.0,0,False
2024-07-10,1.0292938206197657,1.0292938206197657,0.0,0,False
2024-07-11,1.0292938206197657,1.0292938206197657,0.0,0,False
2024-07-12,1.0292938206197657,1.0292938206197657,0.0,0,False
2024-07-13,1.0292938206197657,1.0292938206197657,0.0,0,False
2024-07-14,1.0292938206197657,1.0292938206197657,0.0,0,False
2024-07-15,1.0292938206197657,1.0292938206197657,0.0,0,False
2024-07-16,1.0292938206197657,1.024150060258799,-0.4997368348980791,1,True
2024-07-17,1.024150060258799,1.0190365196161297,-0.4992960349362363,1,True
2024-07-18,1.0190365196161297,1.0190365196161297,0.0,0,False
2024-07-19,1.0190365196161297,1.0190365196161297,0.0,0,False
2024-07-20,1.0190365196161297,1.0201723550882955,0.11146170429630065,1,True
2024-07-21,1.0201723550882955,1.0201723550882955,0.0,0,False
2024-07-22,1.0201723550882955,1.0201723550882955,0.0,0,False
2024-07-23,1.0201723550882955,1.0150729702229286,-0.49985522935734883,1,True
2024-07-24,1.0150729702229286,1.0150729702229286,0.0,0,False
2024-07-25,1.0150729702229286,1.0150729702229286,0.0,0,False
2024-07-26,1.0150729702229286,1.0150729702229286,0.0,0,False
2024-07-27,1.0150729702229286,1.0150729702229286,0.0,0,False
2024-07-28,1.0150729702229286,1.0150729702229286,0.0,0,False
2024-07-29,1.0150729702229286,1.0150729702229286,0.0,0,False
2024-07-30,1.0150729702229286,1.0150729702229286,0.0,0,False
2024-07-31,1.0150729702229286,1.0100050264871494,-0.49926890819151915,1,True
2024-08-01,1.0100050264871494,1.0100050264871494,0.0,0,False
2024-08-02,1.0100050264871494,1.0100050264871494,0.0,0,False
2024-08-03,1.0100050264871494,1.0049633791513621,-0.4991705193114093,1,True
2024-08-04,1.0049633791513621,1.0049633791513621,0.0,0,False
2024-08-05,1.0049633791513621,0.9849054956458239,-1.9958820312911407,4,True
2024-08-06,0.9849054956458239,0.9849054956458239,0.0,0,False
2024-08-07,0.9849054956458239,0.9849054956458239,0.0,0,False
2024-08-08,0.9849054956458239,0.9849054956458239,0.0,0,False
2024-08-09,0.9849054956458239,0.9849054956458239,0.0,0,False
2024-08-10,0.9849054956458239,0.9849054956458239,0.0,0,False
2024-08-11,0.9849054956458239,0.9849054956458239,0.0,0,False
2024-08-12,0.9849054956458239,0.9849054956458239,0.0,0,False
2024-08-13,0.9849054956458239,0.9849054956458239,0.0,0,False
2024-08-14,0.9849054956458239,0.9849054956458239,0.0,0,False
2024-08-15,0.9849054956458239,0.9849054956458239,0.0,0,False
2024-08-16,0.9849054956458239,0.9849054956458239,0.0,0,False
2024-08-17,0.9849054956458239,0.9849054956458239,0.0,0,False
2024-08-18,0.9849054956458239,0.9849054956458239,0.0,0,False
2024-08-19,0.9849054956458239,0.9849054956458239,0.0,0,False
2024-08-20,0.9849054956458239,0.9849054956458239,0.0,0,False
2024-08-21,0.9849054956458239,0.9849054956458239,0.0,0,False
2024-08-22,0.9849054956458239,0.9849054956458239,0.0,0,False
2024-08-23,0.9849054956458239,0.9849054956458239,0.0,0,False
2024-08-24,0.9849054956458239,0.9849054956458239,0.0,0,False
2024-08-25,0.9849054956458239,0.9849054956458239,0.0,0,False
2024-08-26,0.9849054956458239,0.9849054956458239,0.0,0,False
2024-08-27,0.9849054956458239,0.9849054956458239,0.0,0,False
2024-08-28,0.9849054956458239,0.9849054956458239,0.0,0,False
2024-08-29,0.9849054956458239,0.9799904029661376,-0.49904206052412414,1,True
2024-08-30,0.9799904029661376,0.9799904029661376,0.0,0,False
2024-08-31,0.9799904029661376,0.9799904029661376,0.0,0,False
2024-09-01,0.9799904029661376,0.9751065122222257,-0.4983610787544279,1,True
2024-09-02,0.9751065122222257,0.9751065122222257,0.0,0,False
2024-09-03,0.9751065122222257,0.9751065122222257,0.0,0,False
2024-09-04,0.9751065122222257,0.9751065122222257,0.0,0,False
2024-09-05,0.9751065122222257,0.9751065122222257,0.0,0,False
2024-09-06,0.9751065122222257,0.9751065122222257,0.0,0,False
2024-09-07,0.9751065122222257,0.9751065122222257,0.0,0,False
2024-09-08,0.9751065122222257,0.9751065122222257,0.0,0,False
2024-09-09,0.9751065122222257,0.9751065122222257,0.0,0,False
2024-09-10,0.9751065122222257,0.9751065122222257,0.0,0,False
2024-09-11,0.9751065122222257,0.9751065122222257,0.0,0,False
2024-09-12,0.9751065122222257,0.9751065122222257,0.0,0,False
2024-09-13,0.9751065122222257,0.9751065122222257,0.0,0,False
2024-09-14,0.9751065122222257,0.9751065122222257,0.0,0,False
2024-09-15,0.9751065122222257,0.9751065122222257,0.0,0,False
2024-09-16,0.9751065122222257,0.9751065122222257,0.0,0,False
2024-09-17,0.9751065122222257,0.9751065122222257,0.0,0,False
2024-09-18,0.9751065122222257,0.9751065122222257,0.0,0,False
2024-09-19,0.9751065122222257,0.9745083170982178,-0.06134664434191972,1,True
2024-09-20,0.9745083170982178,0.976975235162016,0.253144895791535,1,True
2024-09-21,0.976975235162016,0.9685352171110088,-0.8638927321026335,1,True
2024-09-22,0.9685352171110088,0.9773629365779606,0.9114505400519723,1,True
2024-09-23,0.9773629365779606,0.9773629365779606,0.0,0,False
2024-09-24,0.9773629365779606,0.9773629365779606,0.0,0,False
2024-09-25,0.9773629365779606,0.9773629365779606,0.0,0,False
2024-09-26,0.9773629365779606,0.9773629365779606,0.0,0,False
2024-09-27,0.9773629365779606,0.9773629365779606,0.0,0,False
2024-09-28,0.9773629365779606,0.9773629365779606,0.0,0,False
2024-09-29,0.9773629365779606,0.9773629365779606,0.0,0,False
2024-09-30,0.9773629365779606,0.9773629365779606,0.0,0,False
2024-10-01,0.9773629365779606,0.9773629365779606,0.0,0,False
2024-10-02,0.9773629365779606,0.9773629365779606,0.0,0,False
2024-10-03,0.9773629365779606,0.9861789666689103,0.9020221415206642,1,True
2024-10-04,0.9861789666689103,0.9861789666689103,0.0,0,False
2024-10-05,0.9861789666689103,0.9861789666689103,0.0,0,False
2024-10-06,0.9861789666689103,0.9861789666689103,0.0,0,False
2024-10-07,0.9861789666689103,0.9861789666689103,0.0,0,False
2024-10-08,0.9861789666689103,0.9861789666689103,0.0,0,False
2024-10-09,0.9861789666689103,0.9861789666689103,0.0,0,False
2024-10-10,0.9861789666689103,0.9861789666689103,0.0,0,False
2024-10-11,0.9861789666689103,0.9851053519952954,-0.10886610948936948,1,True
2024-10-12,0.9851053519952954,0.9857939308787514,0.06989900948781713,0,True
2024-10-13,0.9857939308787514,0.9857939308787514,0.0,0,False
2024-10-14,0.9857939308787514,0.9857939308787514,0.0,0,False
2024-10-15,0.9857939308787514,0.9857939308787514,0.0,0,False
2024-10-16,0.9857939308787514,0.9857939308787514,0.0,0,False
2024-10-17,0.9857939308787514,0.9857939308787514,0.0,0,False
2024-10-18,0.9857939308787514,0.9861619585742174,0.037333126522476334,1,True
2024-10-19,0.9861619585742174,0.982322077381221,-0.3893763250154225,1,True
2024-10-20,0.982322077381221,0.982322077381221,0.0,0,False
2024-10-21,0.982322077381221,0.9913156491454965,0.9155420580846174,1,True
2024-10-22,0.9913156491454965,0.9913156491454965,0.0,0,False
2024-10-23,0.9913156491454965,0.9863655392526482,-0.4993474981571433,1,True
2024-10-24,0.9863655392526482,0.9814404961501518,-0.4993121623275698,1,True
2024-10-25,0.9814404961501518,0.9840347438934491,0.26433061947959136,1,True
2024-10-26,0.9840347438934491,0.9935196909366786,0.9638833488440746,2,True
2024-10-27,0.9935196909366786,0.9935196909366786,0.0,0,False
2024-10-28,0.9935196909366786,0.9935196909366786,0.0,0,False
2024-10-29,0.9935196909366786,0.9935196909366786,0.0,0,False
2024-10-30,0.9935196909366786,0.9935196909366786,0.0,0,False
2024-10-31,0.9935196909366786,0.9935196909366786,0.0,0,False
2024-11-01,0.9935196909366786,0.9935196909366786,0.0,0,False
2024-11-02,0.9935196909366786,0.9935196909366786,0.0,0,False
2024-11-03,0.9935196909366786,0.9935196909366786,0.0,0,False
2024-11-04,0.9935196909366786,0.9935196909366786,0.0,0,False
2024-11-05,0.9935196909366786,0.9935196909366786,0.0,0,False
2024-11-06,0.9935196909366786,0.9935196909366786,0.0,0,False
2024-11-07,0.9935196909366786,0.9935196909366786,0.0,0,False
2024-11-08,0.9935196909366786,0.9935196909366786,0.0,0,False
2024-11-09,0.9935196909366786,0.9918513466333857,-0.1679226208108675,1,True
2024-11-10,0.9918513466333857,0.9943562925358574,0.2525525534621931,0,True
2024-11-11,0.9943562925358574,0.993297959235325,-0.1064340124839358,1,True
2024-11-12,0.993297959235325,0.9944944078827189,0.12045213989113623,0,True
2024-11-13,0.9944944078827189,0.9944944078827189,0.0,0,False
2024-11-14,0.9944944078827189,0.9944944078827189,0.0,0,False
2024-11-15,0.9944944078827189,0.9944944078827189,0.0,0,False
2024-11-16,0.9944944078827189,0.9944944078827189,0.0,0,False
2024-11-17,0.9944944078827189,0.9944944078827189,0.0,0,False
2024-11-18,0.9944944078827189,0.9944944078827189,0.0,0,False
2024-11-19,0.9944944078827189,0.9944944078827189,0.0,0,False
2024-11-20,0.9944944078827189,0.9944944078827189,0.0,0,False
2024-11-21,0.9944944078827189,0.9944944078827189,0.0,0,False
2024-11-22,0.9944944078827189,0.9944944078827189,0.0,0,False
2024-11-23,0.9944944078827189,0.9979002108609574,0.34246577469343453,1,True
2024-11-24,0.9979002108609574,1.009492798401471,1.1616980750521977,4,True
2024-11-25,1.009492798401471,1.0094503176544132,-0.00420812779695634,1,True
2024-11-26,1.0094503176544132,1.0094503176544132,0.0,0,False
2024-11-27,1.0094503176544132,1.0094503176544132,0.0,0,False
2024-11-28,1.0094503176544132,1.0094503176544132,0.0,0,False
2024-11-29,1.0094503176544132,1.0094503176544132,0.0,0,False
2024-11-30,1.0094503176544132,1.0094503176544132,0.0,0,False
2024-12-01,1.0094503176544132,1.0094503176544132,0.0,0,False
2024-12-02,1.0094503176544132,1.0094503176544132,0.0,0,False
2024-12-03,1.0094503176544132,1.0094503176544132,0.0,0,False
2024-12-04,1.0094503176544132,1.0094503176544132,0.0,0,False
2024-12-05,1.0094503176544132,1.013387766324976,0.39005868854564696,1,True
2024-12-06,1.013387766324976,1.013387766324976,0.0,0,False
2024-12-07,1.013387766324976,1.013387766324976,0.0,0,False
2024-12-08,1.013387766324976,1.013387766324976,0.0,0,False
2024-12-09,1.013387766324976,1.0083216687427496,-0.499916986426463,1,True
2024-12-10,1.0083216687427496,1.0083216687427496,0.0,0,False
2024-12-11,1.0083216687427496,1.0083216687427496,0.0,0,False
2024-12-12,1.0083216687427496,1.0083216687427496,0.0,0,False
2024-12-13,1.0083216687427496,1.0083216687427496,0.0,0,False
2024-12-14,1.0083216687427496,1.0083216687427496,0.0,0,False
2024-12-15,1.0083216687427496,1.0019494625794347,-0.6319616408978157,2,True
2024-12-16,1.0019494625794347,0.9982768359313068,-0.36654809302189006,0,True
2024-12-17,0.9982768359313068,0.9982768359313068,0.0,0,False
2024-12-18,0.9982768359313068,0.9982768359313068,0.0,0,False
2024-12-19,0.9982768359313068,0.9982768359313068,0.0,0,False
2024-12-20,0.9982768359313068,0.9934393979486804,-0.48457880705139456,2,True
2024-12-21,0.9934393979486804,0.9934393979486804,0.0,0,False
2024-12-22,0.9934393979486804,0.9934393979486804,0.0,0,False
2024-12-23,0.9934393979486804,0.9934393979486804,0.0,0,False
2024-12-24,0.9934393979486804,0.9934393979486804,0.0,0,False
2024-12-25,0.9934393979486804,1.000131931309513,0.6736730367903343,1,True
2024-12-26,1.000131931309513,1.0024082951979816,0.22760636044167892,0,True
2024-12-27,1.0024082951979816,1.0024082951979816,0.0,0,False
2024-12-28,1.0024082951979816,1.0024082951979816,0.0,0,False
2024-12-29,1.0024082951979816,1.0024082951979816,0.0,0,False
2024-12-30,1.0024082951979816,1.0024082951979816,0.0,0,False
2024-12-31,1.0024082951979816,1.0024082951979816,0.0,0,False
