day,start_equity,end_equity,return_pct,entries,active
2021-09-02,1.0,1.0,0.0,0,False
2021-09-03,1.0,1.0,0.0,0,False
2021-09-04,1.0,1.0,0.0,0,False
2021-09-05,1.0,1.0,0.0,0,False
2021-09-06,1.0,1.0,0.0,0,False
2021-09-07,1.0,1.0,0.0,0,False
2021-09-08,1.0,1.0,0.0,0,False
2021-09-09,1.0,1.0,0.0,0,False
2021-09-10,1.0,1.0,0.0,0,False
2021-09-11,1.0,1.0,0.0,0,False
2021-09-12,1.0,1.0,0.0,0,False
2021-09-13,1.0,1.0,0.0,0,False
2021-09-14,1.0,1.0,0.0,0,False
2021-09-15,1.0,1.0,0.0,0,False
2021-09-16,1.0,1.0,0.0,0,False
2021-09-17,1.0,1.0,0.0,0,False
2021-09-18,1.0,1.0,0.0,0,False
2021-09-19,1.0,1.0,0.0,0,False
2021-09-20,1.0,1.0,0.0,0,False
2021-09-21,1.0,1.0,0.0,0,False
2021-09-22,1.0,1.0,0.0,0,False
2021-09-23,1.0,1.0,0.0,0,False
2021-09-24,1.0,1.0,0.0,0,False
2021-09-25,1.0,1.0,0.0,0,False
2021-09-26,1.0,1.0,0.0,0,False
2021-09-27,1.0,1.0,0.0,0,False
2021-09-28,1.0,1.0,0.0,0,False
2021-09-29,1.0,1.0,0.0,0,False
2021-09-30,1.0,1.0,0.0,0,False
2021-10-01,1.0,1.0,0.0,0,False
2021-10-02,1.0,1.0,0.0,0,False
2021-10-03,1.0,1.0,0.0,0,False
2021-10-04,1.0,1.0,0.0,0,False
2021-10-05,1.0,1.0,0.0,0,False
2021-10-06,1.0,1.0013367622167146,0.13367622167146376,1,True
2021-10-07,1.0013367622167146,1.0004939772081831,-0.08416599093653554,0,True
2021-10-08,1.0004939772081831,1.0004939772081831,0.0,0,False
2021-10-09,1.0004939772081831,0.9981469044963843,-0.2345913883807782,3,True
2021-10-10,0.9981469044963843,1.000300551514583,0.21576453410787622,1,True
2021-10-11,1.000300551514583,0.9966563313634399,-0.3643125204345177,0,True
2021-10-12,0.9966563313634399,0.9966563313634399,0.0,0,False
2021-10-13,0.9966563313634399,1.0093351271265074,1.27213316808239,4,True
2021-10-14,1.0093351271265074,1.0242386381808062,1.4765671632501087,0,True
2021-10-15,1.0242386381808062,1.0272008019946954,0.289206411813403,1,True
2021-10-16,1.0272008019946954,1.033599002476243,0.622877286419854,0,True
2021-10-17,1.033599002476243,1.033599002476243,0.0,0,False
2021-10-18,1.033599002476243,1.0325057488471512,-0.10577154452283688,1,True
2021-10-19,1.0325057488471512,1.0345453175890376,0.1975358242957581,0,True
2021-10-20,1.0345453175890376,1.0345453175890376,0.0,0,False
2021-10-21,1.0345453175890376,1.0345453175890376,0.0,0,False
2021-10-22,1.0345453175890376,1.0345453175890376,0.0,0,False
2021-10-23,1.0345453175890376,1.0345453175890376,0.0,0,False
2021-10-24,1.0345453175890376,1.0345453175890376,0.0,0,False
2021-10-25,1.0345453175890376,1.0379466019175363,0.3287709364366176,1,True
2021-10-26,1.0379466019175363,1.0379466019175363,0.0,0,False
2021-10-27,1.0379466019175363,1.0313638625000985,-0.6342079067725326,6,True
2021-10-28,1.0313638625000985,1.0345656558683,0.31044265604189825,0,True
2021-10-29,1.0345656558683,1.0345656558683,0.0,0,False
2021-10-30,1.0345656558683,1.0345656558683,0.0,0,False
2021-10-31,1.0345656558683,1.0345656558683,0.0,0,False
2021-11-01,1.0345656558683,1.035758817106455,0.11532967785921056,1,True
2021-11-02,1.035758817106455,1.0353092354889775,-0.04340601403070021,0,True
2021-11-03,1.0353092354889775,1.0352983567960128,-0.001050767499388705,1,True
2021-11-04,1.0352983567960128,1.0518717299987002,1.6008306295373531,1,True
2021-11-05,1.0518717299987002,1.0518717299987002,0.0,0,False
2021-11-06,1.0518717299987002,1.048741417873277,-0.2975944724198487,1,True
2021-11-07,1.048741417873277,1.0489149088634757,0.01654278044540547,0,True
2021-11-08,1.0489149088634757,1.0489149088634757,0.0,0,False
2021-11-09,1.0489149088634757,1.0489149088634757,0.0,0,False
2021-11-10,1.0489149088634757,1.0489149088634757,0.0,0,False
2021-11-11,1.0489149088634757,1.041356057378577,-0.7206353366727258,9,True
2021-11-12,1.041356057378577,1.0422248852644358,0.08343235531236282,0,True
2021-11-13,1.0422248852644358,1.0410396007571816,-0.11372636788973267,1,True
2021-11-14,1.0410396007571816,1.0413710238013492,0.03183577684522376,0,True
2021-11-15,1.0413710238013492,1.0413710238013492,0.0,0,False
2021-11-16,1.0413710238013492,1.056291060812674,1.4327301864864417,5,True
2021-11-17,1.056291060812674,1.0419128191958418,-1.3612007286864847,0,True
2021-11-18,1.0419128191958418,1.0389683541283703,-0.2826018658397933,2,True
2021-11-19,1.0389683541283703,1.0425695917855586,0.34661668402879986,1,True
2021-11-20,1.0425695917855586,1.0430918378037128,0.05009219741962667,0,True
2021-11-21,1.0430918378037128,1.0430918378037128,0.0,0,False
2021-11-22,1.0430918378037128,1.0378846407873092,-0.49920791513119456,1,True
2021-11-23,1.0378846407873092,1.0378846407873092,0.0,0,False
2021-11-24,1.0378846407873092,1.0378846407873092,0.0,0,False
2021-11-25,1.0378846407873092,1.040154403596328,0.21869124176430166,2,True
2021-11-26,1.040154403596328,1.017709972469393,-2.1577980201144653,7,True
2021-11-27,1.017709972469393,1.0289656010970647,1.1059760572416089,0,True
2021-11-28,1.0289656010970647,1.023829460819637,-0.49915568333398497,1,True
2021-11-29,1.023829460819637,1.023829460819637,0.0,0,False
2021-11-30,1.023829460819637,1.023829460819637,0.0,0,False
2021-12-01,1.023829460819637,1.0217094762913588,-0.2070642240145193,1,True
2021-12-02,1.0217094762913588,1.0194995186740805,-0.2163000019633765,2,True
2021-12-03,1.0194995186740805,1.0142998852636644,-0.5100182310216805,1,True
2021-12-04,1.0142998852636644,0.9454050703866193,-6.792351638602046,15,True
2021-12-05,0.9454050703866193,0.9425978099049871,-0.29693732026253583,1,True
2021-12-06,0.9425978099049871,0.9373860066098487,-0.5529190966042763,7,True
2021-12-07,0.9373860066098487,0.9605249868636925,2.468458040837218,0,True
2021-12-08,0.9605249868636925,0.963767636778933,0.33759141715077323,1,True
2021-12-09,0.963767636778933,0.961507440957838,-0.23451667547677024,0,True
2021-12-10,0.961507440957838,0.9567038535691504,-0.49958920587264144,1,True
2021-12-11,0.9567038535691504,0.9563175283914123,-0.04038085310276163,1,True
2021-12-12,0.9563175283914123,0.9578073938880821,0.1557919260536611,0,True
2021-12-13,0.9578073938880821,0.9544414192547297,-0.3514249999354013,1,True
2021-12-14,0.9544414192547297,0.9530237183313,-0.14853723809856723,0,True
2021-12-15,0.9530237183313,0.9530237183313,0.0,0,False
2021-12-16,0.9530237183313,0.9530237183313,0.0,0,False
2021-12-17,0.9530237183313,0.953264883950452,0.025305311348833293,2,True
2021-12-18,0.953264883950452,0.9587503546179831,0.5754403377158601,0,True
2021-12-19,0.9587503546179831,0.9557584296194009,-0.3120650734751762,1,True
2021-12-20,0.9557584296194009,0.9539599634859233,-0.18817162137861887,0,True
2021-12-21,0.9539599634859233,0.9513924576132377,-0.26914188969771047,1,True
2021-12-22,0.9513924576132377,0.9518223024468846,0.04518060136038393,0,True
2021-12-23,0.9518223024468846,0.9518223024468846,0.0,0,False
2021-12-24,0.9518223024468846,0.9518223024468846,0.0,0,False
2021-12-25,0.9518223024468846,0.9533639582418557,0.16196886656343334,1,True
2021-12-26,0.9533639582418557,0.9530458342231815,-0.03336858037521484,0,True
2021-12-27,0.9530458342231815,0.9530458342231815,0.0,0,False
2021-12-28,0.9530458342231815,0.9530458342231815,0.0,0,False
2021-12-29,0.9530458342231815,0.9530458342231815,0.0,0,False
2021-12-30,0.9530458342231815,0.9530458342231815,0.0,0,False
2021-12-31,0.9530458342231815,0.9530458342231815,0.0,0,False
2022-01-01,0.9530458342231815,0.9530458342231815,0.0,0,False
2022-01-02,0.9530458342231815,0.9530458342231815,0.0,0,False
2022-01-03,0.9530458342231815,0.9530458342231815,0.0,0,False
2022-01-04,0.9530458342231815,0.9530458342231815,0.0,0,False
2022-01-05,0.9530458342231815,0.9542691463000594,0.12835815791325533,1,True
2022-01-06,0.9542691463000594,0.9381643817378668,-1.687654329455679,9,True
2022-01-07,0.9381643817378668,0.9486521057296384,1.1178983338020254,4,True
2022-01-08,0.9486521057296384,0.9466575978369395,-0.21024650455657712,0,True
2022-01-09,0.9466575978369395,0.9471489744541179,0.05190647793893444,1,True
2022-01-10,0.9471489744541179,0.9485500007315102,0.14792037104824907,0,True
2022-01-11,0.9485500007315102,0.9485500007315102,0.0,0,False
2022-01-12,0.9485500007315102,0.9485500007315102,0.0,0,False
2022-01-13,0.9485500007315102,0.9485500007315102,0.0,0,False
2022-01-14,0.9485500007315102,0.9485500007315102,0.0,0,False
2022-01-15,0.9485500007315102,0.9488821640731353,0.03501801079215383,1,True
2022-01-16,0.9488821640731353,0.9479192005765747,-0.10148399169259692,0,True
2022-01-17,0.9479192005765747,0.9498705619372955,0.2058573515056672,1,True
2022-01-18,0.9498705619372955,0.9565552890124354,0.703751368134431,0,True
2022-01-19,0.9565552890124354,0.9565552890124354,0.0,0,False
2022-01-20,0.9565552890124354,0.9565552890124354,0.0,0,False
2022-01-21,0.9565552890124354,0.9256466480768064,-3.2312445804925316,7,True
2022-01-22,0.9256466480768064,0.9034660488542788,-2.3962274663460015,8,True
2022-01-23,0.9034660488542788,0.9108814050058774,0.8207675497050815,0,True
2022-01-24,0.9108814050058774,0.9053593657046625,-0.6062303249213197,2,True
2022-01-25,0.9053593657046625,0.921862968006581,1.8228786189308677,0,True
2022-01-26,0.921862968006581,0.921862968006581,0.0,0,False
2022-01-27,0.921862968006581,0.9342841000806278,1.3473946242689383,4,True
2022-01-28,0.9342841000806278,0.9222456263202993,-1.2885238825416812,0,True
2022-01-29,0.9222456263202993,0.9222456263202993,0.0,0,False
2022-01-30,0.9222456263202993,0.928578259163977,0.6866536053897532,1,True
2022-01-31,0.928578259163977,0.9306159191106157,0.21943868774974007,0,True
2022-02-01,0.9306159191106157,0.9306159191106157,0.0,0,False
2022-02-02,0.9306159191106157,0.9306159191106157,0.0,0,False
2022-02-03,0.9306159191106157,0.9278967122492291,-0.29219432050822114,3,True
2022-02-04,0.9278967122492291,0.9389748387911199,1.1938965183999173,0,True
2022-02-05,0.9389748387911199,0.9389748387911199,0.0,0,False
2022-02-06,0.9389748387911199,0.9389748387911199,0.0,0,False
2022-02-07,0.9389748387911199,0.9389748387911199,0.0,0,False
2022-02-08,0.9389748387911199,0.9389748387911199,0.0,0,False
2022-02-09,0.9389748387911199,0.9411956413156048,0.23651352866325137,2,True
2022-02-10,0.9411956413156048,0.9420590725187671,0.09173769674022392,5,True
2022-02-11,0.9420590725187671,0.9334102604626162,-0.9180753424545496,0,True
2022-02-12,0.9334102604626162,0.9148097245152403,-1.9927503194744234,4,True
2022-02-13,0.9148097245152403,0.9148097245152403,0.0,0,False
2022-02-14,0.9148097245152403,0.9148097245152403,0.0,0,False
2022-02-15,0.9148097245152403,0.9148097245152403,0.0,0,False
2022-02-16,0.9148097245152403,0.9148097245152403,0.0,0,False
2022-02-17,0.9148097245152403,0.9148097245152403,0.0,0,False
2022-02-18,0.9148097245152403,0.9148097245152403,0.0,0,False
2022-02-19,0.9148097245152403,0.9148097245152403,0.0,0,False
2022-02-20,0.9148097245152403,0.9148097245152403,0.0,0,False
2022-02-21,0.9148097245152403,0.9148097245152403,0.0,0,False
2022-02-22,0.9148097245152403,0.9132081073516071,-0.17507653457465855,2,True
2022-02-23,0.9132081073516071,0.9124544011757537,-0.08253389011615431,0,True
2022-02-24,0.9124544011757537,0.8942817889500312,-1.9916186718268891,4,True
2022-02-25,0.8942817889500312,0.8942817889500312,0.0,0,False
2022-02-26,0.8942817889500312,0.8942817889500312,0.0,0,False
2022-02-27,0.8942817889500312,0.8942817889500312,0.0,0,False
2022-02-28,0.8942817889500312,0.8963464970081684,0.2308789112838161,1,True
2022-03-01,0.8963464970081684,0.8989827698216254,0.2941131384187168,0,True
2022-03-02,0.8989827698216254,0.8989827698216254,0.0,0,False
2022-03-03,0.8989827698216254,0.8989827698216254,0.0,0,False
2022-03-04,0.8989827698216254,0.8972517825078935,-0.192549553989263,1,True
2022-03-05,0.8972517825078935,0.8966553508590838,-0.06647316399223113,0,True
2022-03-06,0.8966553508590838,0.8906681130221867,-0.6677301185077034,3,True
2022-03-07,0.8906681130221867,0.885805113577149,-0.5459945600316596,0,True
2022-03-08,0.885805113577149,0.8867142037289159,0.10262868635919631,1,True
2022-03-09,0.8867142037289159,0.8946127813331204,0.8907692660147459,1,True
2022-03-10,0.8946127813331204,0.8943039095063603,-0.034525756081849046,3,True
2022-03-11,0.8943039095063603,0.8903559162179554,-0.4414599160797672,0,True
2022-03-12,0.8903559162179554,0.8903559162179554,0.0,0,False
2022-03-13,0.8903559162179554,0.8903559162179554,0.0,0,False
2022-03-14,0.8903559162179554,0.8859122938182764,-0.49908382914493066,1,True
2022-03-15,0.8859122938182764,0.8866464031524285,0.08286478687276055,1,True
2022-03-16,0.8866464031524285,0.8896363371365165,0.33721830635724537,1,True
2022-03-17,0.8896363371365165,0.8907717994258451,0.127632184290416,1,True
2022-03-18,0.8907717994258451,0.8899257493779725,-0.09497943787823981,0,True
2022-03-19,0.8899257493779725,0.8899257493779725,0.0,0,False
2022-03-20,0.8899257493779725,0.885480377847482,-0.499521621168697,1,True
2022-03-21,0.885480377847482,0.890756499323942,0.5958484917854001,3,True
2022-03-22,0.890756499323942,0.8901158796590394,-0.0719186068682931,0,True
2022-03-23,0.8901158796590394,0.8901158796590394,0.0,0,False
2022-03-24,0.8901158796590394,0.8901158796590394,0.0,0,False
2022-03-25,0.8901158796590394,0.8901158796590394,0.0,0,False
2022-03-26,0.8901158796590394,0.8901158796590394,0.0,0,False
2022-03-27,0.8901158796590394,0.8901158796590394,0.0,0,False
2022-03-28,0.8901158796590394,0.8901158796590394,0.0,0,False
2022-03-29,0.8901158796590394,0.8901158796590394,0.0,0,False
2022-03-30,0.8901158796590394,0.8966682589932942,0.7361265520579918,4,True
2022-03-31,0.8966682589932942,0.9034222730983958,0.7532344361876442,5,True
2022-04-01,0.9034222730983958,0.8833215199711042,-2.2249565597219245,0,True
2022-04-02,0.8833215199711042,0.8833215199711042,0.0,0,False
2022-04-03,0.8833215199711042,0.8789120970712548,-0.49918662685740633,1,True
2022-04-04,0.8789120970712548,0.8789120970712548,0.0,0,False
2022-04-05,0.8789120970712548,0.8785636216151826,-0.03964849923370206,3,True
2022-04-06,0.8785636216151826,0.8545795530634253,-2.7299182394627475,7,True
2022-04-07,0.8545795530634253,0.8509718765836244,-0.4221580620397902,0,True
2022-04-08,0.8509718765836244,0.8509718765836244,0.0,0,False
2022-04-09,0.8509718765836244,0.8509718765836244,0.0,0,False
2022-04-10,0.8509718765836244,0.8509718765836244,0.0,0,False
2022-04-11,0.8509718765836244,0.8432281058294032,-0.9099913836529971,6,True
2022-04-12,0.8432281058294032,0.8474284605766218,0.49812793456252,0,True
2022-04-13,0.8474284605766218,0.8474284605766218,0.0,0,False
2022-04-14,0.8474284605766218,0.8474284605766218,0.0,0,False
2022-04-15,0.8474284605766218,0.8474284605766218,0.0,0,False
2022-04-16,0.8474284605766218,0.8474284605766218,0.0,0,False
2022-04-17,0.8474284605766218,0.8509984623815342,0.42127471178903253,1,True
2022-04-18,0.8509984623815342,0.852416771654746,0.16666414052530776,6,True
2022-04-19,0.852416771654746,0.8645365724434073,1.4218163217429192,0,True
2022-04-20,0.8645365724434073,0.8645365724434073,0.0,0,False
2022-04-21,0.8645365724434073,0.8666462819479341,0.24402779150964893,2,True
2022-04-22,0.8666462819479341,0.8622942714377132,-0.5021668702528848,0,True
2022-04-23,0.8622942714377132,0.8622942714377132,0.0,0,False
2022-04-24,0.8622942714377132,0.8622942714377132,0.0,0,False
2022-04-25,0.8622942714377132,0.857012490873652,-0.6125264586595014,3,True
2022-04-26,0.857012490873652,0.8599901208531808,0.34744300826856644,2,True
2022-04-27,0.8599901208531808,0.8587963123695765,-0.13881653459226762,0,True
2022-04-28,0.8587963123695765,0.8587963123695765,0.0,0,False
2022-04-29,0.8587963123695765,0.8587963123695765,0.0,0,False
2022-04-30,0.8587963123695765,0.8562652600652987,-0.2947209096990866,1,True
2022-05-01,0.8562652600652987,0.8603220538395654,0.4737776905672231,6,True
2022-05-02,0.8603220538395654,0.8626293906817453,0.26819454783035823,0,True
2022-05-03,0.8626293906817453,0.8633942958555051,0.08867135551169358,3,True
2022-05-04,0.8633942958555051,0.8566145940623512,-0.7852381960013033,1,True
2022-05-05,0.8566145940623512,0.8566145940623512,0.0,0,False
2022-05-06,0.8566145940623512,0.8454453161928729,-1.3038860120874074,4,True
2022-05-07,0.8454453161928729,0.8415722223753074,-0.458112871806593,2,True
2022-05-08,0.8415722223753074,0.8308473292344714,-1.2743877299758566,3,True
2022-05-09,0.8308473292344714,0.8218292769859998,-1.085404253123201,3,True
2022-05-10,0.8218292769859998,0.8087686464592329,-1.589214559825114,7,True
2022-05-11,0.8087686464592329,0.783995154455572,-3.063112314271643,8,True
2022-05-12,0.783995154455572,0.7757825685568374,-1.0475301858769326,0,True
2022-05-13,0.7757825685568374,0.7757825685568374,0.0,0,False
2022-05-14,0.7757825685568374,0.7660989461657699,-1.2482392339752568,4,True
2022-05-15,0.7660989461657699,0.7872153647940023,2.756356569072116,1,True
2022-05-16,0.7872153647940023,0.785943891729193,-0.16151527544715494,8,True
2022-05-17,0.785943891729193,0.7976032655611569,1.4834867927164153,4,True
2022-05-18,0.7976032655611569,0.783673192582621,-1.7464914676264875,0,True
2022-05-19,0.783673192582621,0.7975403746953347,1.7695108425253014,6,True
2022-05-20,0.7975403746953347,0.8065585843059111,1.1307527363766834,1,True
2022-05-21,0.8065585843059111,0.8065585843059111,0.0,0,False
2022-05-22,0.8065585843059111,0.8065585843059111,0.0,0,False
2022-05-23,0.8065585843059111,0.8066331679851815,0.009247149645630337,1,True
2022-05-24,0.8066331679851815,0.7938511312880723,-1.5846158085758288,7,True
2022-05-25,0.7938511312880723,0.7898992248245318,-0.49781455335691227,1,True
2022-05-26,0.7898992248245318,0.7733341202550255,-2.0971161951939044,8,True
2022-05-27,0.7733341202550255,0.7653673521800051,-1.030184478656282,2,True
2022-05-28,0.7653673521800051,0.7662964250566571,0.12138914391968125,0,True
2022-05-29,0.7662964250566571,0.7624748225530626,-0.49871073107405905,1,True
2022-05-30,0.7624748225530626,0.7624748225530626,0.0,0,False
2022-05-31,0.7624748225530626,0.7605559981980736,-0.2516574053637699,1,True
2022-06-01,0.7605559981980736,0.7643562503732592,0.4996676358071106,1,True
2022-06-02,0.7643562503732592,0.765244462449299,0.11620393966897957,1,True
2022-06-03,0.765244462449299,0.766479324497039,0.16136830886532838,0,True
2022-06-04,0.766479324497039,0.766479324497039,0.0,0,False
2022-06-05,0.766479324497039,0.766479324497039,0.0,0,False
2022-06-06,0.766479324497039,0.767987188616842,0.19672600050790745,1,True
2022-06-07,0.767987188616842,0.7648350948122451,-0.4104357274857473,4,True
2022-06-08,0.7648350948122451,0.7755222014029729,1.397308604588976,3,True
2022-06-09,0.7755222014029729,0.7739928766565202,-0.1971993507969283,2,True
2022-06-10,0.7739928766565202,0.770797944942523,-0.41278567417811773,4,True
2022-06-11,0.770797944942523,0.7476780263195546,-2.99947849818053,3,True
2022-06-12,0.7476780263195546,0.7371666099969074,-1.4058747151350248,7,True
2022-06-13,0.7371666099969074,0.7103000959566493,-3.644564698931596,4,True
2022-06-14,0.7103000959566493,0.7187061423066399,1.183449980908291,4,True
2022-06-15,0.7187061423066399,0.7183934862001012,-0.04350263454478975,4,True
2022-06-16,0.7183934862001012,0.7397344861038658,2.970656097767055,1,True
2022-06-17,0.7397344861038658,0.7397344861038658,0.0,0,False
2022-06-18,0.7397344861038658,0.7342532626174543,-0.7409717391007153,5,True
2022-06-19,0.7342532626174543,0.7371014550923501,0.38790327805187097,2,True
2022-06-20,0.7371014550923501,0.7371014550923501,0.0,0,False
2022-06-21,0.7371014550923501,0.7371014550923501,0.0,0,False
2022-06-22,0.7371014550923501,0.7371014550923501,0.0,0,False
2022-06-23,0.7371014550923501,0.7371014550923501,0.0,0,False
2022-06-24,0.7371014550923501,0.7334233118901913,-0.49900094169507136,1,True
2022-06-25,0.7334233118901913,0.732135180679663,-0.17563270619370686,3,True
2022-06-26,0.732135180679663,0.7357340261001446,0.49155477232232236,0,True
2022-06-27,0.7357340261001446,0.7324261599786577,-0.44960080737609376,4,True
2022-06-28,0.7324261599786577,0.7301273212492047,-0.31386627827711955,2,True
2022-06-29,0.7301273212492047,0.7306682641308064,0.07408884257011916,2,True
2022-06-30,0.7306682641308064,0.7308358275907801,0.022932905149919414,1,True
2022-07-01,0.7308358275907801,0.730539098440466,-0.04060134152047423,1,True
2022-07-02,0.730539098440466,0.7292036242388862,-0.18280667036587595,1,True
2022-07-03,0.7292036242388862,0.7300426087087569,0.11505489577707806,1,True
2022-07-04,0.7300426087087569,0.7327045755124794,0.36463170395364397,0,True
2022-07-05,0.7327045755124794,0.7327045755124794,0.0,0,False
2022-07-06,0.7327045755124794,0.7327045755124794,0.0,0,False
2022-07-07,0.7327045755124794,0.7327045755124794,0.0,0,False
2022-07-08,0.7327045755124794,0.7327045755124794,0.0,0,False
2022-07-09,0.7327045755124794,0.7327045755124794,0.0,0,False
2022-07-10,0.7327045755124794,0.7327045755124794,0.0,0,False
2022-07-11,0.7327045755124794,0.7290457170562895,-0.4993633967183442,1,True
2022-07-12,0.7290457170562895,0.7299500724621417,0.12404646028287836,2,True
2022-07-13,0.7299500724621417,0.7345280649058061,0.6271651468192418,5,True
2022-07-14,0.7345280649058061,0.7471678884429092,1.7208087942458539,0,True
2022-07-15,0.7471678884429092,0.7471678884429092,0.0,0,False
2022-07-16,0.7471678884429092,0.7471678884429092,0.0,0,False
2022-07-17,0.7471678884429092,0.7471678884429092,0.0,0,False
2022-07-18,0.7471678884429092,0.7471678884429092,0.0,0,False
2022-07-19,0.7471678884429092,0.7471678884429092,0.0,0,False
2022-07-20,0.7471678884429092,0.7471603521802921,-0.0010086438046452706,1,True
2022-07-21,0.7471603521802921,0.7412797524122281,-0.7870599331058936,5,True
2022-07-22,0.7412797524122281,0.741297864931499,0.002443412114239152,0,True
2022-07-23,0.741297864931499,0.7399926245786004,-0.17607501851083507,1,True
2022-07-24,0.7399926245786004,0.7435167193020853,0.4762337632070013,1,True
2022-07-25,0.7435167193020853,0.7438609378861165,0.046296011252344726,1,True
2022-07-26,0.7438609378861165,0.7433513922577693,-0.06850011909420584,1,True
2022-07-27,0.7433513922577693,0.7447046064477818,0.18204232938912046,0,True
2022-07-28,0.7447046064477818,0.7447046064477818,0.0,0,False
2022-07-29,0.7447046064477818,0.7447046064477818,0.0,0,False
2022-07-30,0.7447046064477818,0.7447046064477818,0.0,0,False
2022-07-31,0.7447046064477818,0.7439066257661074,-0.10715398760331452,1,True
2022-08-01,0.7439066257661074,0.7437538121898868,-0.020542037256798817,1,True
2022-08-02,0.7437538121898868,0.7425592417714573,-0.1606136867940533,1,True
2022-08-03,0.7425592417714573,0.7447999977870964,0.3017612453780183,1,True
2022-08-04,0.7447999977870964,0.74287104975277,-0.2589887271828073,0,True
2022-08-05,0.74287104975277,0.7443634235448799,0.20089271113832297,1,True
2022-08-06,0.7443634235448799,0.744253004775597,-0.014833986435969226,0,True
2022-08-07,0.744253004775597,0.7448414224931735,0.07906151722611998,2,True
2022-08-08,0.7448414224931735,0.7453377869437542,0.06664028551461865,0,True
2022-08-09,0.7453377869437542,0.7422686501247913,-0.41177797137427197,5,True
2022-08-10,0.7422686501247913,0.7529081457323635,1.433375315767882,1,True
2022-08-11,0.7529081457323635,0.754927785221737,0.26824513731471544,1,True
2022-08-12,0.754927785221737,0.7536745174165282,-0.16601161458650315,1,True
2022-08-13,0.7536745174165282,0.7536745174165282,0.0,0,False
2022-08-14,0.7536745174165282,0.7536745174165282,0.0,0,False
2022-08-15,0.7536745174165282,0.7536745174165282,0.0,0,False
2022-08-16,0.7536745174165282,0.7530967553966196,-0.07665935447693784,1,True
2022-08-17,0.7530967553966196,0.750626780329505,-0.32797579453303083,1,True
2022-08-18,0.750626780329505,0.7470085191380161,-0.4820319879741852,1,True
2022-08-19,0.7470085191380161,0.7304822222235686,-2.212330447518518,10,True
2022-08-20,0.7304822222235686,0.7304618410585555,-0.0027900973347594338,1,True
2022-08-21,0.7304618410585555,0.7341682354508651,0.5074042453659722,0,True
2022-08-22,0.7341682354508651,0.7341682354508651,0.0,0,False
2022-08-23,0.7341682354508651,0.7341682354508651,0.0,0,False
2022-08-24,0.7341682354508651,0.7341682354508651,0.0,0,False
2022-08-25,0.7341682354508651,0.7327953697186506,-0.1869960679205085,1,True
2022-08-26,0.7327953697186506,0.7316733904664804,-0.15310948984310624,0,True
2022-08-27,0.7316733904664804,0.7321876909718066,0.0702909948656627,3,True
2022-08-28,0.7321876909718066,0.7321270015713335,-0.008288776391818242,0,True
2022-08-29,0.7321270015713335,0.7320571108265834,-0.00954625967899414,1,True
2022-08-30,0.7320571108265834,0.7297878056693528,-0.3099901802290139,1,True
2022-08-31,0.7297878056693528,0.7297878056693528,0.0,0,False
2022-09-01,0.7297878056693528,0.7297878056693528,0.0,0,False
2022-09-02,0.7297878056693528,0.7297878056693528,0.0,0,False
2022-09-03,0.7297878056693528,0.7297878056693528,0.0,0,False
2022-09-04,0.7297878056693528,0.7297878056693528,0.0,0,False
2022-09-05,0.7297878056693528,0.7297878056693528,0.0,0,False
2022-09-06,0.7297878056693528,0.7282194544118137,-0.21490510602607538,1,True
2022-09-07,0.7282194544118137,0.7165776869733071,-1.5986619648756362,5,True
2022-09-08,0.7165776869733071,0.7165772761474322,-5.733165886478986e-05,0,True
2022-09-09,0.7165772761474322,0.7165772761474322,0.0,0,False
2022-09-10,0.7165772761474322,0.7165772761474322,0.0,0,False
2022-09-11,0.7165772761474322,0.7165772761474322,0.0,0,False
2022-09-12,0.7165772761474322,0.7165772761474322,0.0,0,False
2022-09-13,0.7165772761474322,0.7100972089806732,-0.9043082138465275,4,True
2022-09-14,0.7100972089806732,0.7056969943404307,-0.6196637002078842,0,True
2022-09-15,0.7056969943404307,0.7082811350944221,0.3661827632419845,1,True
2022-09-16,0.7082811350944221,0.7062474470194803,-0.2871300637805052,1,True
2022-09-17,0.7062474470194803,0.7056348725148137,-0.08673652658877096,1,True
2022-09-18,0.7056348725148137,0.7066034985040935,0.1372701416849864,0,True
2022-09-19,0.7066034985040935,0.7006934444771579,-0.8364031652047466,8,True
2022-09-20,0.7006934444771579,0.7007009819213923,0.001075712109743776,0,True
2022-09-21,0.7007009819213923,0.7007009819213923,0.0,0,False
2022-09-22,0.7007009819213923,0.7013940562014812,0.09891156113246424,1,True
2022-09-23,0.7013940562014812,0.7016998843767135,0.04360290374978426,0,True
2022-09-24,0.7016998843767135,0.7016998843767135,0.0,0,False
2022-09-25,0.7016998843767135,0.7016998843767135,0.0,0,False
2022-09-26,0.7016998843767135,0.7016998843767135,0.0,0,False
2022-09-27,0.7016998843767135,0.7016998843767135,0.0,0,False
2022-09-28,0.7016998843767135,0.7016998843767135,0.0,0,False
2022-09-29,0.7016998843767135,0.7016998843767135,0.0,0,False
2022-09-30,0.7016998843767135,0.7016998843767135,0.0,0,False
2022-10-01,0.7016998843767135,0.7016998843767135,0.0,0,False
2022-10-02,0.7016998843767135,0.7016998843767135,0.0,0,False
2022-10-03,0.7016998843767135,0.7016998843767135,0.0,0,False
2022-10-04,0.7016998843767135,0.7016998843767135,0.0,0,False
2022-10-05,0.7016998843767135,0.7016998843767135,0.0,0,False
2022-10-06,0.7016998843767135,0.7016998843767135,0.0,0,False
2022-10-07,0.7016998843767135,0.7016998843767135,0.0,0,False
2022-10-08,0.7016998843767135,0.7002063173548027,-0.21284983155405168,1,True
2022-10-09,0.7002063173548027,0.6993552374341654,-0.12154702114833826,0,True
2022-10-10,0.6993552374341654,0.6993552374341654,0.0,0,False
2022-10-11,0.6993552374341654,0.7147995621338755,2.2083662026144424,5,True
2022-10-12,0.7147995621338755,0.7153615587231554,0.07862296216329945,2,True
2022-10-13,0.7153615587231554,0.7151160672213924,-0.03431712240746787,1,True
2022-10-14,0.7151160672213924,0.718905769531083,0.5299422685908217,0,True
2022-10-15,0.718905769531083,0.718905769531083,0.0,0,False
2022-10-16,0.718905769531083,0.718905769531083,0.0,0,False
2022-10-17,0.718905769531083,0.718905769531083,0.0,0,False
2022-10-18,0.718905769531083,0.718905769531083,0.0,0,False
2022-10-19,0.718905769531083,0.718905769531083,0.0,0,False
2022-10-20,0.718905769531083,0.722125408368757,0.4478526914277081,2,True
2022-10-21,0.722125408368757,0.7187987610144074,-0.46067446399156164,0,True
2022-10-22,0.7187987610144074,0.7187987610144074,0.0,0,False
2022-10-23,0.7187987610144074,0.7187987610144074,0.0,0,False
2022-10-24,0.7187987610144074,0.7187987610144074,0.0,0,False
2022-10-25,0.7187987610144074,0.7182860009598481,-0.07133568981612104,1,True
2022-10-26,0.7182860009598481,0.7193691336715143,0.1507940723080914,0,True
2022-10-27,0.7193691336715143,0.7193691336715143,0.0,0,False
2022-10-28,0.7193691336715143,0.7193691336715143,0.0,0,False
2022-10-29,0.7193691336715143,0.7193691336715143,0.0,0,False
2022-10-30,0.7193691336715143,0.7193691336715143,0.0,0,False
2022-10-31,0.7193691336715143,0.7193691336715143,0.0,0,False
2022-11-01,0.7193691336715143,0.7193691336715143,0.0,0,False
2022-11-02,0.7193691336715143,0.7227309171034851,0.46732383620811113,2,True
2022-11-03,0.7227309171034851,0.7242452973106412,0.20953582741767285,0,True
2022-11-04,0.7242452973106412,0.7243389799625832,0.012935210251252549,2,True
2022-11-05,0.7243389799625832,0.7230310115726576,-0.18057407182383578,0,True
2022-11-06,0.7230310115726576,0.7232120141850802,0.025033865702228653,1,True
2022-11-07,0.7232120141850802,0.7249377356778813,0.23861902995980788,3,True
2022-11-08,0.7249377356778813,0.7124418226377079,-1.7237222488478365,8,True
2022-11-09,0.7124418226377079,0.6844371167851528,-3.9308059918312988,5,True
2022-11-10,0.6844371167851528,0.6844371167851528,0.0,0,False
2022-11-11,0.6844371167851528,0.678522874646356,-0.8641030700638264,7,True
2022-11-12,0.678522874646356,0.6759248022132202,-0.3829012300417878,5,True
2022-11-13,0.6759248022132202,0.6788953981572985,0.4394861579796405,1,True
2022-11-14,0.6788953981572985,0.676538966498567,-0.347097898310611,2,True
2022-11-15,0.676538966498567,0.6771869465112696,0.09577866830883242,0,True
2022-11-16,0.6771869465112696,0.6767872951499547,-0.05901640062229152,1,True
2022-11-17,0.6767872951499547,0.6777286261638271,0.1390881626499585,1,True
2022-11-18,0.6777286261638271,0.6792282972094756,0.22127898804233936,0,True
2022-11-19,0.6792282972094756,0.6789041791994457,-0.04771856699162802,3,True
2022-11-20,0.6789041791994457,0.6728856487220187,-0.8865066178446401,2,True
2022-11-21,0.6728856487220187,0.6594711252165207,-1.9935814548839859,4,True
2022-11-22,0.6594711252165207,0.6568615933202616,-0.3957007056832662,0,True
2022-11-23,0.6568615933202616,0.662794912285281,0.9032829785385887,1,True
2022-11-24,0.662794912285281,0.6610724153588335,-0.25988384861138636,1,True
2022-11-25,0.6610724153588335,0.6598562959021513,-0.18396160971594355,1,True
2022-11-26,0.6598562959021513,0.6607415899047386,0.13416466707754093,0,True
2022-11-27,0.6607415899047386,0.6607415899047386,0.0,0,False
2022-11-28,0.6607415899047386,0.6576853437013125,-0.462547878039099,4,True
2022-11-29,0.6576853437013125,0.6583641904753678,0.10321756149147543,0,True
2022-11-30,0.6583641904753678,0.6583641904753678,0.0,0,False
2022-12-01,0.6583641904753678,0.6582538991598303,-0.01675232601241472,1,True
2022-12-02,0.6582538991598303,0.6582538991598303,0.0,0,False
2022-12-03,0.6582538991598303,0.6582538991598303,0.0,0,False
2022-12-04,0.6582538991598303,0.6582538991598303,0.0,0,False
2022-12-05,0.6582538991598303,0.6582538991598303,0.0,0,False
2022-12-06,0.6582538991598303,0.6588758356310931,0.09448276296677438,2,True
2022-12-07,0.6588758356310931,0.6556203502892909,-0.49409693993163195,1,True
2022-12-08,0.6556203502892909,0.6537457259075312,-0.2859313901608651,1,True
2022-12-09,0.6537457259075312,0.6537457259075312,0.0,0,False
2022-12-10,0.6537457259075312,0.6537457259075312,0.0,0,False
2022-12-11,0.6537457259075312,0.6537457259075312,0.0,0,False
2022-12-12,0.6537457259075312,0.6533117390509249,-0.06638465681804151,1,True
2022-12-13,0.6533117390509249,0.653280538242233,-0.004775791835187615,0,True
2022-12-14,0.653280538242233,0.653280538242233,0.0,0,False
2022-12-15,0.653280538242233,0.653280538242233,0.0,0,False
2022-12-16,0.653280538242233,0.653781884056678,0.07674280574683223,5,True
2022-12-17,0.653781884056678,0.6415623145615659,-1.8690590536541762,5,True
2022-12-18,0.6415623145615659,0.6415765691564632,0.0022218566418041874,0,True
2022-12-19,0.6415765691564632,0.6415765691564632,0.0,0,False
2022-12-20,0.6415765691564632,0.6415765691564632,0.0,0,False
2022-12-21,0.6415765691564632,0.6415765691564632,0.0,0,False
2022-12-22,0.6415765691564632,0.6415765691564632,0.0,0,False
2022-12-23,0.6415765691564632,0.6415765691564632,0.0,0,False
2022-12-24,0.6415765691564632,0.6415765691564632,0.0,0,False
2022-12-25,0.6415765691564632,0.6415765691564632,0.0,0,False
2022-12-26,0.6415765691564632,0.6415765691564632,0.0,0,False
2022-12-27,0.6415765691564632,0.6415765691564632,0.0,0,False
2022-12-28,0.6415765691564632,0.642377832094001,0.12488968208288487,4,True
2022-12-29,0.642377832094001,0.6376639845846337,-0.7338122945496517,0,True
2022-12-30,0.6376639845846337,0.6376639845846337,0.0,0,False
2022-12-31,0.6376639845846337,0.6376639845846337,0.0,0,False
2023-01-01,0.6376639845846337,0.6376639845846337,0.0,0,False
2023-01-02,0.6376639845846337,0.6376639845846337,0.0,0,False
2023-01-03,0.6376639845846337,0.6376639845846337,0.0,0,False
2023-01-04,0.6376639845846337,0.6376639845846337,0.0,0,False
2023-01-05,0.6376639845846337,0.6376639845846337,0.0,0,False
2023-01-06,0.6376639845846337,0.6370635704786444,-0.09415838443195268,1,True
2023-01-07,0.6370635704786444,0.6381426130826353,0.16937754001224992,0,True
2023-01-08,0.6381426130826353,0.6381426130826353,0.0,0,False
2023-01-09,0.6381426130826353,0.6381426130826353,0.0,0,False
2023-01-10,0.6381426130826353,0.6370230057419611,-0.175447825881081,2,True
2023-01-11,0.6370230057419611,0.6357501774529185,-0.19980884168541158,1,True
2023-01-12,0.6357501774529185,0.6363112151188756,0.08824813359940009,0,True
2023-01-13,0.6363112151188756,0.6363112151188756,0.0,0,False
2023-01-14,0.6363112151188756,0.6377328440220725,0.22341723191714458,4,True
2023-01-15,0.6377328440220725,0.6394094335516153,0.2628984135376822,1,True
2023-01-16,0.6394094335516153,0.6394082369441554,-0.00018714260333618782,0,True
2023-01-17,0.6394082369441554,0.6394082369441554,0.0,0,False
2023-01-18,0.6394082369441554,0.6394082369441554,0.0,0,False
2023-01-19,0.6394082369441554,0.632781740467807,-1.036348312936597,5,True
2023-01-20,0.632781740467807,0.6327747004656468,-0.0011125482468954395,0,True
2023-01-21,0.6327747004656468,0.6333099290274747,0.08458438073364327,1,True
2023-01-22,0.6333099290274747,0.6332342319002373,-0.011952619683963661,0,True
2023-01-23,0.6332342319002373,0.6332342319002373,0.0,0,False
2023-01-24,0.6332342319002373,0.6332342319002373,0.0,0,False
2023-01-25,0.6332342319002373,0.6336098105295839,0.05931116961561678,6,True
2023-01-26,0.6336098105295839,0.6442603066691397,1.6809234899083814,0,True
2023-01-27,0.6442603066691397,0.6442603066691397,0.0,0,False
2023-01-28,0.6442603066691397,0.6442603066691397,0.0,0,False
2023-01-29,0.6442603066691397,0.6442603066691397,0.0,0,False
2023-01-30,0.6442603066691397,0.6463675517972518,0.32707976982264686,4,True
2023-01-31,0.6463675517972518,0.6522392064209591,0.9084080114140747,2,True
2023-02-01,0.6522392064209591,0.6538824639092353,0.2519409247557114,0,True
2023-02-02,0.6538824639092353,0.6538824639092353,0.0,0,False
2023-02-03,0.6538824639092353,0.6541600707159922,0.0424551539579765,1,True
2023-02-04,0.6541600707159922,0.6554453978714588,0.19648511320169426,0,True
2023-02-05,0.6554453978714588,0.6568824507736519,0.21924830151525132,5,True
2023-02-06,0.6568824507736519,0.650332826531347,-0.9970770622035885,0,True
2023-02-07,0.650332826531347,0.650332826531347,0.0,0,False
2023-02-08,0.650332826531347,0.6487564689283486,-0.24239243948459555,1,True
2023-02-09,0.6487564689283486,0.6525407077142283,0.5833065205701482,4,True
2023-02-10,0.6525407077142283,0.6247372295709346,-4.260803627207565,3,True
2023-02-11,0.6247372295709346,0.6247372295709346,0.0,0,False
2023-02-12,0.6247372295709346,0.6247372295709346,0.0,0,False
2023-02-13,0.6247372295709346,0.6248396291003655,0.01639081594373426,2,True
2023-02-14,0.6248396291003655,0.6245589893650259,-0.044913882261865545,0,True
2023-02-15,0.6245589893650259,0.6245589893650259,0.0,0,False
2023-02-16,0.6245589893650259,0.6245589893650259,0.0,0,False
2023-02-17,0.6245589893650259,0.6302102138101038,0.9048343777460222,1,True
2023-02-18,0.6302102138101038,0.6302102138101038,0.0,0,False
2023-02-19,0.6302102138101038,0.6302102138101038,0.0,0,False
2023-02-20,0.6302102138101038,0.6357917797626487,0.8856673265893455,1,True
2023-02-21,0.6357917797626487,0.6326173018274124,-0.49929521523875975,1,True
2023-02-22,0.6326173018274124,0.6326173018274124,0.0,0,False
2023-02-23,0.6326173018274124,0.6383452356352232,0.9054342635373303,1,True
2023-02-24,0.6383452356352232,0.6383452356352232,0.0,0,False
2023-02-25,0.6383452356352232,0.6379523672368111,-0.061544815638991945,1,True
2023-02-26,0.6379523672368111,0.6384867406369977,0.08376384000283732,0,True
2023-02-27,0.6384867406369977,0.6384867406369977,0.0,0,False
2023-02-28,0.6384867406369977,0.6384867406369977,0.0,0,False
2023-03-01,0.6384867406369977,0.6384867406369977,0.0,0,False
2023-03-02,0.6384867406369977,0.6362290933060376,-0.3535934557869935,1,True
2023-03-03,0.6362290933060376,0.6287817840185922,-1.170538940422694,9,True
2023-03-04,0.6287817840185922,0.6303633250152461,0.25152462059987446,0,True
2023-03-05,0.6303633250152461,0.6348017334696292,0.7041032176603457,3,True
2023-03-06,0.6348017334696292,0.6337156798006053,-0.1710854920146332,0,True
2023-03-07,0.6337156798006053,0.6337156798006053,0.0,0,False
2023-03-08,0.6337156798006053,0.6337156798006053,0.0,0,False
2023-03-09,0.6337156798006053,0.6337156798006053,0.0,0,False
2023-03-10,0.6337156798006053,0.6190588153818157,-2.312845474077785,7,True
2023-03-11,0.6190588153818157,0.615787780914759,-0.5283883188125227,5,True
2023-03-12,0.615787780914759,0.6209807912920607,0.843311695725335,0,True
2023-03-13,0.6209807912920607,0.6209807912920607,0.0,0,False
2023-03-14,0.6209807912920607,0.6209807912920607,0.0,0,False
2023-03-15,0.6209807912920607,0.617877527593171,-0.4997358601757762,1,True
2023-03-16,0.617877527593171,0.6182988785070231,0.0681932737533586,1,True
2023-03-17,0.6182988785070231,0.6182789274554689,-0.0032267649591188885,1,True
2023-03-18,0.6182789274554689,0.6242940837041906,0.9728871519974147,1,True
2023-03-19,0.6242940837041906,0.6218217144575467,-0.39602637782089056,1,True
2023-03-20,0.6218217144575467,0.6218092942281925,-0.0019973939580197886,0,True
2023-03-21,0.6218092942281925,0.6218092942281925,0.0,0,False
2023-03-22,0.6218092942281925,0.6218092942281925,0.0,0,False
2023-03-23,0.6218092942281925,0.6338233017868571,1.9321048543632147,6,True
2023-03-24,0.6338233017868571,0.6280149593155092,-0.9163977491791764,1,True
2023-03-25,0.6280149593155092,0.6254488329587455,-0.40860911331802585,1,True
2023-03-26,0.6254488329587455,0.6256178400594119,0.027021730917109466,0,True
2023-03-27,0.6256178400594119,0.6224960958901306,-0.49898579762125417,1,True
2023-03-28,0.6224960958901306,0.6317113153750675,1.4803658281197452,4,True
2023-03-29,0.6317113153750675,0.6317946904834599,0.013198292695282277,0,True
2023-03-30,0.6317946904834599,0.6317946904834599,0.0,0,False
2023-03-31,0.6317946904834599,0.6317946904834599,0.0,0,False
2023-04-01,0.6317946904834599,0.6317946904834599,0.0,0,False
2023-04-02,0.6317946904834599,0.6317946904834599,0.0,0,False
2023-04-03,0.6317946904834599,0.6317946904834599,0.0,0,False
2023-04-04,0.6317946904834599,0.6317946904834599,0.0,0,False
2023-04-05,0.6317946904834599,0.6317946904834599,0.0,0,False
2023-04-06,0.6317946904834599,0.6317946904834599,0.0,0,False
2023-04-07,0.6317946904834599,0.6299368495024625,-0.2940577071921524,1,True
2023-04-08,0.6299368495024625,0.6299368495024625,0.0,0,False
2023-04-09,0.6299368495024625,0.6299368495024625,0.0,0,False
2023-04-10,0.6299368495024625,0.6299368495024625,0.0,0,False
2023-04-11,0.6299368495024625,0.6299368495024625,0.0,0,False
2023-04-12,0.6299368495024625,0.6322424080913176,0.3659983680389667,1,True
2023-04-13,0.6322424080913176,0.6324652269643887,0.03524263323995136,0,True
2023-04-14,0.6324652269643887,0.6358377297947018,0.5332313440376657,1,True
2023-04-15,0.6358377297947018,0.6354691808996182,-0.05796272819521553,0,True
2023-04-16,0.6354691808996182,0.6354691808996182,0.0,0,False
2023-04-17,0.6354691808996182,0.6354691808996182,0.0,0,False
2023-04-18,0.6354691808996182,0.6354691808996182,0.0,0,False
2023-04-19,0.6354691808996182,0.6304971396379033,-0.7824205187537348,7,True
2023-04-20,0.6304971396379033,0.6264050808574143,-0.6490209904582711,0,True
2023-04-21,0.6264050808574143,0.6264050808574143,0.0,0,False
2023-04-22,0.6264050808574143,0.6264050808574143,0.0,0,False
2023-04-23,0.6264050808574143,0.6264050808574143,0.0,0,False
2023-04-24,0.6264050808574143,0.6264050808574143,0.0,0,False
2023-04-25,0.6264050808574143,0.6264050808574143,0.0,0,False
2023-04-26,0.6264050808574143,0.6264050808574143,0.0,0,False
2023-04-27,0.6264050808574143,0.625067358489414,-0.21355547853623147,8,True
2023-04-28,0.625067358489414,0.6293332560072594,0.6824700506125936,0,True
2023-04-29,0.6293332560072594,0.6293332560072594,0.0,0,False
2023-04-30,0.6293332560072594,0.6293332560072594,0.0,0,False
2023-05-01,0.6293332560072594,0.6293332560072594,0.0,0,False
2023-05-02,0.6293332560072594,0.6293332560072594,0.0,0,False
2023-05-03,0.6293332560072594,0.6293332560072594,0.0,0,False
2023-05-04,0.6293332560072594,0.6293332560072594,0.0,0,False
2023-05-05,0.6293332560072594,0.6293332560072594,0.0,0,False
2023-05-06,0.6293332560072594,0.6261948102100069,-0.49869377905819023,1,True
2023-05-07,0.6261948102100069,0.6261948102100069,0.0,0,False
2023-05-08,0.6261948102100069,0.6289229589187371,0.43567092288983034,6,True
2023-05-09,0.6289229589187371,0.6153385548132516,-2.159947242002447,6,True
2023-05-10,0.6153385548132516,0.6110531413462226,-0.6964318152191229,1,True
2023-05-11,0.6110531413462226,0.6072989766138289,-0.6143761447855112,5,True
2023-05-12,0.6072989766138289,0.6051126856667911,-0.3600024092298204,0,True
2023-05-13,0.6051126856667911,0.6051126856667911,0.0,0,False
2023-05-14,0.6051126856667911,0.6051126856667911,0.0,0,False
2023-05-15,0.6051126856667911,0.6051126856667911,0.0,0,False
2023-05-16,0.6051126856667911,0.6051126856667911,0.0,0,False
2023-05-17,0.6051126856667911,0.6051126856667911,0.0,0,False
2023-05-18,0.6051126856667911,0.6036406395492365,-0.2432680974011503,1,True
2023-05-19,0.6036406395492365,0.6020881740562937,-0.257183726745458,0,True
2023-05-20,0.6020881740562937,0.6020881740562937,0.0,0,False
2023-05-21,0.6020881740562937,0.6020881740562937,0.0,0,False
2023-05-22,0.6020881740562937,0.6020881740562937,0.0,0,False
2023-05-23,0.6020881740562937,0.6020881740562937,0.0,0,False
2023-05-24,0.6020881740562937,0.6020881740562937,0.0,0,False
2023-05-25,0.6020881740562937,0.6020881740562937,0.0,0,False
2023-05-26,0.6020881740562937,0.6028951770375103,0.13403401959879435,1,True
2023-05-27,0.6028951770375103,0.6044286511720035,0.25435170041139266,0,True
2023-05-28,0.6044286511720035,0.6044286511720035,0.0,0,False
2023-05-29,0.6044286511720035,0.6044286511720035,0.0,0,False
2023-05-30,0.6044286511720035,0.6065301852197672,0.34768934988254063,2,True
2023-05-31,0.6065301852197672,0.601376509805362,-0.8496980925257525,1,True
2023-06-01,0.601376509805362,0.6011042070437626,-0.04527991319240865,0,True
2023-06-02,0.6011042070437626,0.6011042070437626,0.0,0,False
2023-06-03,0.6011042070437626,0.6011042070437626,0.0,0,False
2023-06-04,0.6011042070437626,0.5980997322229398,-0.4998259512437597,1,True
2023-06-05,0.5980997322229398,0.5980997322229398,0.0,0,False
2023-06-06,0.5980997322229398,0.5897619204108707,-1.3940504171570445,9,True
2023-06-07,0.5897619204108707,0.5898157839575998,0.009133100131597516,0,True
2023-06-08,0.5898157839575998,0.5898157839575998,0.0,0,False
2023-06-09,0.5898157839575998,0.5898157839575998,0.0,0,False
2023-06-10,0.5898157839575998,0.5944052129553945,0.7781122721064015,6,True
2023-06-11,0.5944052129553945,0.5939234778150158,-0.08104490503768602,1,True
2023-06-12,0.5939234778150158,0.5939195387828113,-0.0006632221745017652,0,True
2023-06-13,0.5939195387828113,0.5939195387828113,0.0,0,False
2023-06-14,0.5939195387828113,0.5939195387828113,0.0,0,False
2023-06-15,0.5939195387828113,0.5961992977110825,0.3838497943582153,4,True
2023-06-16,0.5961992977110825,0.6006199244433982,0.7414679536335012,0,True
2023-06-17,0.6006199244433982,0.6006199244433982,0.0,0,False
2023-06-18,0.6006199244433982,0.6006199244433982,0.0,0,False
2023-06-19,0.6006199244433982,0.6006199244433982,0.0,0,False
2023-06-20,0.6006199244433982,0.5976219104408558,-0.49915327156698774,1,True
2023-06-21,0.5976219104408558,0.5976219104408558,0.0,0,False
2023-06-22,0.5976219104408558,0.5976219104408558,0.0,0,False
2023-06-23,0.5976219104408558,0.5976219104408558,0.0,0,False
2023-06-24,0.5976219104408558,0.5976219104408558,0.0,0,False
2023-06-25,0.5976219104408558,0.5967294625498005,-0.1493331946944343,3,True
2023-06-26,0.5967294625498005,0.5948520132189402,-0.31462320007429323,0,True
2023-06-27,0.5948520132189402,0.5948520132189402,0.0,0,False
2023-06-28,0.5948520132189402,0.5948520132189402,0.0,0,False
2023-06-29,0.5948520132189402,0.59282673729782,-0.3404671878238785,2,True
2023-06-30,0.59282673729782,0.585409597553703,-1.2511479792435165,7,True
2023-07-01,0.585409597553703,0.5938684346192387,1.4449433526343425,0,True
2023-07-02,0.5938684346192387,0.5938684346192387,0.0,0,False
2023-07-03,0.5938684346192387,0.5938684346192387,0.0,0,False
2023-07-04,0.5938684346192387,0.5938684346192387,0.0,0,False
2023-07-05,0.5938684346192387,0.5941917541735087,0.05444295999286197,1,True
2023-07-06,0.5941917541735087,0.5943217428774842,0.021876558040823113,1,True
2023-07-07,0.5943217428774842,0.593866276523013,-0.07663632702817891,0,True
2023-07-08,0.593866276523013,0.593866276523013,0.0,0,False
2023-07-09,0.593866276523013,0.593866276523013,0.0,0,False
2023-07-10,0.593866276523013,0.593866276523013,0.0,0,False
2023-07-11,0.593866276523013,0.593866276523013,0.0,0,False
2023-07-12,0.593866276523013,0.5929233615756075,-0.15877563429365082,1,True
2023-07-13,0.5929233615756075,0.5925609468078941,-0.0611233746551032,0,True
2023-07-14,0.5925609468078941,0.5925609468078941,0.0,0,False
2023-07-15,0.5925609468078941,0.5977552480526949,0.8765851466895125,5,True
2023-07-16,0.5977552480526949,0.5984188579130901,0.11101698605859855,1,True
2023-07-17,0.5984188579130901,0.5991429648383864,0.12100336005811396,0,True
2023-07-18,0.5991429648383864,0.5991429648383864,0.0,0,False
2023-07-19,0.5991429648383864,0.5991429648383864,0.0,0,False
2023-07-20,0.5991429648383864,0.5991429648383864,0.0,0,False
2023-07-21,0.5991429648383864,0.5991429648383864,0.0,0,False
2023-07-22,0.5991429648383864,0.5991429648383864,0.0,0,False
2023-07-23,0.5991429648383864,0.5991429648383864,0.0,0,False
2023-07-24,0.5991429648383864,0.5988392561574517,-0.05069051941828384,2,True
2023-07-25,0.5988392561574517,0.5993460766321613,0.08463380940684218,0,True
2023-07-26,0.5993460766321613,0.5993460766321613,0.0,0,False
2023-07-27,0.5993460766321613,0.5993460766321613,0.0,0,False
2023-07-28,0.5993460766321613,0.5993460766321613,0.0,0,False
2023-07-29,0.5993460766321613,0.5993460766321613,0.0,0,False
2023-07-30,0.5993460766321613,0.5993460766321613,0.0,0,False
2023-07-31,0.5993460766321613,0.596356375878652,-0.4988271167651659,1,True
2023-08-01,0.596356375878652,0.5934529028489697,-0.48686878301660297,2,True
2023-08-02,0.5934529028489697,0.5963114205735855,0.4816755821553942,0,True
2023-08-03,0.5963114205735855,0.5963114205735855,0.0,0,False
2023-08-04,0.5963114205735855,0.5963114205735855,0.0,0,False
2023-08-05,0.5963114205735855,0.5963114205735855,0.0,0,False
2023-08-06,0.5963114205735855,0.5963114205735855,0.0,0,False
2023-08-07,0.5963114205735855,0.5964901151989321,0.02996666157670802,1,True
2023-08-08,0.5964901151989321,0.5953031925095631,-0.19898446916813972,1,True
2023-08-09,0.5953031925095631,0.5953810539776327,0.01307929623919346,0,True
2023-08-10,0.5953810539776327,0.5928017373785157,-0.43322114163443226,1,True
2023-08-11,0.5928017373785157,0.5924055050518644,-0.06684061494210969,0,True
2023-08-12,0.5924055050518644,0.5924055050518644,0.0,0,False
2023-08-13,0.5924055050518644,0.5939634750777254,0.2629904706447084,1,True
2023-08-14,0.5939634750777254,0.5934833545275033,-0.08083334588195878,0,True
2023-08-15,0.5934833545275033,0.5934833545275033,0.0,0,False
2023-08-16,0.5934833545275033,0.594941919990287,0.2457634997943492,6,True
2023-08-17,0.594941919990287,0.5979363297151961,0.5033112685954189,4,True
2023-08-18,0.5979363297151961,0.6109211103437997,2.17159921271024,5,True
2023-08-19,0.6109211103437997,0.6109583892033771,0.0061020742197603894,0,True
2023-08-20,0.6109583892033771,0.6109583892033771,0.0,0,False
2023-08-21,0.6109583892033771,0.6109583892033771,0.0,0,False
2023-08-22,0.6109583892033771,0.6113377521245713,0.06209308651754508,1,True
2023-08-23,0.6113377521245713,0.6118845698289112,0.08944608809768884,0,True
2023-08-24,0.6118845698289112,0.6118845698289112,0.0,0,False
2023-08-25,0.6118845698289112,0.6004599707031535,-1.867116722513873,4,True
2023-08-26,0.6004599707031535,0.6004599707031535,0.0,0,False
2023-08-27,0.6004599707031535,0.6004599707031535,0.0,0,False
2023-08-28,0.6004599707031535,0.598858244736781,-0.266749832548685,1,True
2023-08-29,0.598858244736781,0.6027860896496517,0.6558889265350532,1,True
2023-08-30,0.6027860896496517,0.6002500797650204,-0.4207147325024141,1,True
2023-08-31,0.6002500797650204,0.6032241559560343,0.49547285227820037,1,True
2023-09-01,0.6032241559560343,0.6021944473547299,-0.1707008234231644,0,True
2023-09-02,0.6021944473547299,0.6004748133348626,-0.2855612547444042,1,True
2023-09-03,0.6004748133348626,0.6019083044586966,0.23872626994507762,0,True
2023-09-04,0.6019083044586966,0.6004659493627711,-0.23963036981565766,2,True
2023-09-05,0.6004659493627711,0.6025313302329893,0.3439630294457263,0,True
2023-09-06,0.6025313302329893,0.6023204450598947,-0.03499986847373959,2,True
2023-09-07,0.6023204450598947,0.6021356523269082,-0.030680136213545595,1,True
2023-09-08,0.6021356523269082,0.6015164152802995,-0.10284012318747537,1,True
2023-09-09,0.6015164152802995,0.6007347887043842,-0.12994268419941335,2,True
2023-09-10,0.6007347887043842,0.5943666159575081,-1.060063919489418,3,True
2023-09-11,0.5943666159575081,0.59457442730197,0.034963495405460066,0,True
2023-09-12,0.59457442730197,0.59457442730197,0.0,0,False
2023-09-13,0.59457442730197,0.59457442730197,0.0,0,False
2023-09-14,0.59457442730197,0.5951397668162474,0.09508305240149006,2,True
2023-09-15,0.5951397668162474,0.6020400860922517,1.1594451691437468,0,True
2023-09-16,0.6020400860922517,0.5996247022638878,-0.4011998343900647,2,True
2023-09-17,0.5996247022638878,0.5997026405726088,0.012997848225193565,1,True
2023-09-18,0.5997026405726088,0.5997026405726088,0.0,0,False
2023-09-19,0.5997026405726088,0.5997026405726088,0.0,0,False
2023-09-20,0.5997026405726088,0.6007400847088193,0.1729930912460098,1,True
2023-09-21,0.6007400847088193,0.5967053254708571,-0.6716314327381623,0,True
2023-09-22,0.5967053254708571,0.6020994078793708,0.9039775879756462,1,True
2023-09-23,0.6020994078793708,0.6020994078793708,0.0,0,False
2023-09-24,0.6020994078793708,0.5990938576743405,-0.4991784023864021,1,True
2023-09-25,0.5990938576743405,0.59888273207959,-0.03524082112444926,1,True
2023-09-26,0.59888273207959,0.5989741417264637,0.015263363255813012,0,True
2023-09-27,0.5989741417264637,0.5989741417264637,0.0,0,False
2023-09-28,0.5989741417264637,0.5989741417264637,0.0,0,False
2023-09-29,0.5989741417264637,0.5959876759084874,-0.4985967857257023,1,True
2023-09-30,0.5959876759084874,0.5959876759084874,0.0,0,False
2023-10-01,0.5959876759084874,0.5956087267795799,-0.06358338338623426,1,True
2023-10-02,0.5956087267795799,0.5971682286277998,0.26183327713347193,0,True
2023-10-03,0.5971682286277998,0.6009497354655102,0.6332397901341213,3,True
2023-10-04,0.6009497354655102,0.595058553351711,-0.9803119572447727,3,True
2023-10-05,0.595058553351711,0.5906109079446148,-0.747429875941541,0,True
2023-10-06,0.5906109079446148,0.5906109079446148,0.0,0,False
2023-10-07,0.5906109079446148,0.589038939111815,-0.26615980362949543,1,True
2023-10-08,0.589038939111815,0.5875440962052314,-0.2537765854389251,1,True
2023-10-09,0.5875440962052314,0.586446206254496,-0.18686085994674695,1,True
2023-10-10,0.586446206254496,0.5845478402830538,-0.3237067528437998,1,True
2023-10-11,0.5845478402830538,0.58445656382402,-0.01561488260560795,0,True
2023-10-12,0.58445656382402,0.58445656382402,0.0,0,False
2023-10-13,0.58445656382402,0.58445656382402,0.0,0,False
2023-10-14,0.58445656382402,0.58445656382402,0.0,0,False
2023-10-15,0.58445656382402,0.58445656382402,0.0,0,False
2023-10-16,0.58445656382402,0.58445656382402,0.0,0,False
2023-10-17,0.58445656382402,0.58445656382402,0.0,0,False
2023-10-18,0.58445656382402,0.5818376596331166,-0.4480921856310882,3,True
2023-10-19,0.5818376596331166,0.5752167604389894,-1.137928953980416,3,True
2023-10-20,0.5752167604389894,0.5744120950971645,-0.13988906394361011,0,True
2023-10-21,0.5744120950971645,0.5746163463634992,0.03555831572457091,2,True
2023-10-22,0.5746163463634992,0.574283736251804,-0.05788385829957887,0,True
2023-10-23,0.574283736251804,0.574283736251804,0.0,0,False
2023-10-24,0.574283736251804,0.5731819383732303,-0.19185601280733433,1,True
2023-10-25,0.5731819383732303,0.5779355429118893,0.8293360659881177,3,True
2023-10-26,0.5779355429118893,0.5750308749415716,-0.5025937591037866,1,True
2023-10-27,0.5750308749415716,0.5708948113960642,-0.719276777256106,5,True
2023-10-28,0.5708948113960642,0.5711531836750446,0.045257422877709175,1,True
2023-10-29,0.5711531836750446,0.5719566709508577,0.14067807004822797,0,True
2023-10-30,0.5719566709508577,0.5719566709508577,0.0,0,False
2023-10-31,0.5719566709508577,0.5706238884371996,-0.2330215873594721,1,True
2023-11-01,0.5706238884371996,0.5692924266783094,-0.23333438817936258,1,True
2023-11-02,0.5692924266783094,0.5687185061991864,-0.10081294818405917,2,True
2023-11-03,0.5687185061991864,0.5672776013980096,-0.25335992858865897,0,True
2023-11-04,0.5672776013980096,0.5669622894422112,-0.05558336077811088,1,True
2023-11-05,0.5669622894422112,0.5715503865546261,0.8092420250610965,1,True
2023-11-06,0.5715503865546261,0.5658544533639288,-0.9965758618471154,2,True
2023-11-07,0.5658544533639288,0.5613578265211036,-0.7946613861733232,2,True
2023-11-08,0.5613578265211036,0.5621009153534655,0.13237346969350305,0,True
2023-11-09,0.5621009153534655,0.5621009153534655,0.0,0,False
2023-11-10,0.5621009153534655,0.5669623065899079,0.8648609357601478,5,True
2023-11-11,0.5669623065899079,0.5669057860915577,-0.0099690045869405,0,True
2023-11-12,0.5669057860915577,0.5675365429132105,0.11126307706286198,1,True
2023-11-13,0.5675365429132105,0.5683008483892292,0.13467070721040475,1,True
2023-11-14,0.5683008483892292,0.5674433238902923,-0.150892700823424,2,True
2023-11-15,0.5674433238902923,0.5644353009867842,-0.5301010298060516,1,True
2023-11-16,0.5644353009867842,0.5638011571810813,-0.11235013199817345,0,True
2023-11-17,0.5638011571810813,0.5638098765229576,0.0015465278432325036,2,True
2023-11-18,0.5638098765229576,0.562374958057373,-0.2545039605254429,3,True
2023-11-19,0.562374958057373,0.560077417784471,-0.40854242173914423,2,True
2023-11-20,0.560077417784471,0.5610804600184532,0.17908992616593178,0,True
2023-11-21,0.5610804600184532,0.5633709162119918,0.4082224131389589,2,True
2023-11-22,0.5633709162119918,0.5631952884210307,-0.031174451131044112,4,True
2023-11-23,0.5631952884210307,0.5634473579901412,0.04475704507707068,2,True
2023-11-24,0.5634473579901412,0.5684677963395461,0.8910217215878369,1,True
2023-11-25,0.5684677963395461,0.5671574584550484,-0.23050345031595532,2,True
2023-11-26,0.5671574584550484,0.5660473822548099,-0.19572628089250532,0,True
2023-11-27,0.5660473822548099,0.5660473822548099,0.0,0,False
2023-11-28,0.5660473822548099,0.5660736820616031,0.004646220019344227,1,True
2023-11-29,0.5660736820616031,0.5675471331155653,0.2602931562894595,1,True
2023-11-30,0.5675471331155653,0.5675420916980922,-0.000888281726552087,0,True
2023-12-01,0.5675420916980922,0.5675420916980922,0.0,0,False
2023-12-02,0.5675420916980922,0.5675420916980922,0.0,0,False
2023-12-03,0.5675420916980922,0.5682296028740047,0.1211383588934245,2,True
2023-12-04,0.5682296028740047,0.5765958758376889,1.4723402162381216,4,True
2023-12-05,0.5765958758376889,0.5758493829068176,-0.12946553420742912,0,True
2023-12-06,0.5758493829068176,0.5733216821333754,-0.4389517204451465,1,True
2023-12-07,0.5733216821333754,0.5729113644549847,-0.07156849133350685,2,True
2023-12-08,0.5729113644549847,0.5735888685089254,0.11825634748670044,0,True
2023-12-09,0.5735888685089254,0.5735888685089254,0.0,0,False
2023-12-10,0.5735888685089254,0.5721214536782486,-0.2558304233642894,1,True
2023-12-11,0.5721214536782486,0.5760661179645864,0.6894802250426046,5,True
2023-12-12,0.5760661179645864,0.5760926146832324,0.0045995967858036835,0,True
2023-12-13,0.5760926146832324,0.5769343438158316,0.14611003702280634,3,True
2023-12-14,0.5769343438158316,0.5809625334967062,0.6982059092256909,0,True
2023-12-15,0.5809625334967062,0.5809625334967062,0.0,0,False
2023-12-16,0.5809625334967062,0.5881081325837857,1.2299586763489634,3,True
2023-12-17,0.5881081325837857,0.5818060112981365,-1.0715922695987201,2,True
2023-12-18,0.5818060112981365,0.5815316589937778,-0.04715528870981034,2,True
2023-12-19,0.5815316589937778,0.5904722242218156,1.5374167665278327,1,True
2023-12-20,0.5904722242218156,0.59202227611501,0.26251055165842363,0,True
2023-12-21,0.59202227611501,0.5912421593433775,-0.13177152332033426,1,True
2023-12-22,0.5912421593433775,0.5898853412040925,-0.22948602663785955,0,True
2023-12-23,0.5898853412040925,0.5896721561868463,-0.036140077122626124,1,True
2023-12-24,0.5896721561868463,0.5893892571088646,-0.047975654779275345,1,True
2023-12-25,0.5893892571088646,0.5899522690377039,0.0955246336862503,1,True
2023-12-26,0.5899522690377039,0.5894520360842408,-0.08479210602564402,0,True
2023-12-27,0.5894520360842408,0.5858108059975758,-0.6177313612917179,7,True
2023-12-28,0.5858108059975758,0.5877763559535405,0.3355264081579268,1,True
2023-12-29,0.5877763559535405,0.5921155761802838,0.7382434122760628,0,True
2023-12-30,0.5921155761802838,0.5915434488254311,-0.09662427030605603,1,True
2023-12-31,0.5915434488254311,0.5919276475000638,0.06494851314735595,0,True
