day,start_equity,end_equity,return_pct,entries,active
2024-01-02,1.0093726014227875,1.0167482384705857,0.7307150042909605,0,True
2024-01-03,1.0167482384705857,1.035691772625015,1.8631489524805644,4,True
2024-01-04,1.035691772625015,1.0329009512645297,-0.2694644714046346,2,True
2024-01-05,1.0329009512645297,1.0329009512645297,0.0,0,False
2024-01-06,1.0329009512645297,1.0416812822081238,0.8500651425332517,3,True
2024-01-07,1.0416812822081238,1.0498125811210062,0.7805937431885068,2,True
2024-01-08,1.0498125811210062,1.0380347785972481,-1.1218957303008814,5,True
2024-01-09,1.0380347785972481,1.0408839567670105,0.27447810309522147,1,True
2024-01-10,1.0408839567670105,1.0269740290122438,-1.3363572052710881,4,True
2024-01-11,1.0269740290122438,1.0269740290122438,0.0,0,False
2024-01-12,1.0269740290122438,1.040710710559303,1.3375880167360465,1,True
2024-01-13,1.040710710559303,1.040710710559303,0.0,0,False
2024-01-14,1.040710710559303,1.0381134334470588,-0.24956763545254113,1,True
2024-01-15,1.0381134334470588,1.041736867285129,0.34904026104725094,1,True
2024-01-16,1.041736867285129,1.041736867285129,0.0,0,False
2024-01-17,1.041736867285129,1.041736867285129,0.0,0,False
2024-01-18,1.041736867285129,1.0402996546971977,-0.13796311074953937,1,True
2024-01-19,1.0402996546971977,1.0402996546971977,0.0,0,False
2024-01-20,1.0402996546971977,1.0402996546971977,0.0,0,False
2024-01-21,1.0402996546971977,1.0402996546971977,0.0,0,False
2024-01-22,1.0402996546971977,1.0402996546971977,0.0,0,False
2024-01-23,1.0402996546971977,1.0320363730789435,-0.7943174431466526,3,True
2024-01-24,1.0320363730789435,1.0320363730789435,0.0,0,False
2024-01-25,1.0320363730789435,1.0283313654453292,-0.3589997145702184,1,True
2024-01-26,1.0283313654453292,1.0283313654453292,0.0,0,False
2024-01-27,1.0283313654453292,1.0283313654453292,0.0,0,False
2024-01-28,1.0283313654453292,1.0249521818026501,-0.3286084385081156,2,True
2024-01-29,1.0249521818026501,1.0249521818026501,0.0,0,False
2024-01-30,1.0249521818026501,1.0249521818026501,0.0,0,False
2024-01-31,1.0249521818026501,1.0249521818026501,0.0,0,False
2024-02-01,1.0249521818026501,1.0249521818026501,0.0,0,False
2024-02-02,1.0249521818026501,1.0249622877193452,0.0009859890904628799,1,True
2024-02-03,1.0249622877193452,1.0249622877193452,0.0,0,False
2024-02-04,1.0249622877193452,1.0249622877193452,0.0,0,False
2024-02-05,1.0249622877193452,1.0249622877193452,0.0,0,False
2024-02-06,1.0249622877193452,1.01584832583331,-0.8891997291251341,2,True
2024-02-07,1.01584832583331,1.0136059740877998,-0.2207368647943242,1,True
2024-02-08,1.0136059740877998,1.0136059740877998,0.0,0,False
2024-02-09,1.0136059740877998,1.0136059740877998,0.0,0,False
2024-02-10,1.0136059740877998,1.0136059740877998,0.0,0,False
2024-02-11,1.0136059740877998,1.0136059740877998,0.0,0,False
2024-02-12,1.0136059740877998,1.0136059740877998,0.0,0,False
2024-02-13,1.0136059740877998,1.0136059740877998,0.0,0,False
2024-02-14,1.0136059740877998,1.0136059740877998,0.0,0,False
2024-02-15,1.0136059740877998,1.0393319374408418,2.5380635089679915,2,True
2024-02-16,1.0393319374408418,1.0284632927780788,-1.0457337325287086,1,True
2024-02-17,1.0284632927780788,1.0284632927780788,0.0,0,False
2024-02-18,1.0284632927780788,1.0284632927780788,0.0,0,False
2024-02-19,1.0284632927780788,1.0284632927780788,0.0,0,False
2024-02-20,1.0284632927780788,1.0233273952656006,-0.49937586966328773,1,True
2024-02-21,1.0233273952656006,1.0452670499284333,2.1439526357191374,5,True
2024-02-22,1.0452670499284333,1.0613701853404123,1.540576201371846,1,True
2024-02-23,1.0613701853404123,1.0538031199085438,-0.712952515190679,2,True
2024-02-24,1.0538031199085438,1.0538031199085438,0.0,0,False
2024-02-25,1.0538031199085438,1.0538031199085438,0.0,0,False
2024-02-26,1.0538031199085438,1.0559264248621254,0.20148971980324948,2,True
2024-02-27,1.0559264248621254,1.0519642577477202,-0.3752313628217596,2,True
2024-02-28,1.0519642577477202,1.0435851234136249,-0.7965227214121517,1,True
2024-02-29,1.0435851234136249,1.0613965026697874,1.706749057317003,6,True
2024-03-01,1.0613965026697874,1.056172127688112,-0.4922170902706191,2,True
2024-03-02,1.056172127688112,1.0472554501435714,-0.844244731591115,2,True
2024-03-03,1.0472554501435714,1.0675678112107903,1.9395803635525732,4,True
2024-03-04,1.0675678112107903,1.0663439678314557,-0.11463846759734997,0,True
2024-03-05,1.0663439678314557,1.0665853501969744,0.022636444974666325,2,True
2024-03-06,1.0665853501969744,1.0830685295047986,1.5454158736363688,9,True
2024-03-07,1.0830685295047986,1.0806865422747647,-0.21992950262555988,5,True
2024-03-08,1.0806865422747647,1.0860951139668074,0.5004755292555174,1,True
2024-03-09,1.0860951139668074,1.0840531205582475,-0.1880123924967947,2,True
2024-03-10,1.0840531205582475,1.0859081217232003,0.17111718326103809,1,True
2024-03-11,1.0859081217232003,1.0858576612057798,-0.004646849619327487,1,True
2024-03-12,1.0858576612057798,1.0945276904683554,0.7984498864195722,2,True
2024-03-13,1.0945276904683554,1.0945276904683554,0.0,0,False
2024-03-14,1.0945276904683554,1.0945276904683554,0.0,0,False
2024-03-15,1.0945276904683554,1.092057896082979,-0.22564932864508336,1,True
2024-03-16,1.092057896082979,1.0866066843145372,-0.49916875176621023,1,True
2024-03-17,1.0866066843145372,1.0811820780466608,-0.49922445224956924,1,True
2024-03-18,1.0811820780466608,1.078908750145663,-0.21026318759417295,1,True
2024-03-19,1.078908750145663,1.0650697898436245,-1.2826812554972755,2,True
2024-03-20,1.0650697898436245,1.064355146203181,-0.06709829226763109,1,True
2024-03-21,1.064355146203181,1.0455358653576445,-1.7681392261473583,3,True
2024-03-22,1.0455358653576445,1.0498234324809366,0.41008321812330273,2,True
2024-03-23,1.0498234324809366,1.045302262198216,-0.43066006557276326,1,True
2024-03-24,1.045302262198216,1.044024488310726,-0.12223965581046325,2,True
2024-03-25,1.044024488310726,1.044024488310726,0.0,0,False
2024-03-26,1.044024488310726,1.048356810410744,0.4149636477423835,1,True
2024-03-27,1.048356810410744,1.0425356192773019,-0.5552681182241059,3,True
2024-03-28,1.0425356192773019,1.0425356192773019,0.0,0,False
2024-03-29,1.0425356192773019,1.0321580070092966,-0.9954204034965386,2,True
2024-03-30,1.0321580070092966,1.0321580070092966,0.0,0,False
2024-03-31,1.0321580070092966,1.0321580070092966,0.0,0,False
2024-04-01,1.0321580070092966,1.0274417263420828,-0.45693398057138346,2,True
2024-04-02,1.0274417263420828,1.0263339466090644,-0.10781922756458728,2,True
2024-04-03,1.0263339466090644,1.0260978285548412,-0.023005967502420788,1,True
2024-04-04,1.0260978285548412,1.0260978285548412,0.0,0,False
2024-04-05,1.0260978285548412,1.024582130453099,-0.14771477529358368,2,True
2024-04-06,1.024582130453099,1.0175574210457397,-0.6856170138603623,0,True
2024-04-07,1.0175574210457397,1.0202577603083578,0.2653746321109818,2,True
2024-04-08,1.0202577603083578,1.019542426299872,-0.07011306713997634,0,True
2024-04-09,1.019542426299872,1.0144885035804982,-0.4957049936328284,1,True
2024-04-10,1.0144885035804982,1.0094293071605198,-0.4986943077346595,1,True
2024-04-11,1.0094293071605198,1.0094293071605198,0.0,0,False
2024-04-12,1.0094293071605198,1.0043935557652817,-0.4988711304017457,1,True
2024-04-13,1.0043935557652817,0.9946635954209877,-0.9687398219993981,9,True
2024-04-14,0.9946635954209877,0.9983622717656125,0.3718519871092063,8,True
2024-04-15,0.9983622717656125,1.002070613948752,0.3714425402495669,2,True
2024-04-16,1.002070613948752,1.0006468515590348,-0.1420820419138824,0,True
2024-04-17,1.0006468515590348,0.9981492332643985,-0.24960037507186783,1,True
2024-04-18,0.9981492332643985,0.9981492332643985,0.0,0,False
2024-04-19,0.9981492332643985,0.9981492332643985,0.0,0,False
2024-04-20,0.9981492332643985,0.9981492332643985,0.0,0,False
2024-04-21,0.9981492332643985,0.9981492332643985,0.0,0,False
2024-04-22,0.9981492332643985,0.9981492332643985,0.0,0,False
2024-04-23,0.9981492332643985,0.9956566770747124,-0.24971778834457226,1,True
2024-04-24,0.9956566770747124,0.9956566770747124,0.0,0,False
2024-04-25,0.9956566770747124,0.9981763403409522,0.2530654716887515,2,True
2024-04-26,0.9981763403409522,0.9971298431082424,-0.10484091742269941,0,True
2024-04-27,0.9971298431082424,0.9946412366004926,-0.24957697585223926,1,True
2024-04-28,0.9946412366004926,0.9946412366004926,0.0,0,False
2024-04-29,0.9946412366004926,0.9974768687130959,0.28509094618829334,1,True
2024-04-30,0.9974768687130959,0.9974768687130959,0.0,0,False
2024-05-01,0.9974768687130959,0.9974768687130959,0.0,0,False
2024-05-02,0.9974768687130959,0.9974768687130959,0.0,0,False
2024-05-03,0.9974768687130959,0.9974768687130959,0.0,0,False
2024-05-04,0.9974768687130959,0.9974768687130959,0.0,0,False
2024-05-05,0.9974768687130959,0.9974768687130959,0.0,0,False
2024-05-06,0.9974768687130959,0.9974768687130959,0.0,0,False
2024-05-07,0.9974768687130959,0.9949867907525408,-0.24963766465759818,1,True
2024-05-08,0.9949867907525408,0.9949867907525408,0.0,0,False
2024-05-09,0.9949867907525408,0.9861212010196307,-0.8910258724344255,5,True
2024-05-10,0.9861212010196307,0.9851153735163246,-0.10199836513666849,1,True
2024-05-11,0.9851153735163246,0.9852483117433408,0.01349468606317572,1,True
2024-05-12,0.9852483117433408,0.984665047983206,-0.05919967110654678,0,True
2024-05-13,0.984665047983206,0.988210797866561,0.3600970594637598,1,True
2024-05-14,0.988210797866561,0.988210797866561,0.0,0,False
2024-05-15,0.988210797866561,0.988210797866561,0.0,0,False
2024-05-16,0.988210797866561,0.988210797866561,0.0,0,False
2024-05-17,0.988210797866561,0.988210797866561,0.0,0,False
2024-05-18,0.988210797866561,0.988210797866561,0.0,0,False
2024-05-19,0.988210797866561,0.988210797866561,0.0,0,False
2024-05-20,0.988210797866561,0.988210797866561,0.0,0,False
2024-05-21,0.988210797866561,0.9885964184972535,0.039022102523578184,2,True
2024-05-22,0.9885964184972535,0.9885964184972535,0.0,0,False
2024-05-23,0.9885964184972535,0.9882715056236959,-0.032866078359006234,1,True
2024-05-24,0.9882715056236959,0.98738412229829,-0.0897914510694986,2,True
2024-05-25,0.98738412229829,0.98738412229829,0.0,0,False
2024-05-26,0.98738412229829,0.98738412229829,0.0,0,False
2024-05-27,0.98738412229829,0.98738412229829,0.0,0,False
2024-05-28,0.98738412229829,0.98738412229829,0.0,0,False
2024-05-29,0.98738412229829,0.98738412229829,0.0,0,False
2024-05-30,0.98738412229829,0.98738412229829,0.0,0,False
2024-05-31,0.98738412229829,0.982452737138877,-0.4994393821053489,2,True
2024-06-01,0.982452737138877,0.982452737138877,0.0,0,False
2024-06-02,0.982452737138877,0.9799995348300469,-0.24970181425464366,1,True
2024-06-03,0.9799995348300469,0.9760517567557405,-0.4028346885890044,3,True
2024-06-04,0.9760517567557405,0.9747312827381605,-0.13528729480177804,2,True
2024-06-05,0.9747312827381605,0.9747312827381605,0.0,0,False
2024-06-06,0.9747312827381605,0.969872136166597,-0.49851140079484324,2,True
2024-06-07,0.969872136166597,0.969872136166597,0.0,0,False
2024-06-08,0.969872136166597,0.9905975541970137,2.1369227197652663,5,True
2024-06-09,0.9905975541970137,0.9881245919930438,-0.24964347968479128,1,True
2024-06-10,0.9881245919930438,0.9881245919930438,0.0,0,False
2024-06-11,0.9881245919930438,0.9856571172618754,-0.2497129158774869,1,True
2024-06-12,0.9856571172618754,0.9831969967248849,-0.24959192135949326,1,True
2024-06-13,0.9831969967248849,0.9792496696020381,-0.4014787612244275,2,True
2024-06-14,0.9792496696020381,0.9768069709153304,-0.2494459546461103,1,True
2024-06-15,0.9768069709153304,0.9834077863394988,0.6757543322999604,1,True
2024-06-16,0.9834077863394988,0.9834077863394988,0.0,0,False
2024-06-17,0.9834077863394988,0.9834077863394988,0.0,0,False
2024-06-18,0.9834077863394988,0.9920430906372975,0.8781000534825445,5,True
2024-06-19,0.9920430906372975,0.9900121483137518,-0.20472319627173885,1,True
2024-06-20,0.9900121483137518,0.9900121483137518,0.0,0,False
2024-06-21,0.9900121483137518,0.9900121483137518,0.0,0,False
2024-06-22,0.9900121483137518,0.9875406832049384,-0.24963987694727185,1,True
2024-06-23,0.9875406832049384,0.9910456996185284,0.3549237487831869,1,True
2024-06-24,0.9910456996185284,0.9912482727996063,0.02044034711576881,1,True
2024-06-25,0.9912482727996063,1.0002462374112409,0.9077407606695287,1,True
2024-06-26,1.0002462374112409,1.001219496610645,0.0973019605575276,0,True
2024-06-27,1.001219496610645,1.00139681548062,0.017710289359662568,1,True
2024-06-28,1.00139681548062,1.0008484198003627,-0.05476307411604875,0,True
2024-06-29,1.0008484198003627,0.995862943869585,-0.4981249739867799,2,True
2024-06-30,0.995862943869585,0.995862943869585,0.0,0,False
2024-07-01,0.995862943869585,0.995862943869585,0.0,0,False
2024-07-02,0.995862943869585,0.995862943869585,0.0,0,False
2024-07-03,0.995862943869585,0.995862943869585,0.0,0,False
2024-07-04,0.995862943869585,0.995862943869585,0.0,0,False
2024-07-05,0.995862943869585,0.9909800172910452,-0.4903211439484134,6,True
2024-07-06,0.9909800172910452,0.9909862579683408,0.0006297480460437654,2,True
2024-07-07,0.9909862579683408,0.9911278828065946,0.014291301934310496,2,True
2024-07-08,0.9911278828065946,0.9911278828065946,0.0,0,False
2024-07-09,0.9911278828065946,0.9911278828065946,0.0,0,False
2024-07-10,0.9911278828065946,0.9911278828065946,0.0,0,False
2024-07-11,0.9911278828065946,0.9911278828065946,0.0,0,False
2024-07-12,0.9911278828065946,0.9911278828065946,0.0,0,False
2024-07-13,0.9911278828065946,0.9911278828065946,0.0,0,False
2024-07-14,0.9911278828065946,0.9886538347755198,-0.2496194561764309,1,True
2024-07-15,0.9886538347755198,0.9886538347755198,0.0,0,False
2024-07-16,0.9886538347755198,0.9888335742742851,0.018180225721375898,1,True
2024-07-17,0.9888335742742851,0.9863666904119391,-0.2494741204713269,1,True
2024-07-18,0.9863666904119391,0.9863666904119391,0.0,0,False
2024-07-19,0.9863666904119391,0.9863666904119391,0.0,0,False
2024-07-20,0.9863666904119391,0.9860500751048242,-0.03209914833830485,2,True
2024-07-21,0.9860500751048242,0.9860500751048242,0.0,0,False
2024-07-22,0.9860500751048242,0.9860500751048242,0.0,0,False
2024-07-23,0.9860500751048242,0.9842680094644362,-0.18072770190689091,1,True
2024-07-24,0.9842680094644362,0.9842680094644362,0.0,0,False
2024-07-25,0.9842680094644362,0.9842680094644362,0.0,0,False
2024-07-26,0.9842680094644362,0.9842680094644362,0.0,0,False
2024-07-27,0.9842680094644362,0.9842680094644362,0.0,0,False
2024-07-28,0.9842680094644362,0.9818099913925968,-0.24973056608603716,1,True
2024-07-29,0.9818099913925968,0.9818099913925968,0.0,0,False
2024-07-30,0.9818099913925968,0.9818099913925968,0.0,0,False
2024-07-31,0.9818099913925968,0.9793606440234426,-0.24947264650262424,1,True
2024-08-01,0.9793606440234426,0.9793606440234426,0.0,0,False
2024-08-02,0.9793606440234426,0.9793606440234426,0.0,0,False
2024-08-03,0.9793606440234426,0.9769181026184834,-0.24940162950847222,1,True
2024-08-04,0.9769181026184834,0.9769181026184834,0.0,0,False
2024-08-05,0.9769181026184834,0.9752446053416022,-0.1713037431076092,8,True
2024-08-06,0.9752446053416022,0.9752446053416022,0.0,0,False
2024-08-07,0.9752446053416022,0.9752446053416022,0.0,0,False
2024-08-08,0.9752446053416022,0.9752446053416022,0.0,0,False
2024-08-09,0.9752446053416022,0.9752446053416022,0.0,0,False
2024-08-10,0.9752446053416022,0.9752446053416022,0.0,0,False
2024-08-11,0.9752446053416022,0.9752446053416022,0.0,0,False
2024-08-12,0.9752446053416022,0.9800624423060863,0.49401318788084847,2,True
2024-08-13,0.9800624423060863,0.9782741973109103,-0.182462353211732,0,True
2024-08-14,0.9782741973109103,0.9782741973109103,0.0,0,False
2024-08-15,0.9782741973109103,0.9782741973109103,0.0,0,False
2024-08-16,0.9782741973109103,0.9782741973109103,0.0,0,False
2024-08-17,0.9782741973109103,0.9782741973109103,0.0,0,False
2024-08-18,0.9782741973109103,0.9773207259040473,-0.09746463818466333,1,True
2024-08-19,0.9773207259040473,0.9724345787593082,-0.49995329222342066,2,True
2024-08-20,0.9724345787593082,0.9720847873696532,-0.03597068607960052,1,True
2024-08-21,0.9720847873696532,0.9720847873696532,0.0,0,False
2024-08-22,0.9720847873696532,0.9720847873696532,0.0,0,False
2024-08-23,0.9720847873696532,0.9720847873696532,0.0,0,False
2024-08-24,0.9720847873696532,0.9720847873696532,0.0,0,False
2024-08-25,0.9720847873696532,0.9720847873696532,0.0,0,False
2024-08-26,0.9720847873696532,0.9720847873696532,0.0,0,False
2024-08-27,0.9720847873696532,0.9720847873696532,0.0,0,False
2024-08-28,0.9720847873696532,0.9720847873696532,0.0,0,False
2024-08-29,0.9720847873696532,0.9696612392100853,-0.24931448275471446,1,True
2024-08-30,0.9696612392100853,0.9696612392100853,0.0,0,False
2024-08-31,0.9696612392100853,0.9696612392100853,0.0,0,False
2024-09-01,0.9696612392100853,0.9672480966523985,-0.2488644961876174,1,True
2024-09-02,0.9672480966523985,0.9672480966523985,0.0,0,False
2024-09-03,0.9672480966523985,0.9672480966523985,0.0,0,False
2024-09-04,0.9672480966523985,0.9672480966523985,0.0,0,False
2024-09-05,0.9672480966523985,0.9636289282079852,-0.3741716791109906,2,True
2024-09-06,0.9636289282079852,0.9636289282079852,0.0,0,False
2024-09-07,0.9636289282079852,0.9636289282079852,0.0,0,False
2024-09-08,0.9636289282079852,0.9636289282079852,0.0,0,False
2024-09-09,0.9636289282079852,0.9636289282079852,0.0,0,False
2024-09-10,0.9636289282079852,0.9636289282079852,0.0,0,False
2024-09-11,0.9636289282079852,0.9636289282079852,0.0,0,False
2024-09-12,0.9636289282079852,0.9636289282079852,0.0,0,False
2024-09-13,0.9636289282079852,0.9679483067750199,0.44824085709704864,1,True
2024-09-14,0.9679483067750199,0.9679483067750199,0.0,0,False
2024-09-15,0.9679483067750199,0.9679483067750199,0.0,0,False
2024-09-16,0.9679483067750199,0.9679483067750199,0.0,0,False
2024-09-17,0.9679483067750199,0.9679483067750199,0.0,0,False
2024-09-18,0.9679483067750199,0.9662104066757463,-0.17954472228624008,2,True
2024-09-19,0.9662104066757463,0.9657812172813625,-0.04441986873857662,1,True
2024-09-20,0.9657812172813625,0.9669693756278034,0.12302562166051079,1,True
2024-09-21,0.9669693756278034,0.961203642109559,-0.5962684717394473,4,True
2024-09-22,0.961203642109559,0.9686155377589716,0.7711056559404739,1,True
2024-09-23,0.9686155377589716,0.9725430548157068,0.40547739568808083,1,True
2024-09-24,0.9725430548157068,0.9725430548157068,0.0,0,False
2024-09-25,0.9725430548157068,0.9725430548157068,0.0,0,False
2024-09-26,0.9725430548157068,0.9725430548157068,0.0,0,False
2024-09-27,0.9725430548157068,0.9725430548157068,0.0,0,False
2024-09-28,0.9725430548157068,0.9725430548157068,0.0,0,False
2024-09-29,0.9725430548157068,0.9725430548157068,0.0,0,False
2024-09-30,0.9725430548157068,0.9725430548157068,0.0,0,False
2024-10-01,0.9725430548157068,0.9725430548157068,0.0,0,False
2024-10-02,0.9725430548157068,0.9725430548157068,0.0,0,False
2024-10-03,0.9725430548157068,0.9764387663076025,0.40056956580023506,1,True
2024-10-04,0.9764387663076025,0.9764387663076025,0.0,0,False
2024-10-05,0.9764387663076025,0.9764387663076025,0.0,0,False
2024-10-06,0.9764387663076025,0.9764387663076025,0.0,0,False
2024-10-07,0.9764387663076025,0.9764387663076025,0.0,0,False
2024-10-08,0.9764387663076025,0.9764387663076025,0.0,0,False
2024-10-09,0.9764387663076025,0.9764387663076025,0.0,0,False
2024-10-10,0.9764387663076025,0.9764387663076025,0.0,0,False
2024-10-11,0.9764387663076025,0.9752515353228812,-0.12158785841848152,1,True
2024-10-12,0.9752515353228812,0.9752515353228812,0.0,0,False
2024-10-13,0.9752515353228812,0.9752515353228812,0.0,0,False
2024-10-14,0.9752515353228812,0.9752515353228812,0.0,0,False
2024-10-15,0.9752515353228812,0.9703873155403951,-0.4987656626324277,2,True
2024-10-16,0.9703873155403951,0.9703873155403951,0.0,0,False
2024-10-17,0.9703873155403951,0.9703873155403951,0.0,0,False
2024-10-18,0.9703873155403951,0.978927323505166,0.8800617885256434,3,True
2024-10-19,0.978927323505166,0.9772624830424627,-0.17006783064774655,1,True
2024-10-20,0.9772624830424627,0.9772624830424627,0.0,0,False
2024-10-21,0.9772624830424627,0.9807718697966322,0.35910380425574484,1,True
2024-10-22,0.9807718697966322,0.9928594236436561,1.232453154425217,2,True
2024-10-23,0.9928594236436561,0.9879084881548776,-0.49865422746446786,2,True
2024-10-24,0.9879084881548776,0.9854436399857064,-0.24950166930692852,1,True
2024-10-25,0.9854436399857064,0.9848630729588139,-0.05891428016125966,1,True
2024-10-26,0.9848630729588139,0.9921845731315493,0.7434028520065583,2,True
2024-10-27,0.9921845731315493,0.9921845731315493,0.0,0,False
2024-10-28,0.9921845731315493,0.9921845731315493,0.0,0,False
2024-10-29,0.9921845731315493,0.9921845731315493,0.0,0,False
2024-10-30,0.9921845731315493,0.9921845731315493,0.0,0,False
2024-10-31,0.9921845731315493,0.9921845731315493,0.0,0,False
2024-11-01,0.9921845731315493,0.9921845731315493,0.0,0,False
2024-11-02,0.9921845731315493,0.9921845731315493,0.0,0,False
2024-11-03,0.9921845731315493,0.9921845731315493,0.0,0,False
2024-11-04,0.9921845731315493,0.9921845731315493,0.0,0,False
2024-11-05,0.9921845731315493,0.9921845731315493,0.0,0,False
2024-11-06,0.9921845731315493,0.9921845731315493,0.0,0,False
2024-11-07,0.9921845731315493,0.9921845731315493,0.0,0,False
2024-11-08,0.9921845731315493,0.9921845731315493,0.0,0,False
2024-11-09,0.9921845731315493,0.990982995753908,-0.12110421893063439,1,True
2024-11-10,0.990982995753908,0.9861849587768129,-0.4841694557478182,3,True
2024-11-11,0.9861849587768129,0.9809678897901144,-0.5290152663826153,3,True
2024-11-12,0.9809678897901144,0.9809678897901144,0.0,0,False
2024-11-13,0.9809678897901144,0.9809678897901144,0.0,0,False
2024-11-14,0.9809678897901144,0.9819194562478722,0.09700281402293953,1,True
2024-11-15,0.9819194562478722,0.9819194562478722,0.0,0,False
2024-11-16,0.9819194562478722,0.9797270822251919,-0.2232743234417467,1,True
2024-11-17,0.9797270822251919,0.989089290458619,0.9555934916245512,2,True
2024-11-18,0.989089290458619,0.989089290458619,0.0,0,False
2024-11-19,0.989089290458619,0.9866198799485728,-0.2496650741108719,1,True
2024-11-20,0.9866198799485728,0.9866198799485728,0.0,0,False
2024-11-21,0.9866198799485728,0.9866198799485728,0.0,0,False
2024-11-22,0.9866198799485728,0.9866198799485728,0.0,0,False
2024-11-23,0.9866198799485728,0.9854085558586677,-0.12277515530786376,1,True
2024-11-24,0.9854085558586677,0.9861126046715247,0.07144740206193045,8,True
2024-11-25,0.9861126046715247,0.981880334557796,-0.4291873051494477,1,True
2024-11-26,0.981880334557796,0.9777493791239799,-0.4207188277863372,2,True
2024-11-27,0.9777493791239799,0.9780881576692575,0.03464881210981652,2,True
2024-11-28,0.9780881576692575,0.9780881576692575,0.0,0,False
2024-11-29,0.9780881576692575,0.9780881576692575,0.0,0,False
2024-11-30,0.9780881576692575,0.976112381398489,-0.20200390478877228,1,True
2024-12-01,0.976112381398489,0.976112381398489,0.0,0,False
2024-12-02,0.976112381398489,0.9782653525711865,0.22056591164358874,1,True
2024-12-03,0.9782653525711865,0.978009370321318,-0.02616695451758133,1,True
2024-12-04,0.978009370321318,0.97486384059345,-0.3216257250004184,4,True
2024-12-05,0.97486384059345,0.97761757327232,0.2824735685338142,1,True
2024-12-06,0.97761757327232,0.9781343308713305,0.052858869678540366,1,True
2024-12-07,0.9781343308713305,0.9793212949650298,0.12134980403375462,1,True
2024-12-08,0.9793212949650298,0.9793212949650298,0.0,0,False
2024-12-09,0.9793212949650298,0.978711618749594,-0.06225497378341549,1,True
2024-12-10,0.978711618749594,0.9737441784762363,-0.5075489222968632,5,True
2024-12-11,0.9737441784762363,0.9737441784762363,0.0,0,False
2024-12-12,0.9737441784762363,0.9737441784762363,0.0,0,False
2024-12-13,0.9737441784762363,0.9737441784762363,0.0,0,False
2024-12-14,0.9737441784762363,0.9737441784762363,0.0,0,False
2024-12-15,0.9737441784762363,0.9703795004484778,-0.3455402457988255,2,True
2024-12-16,0.9703795004484778,0.969118759980936,-0.12992241354635725,0,True
2024-12-17,0.969118759980936,0.969118759980936,0.0,0,False
2024-12-18,0.969118759980936,0.9666997712308062,-0.24960705024195118,1,True
2024-12-19,0.9666997712308062,0.9675207599287522,0.08492695688762097,1,True
2024-12-20,0.9675207599287522,0.969685199928071,0.22370992840279325,2,True
2024-12-21,0.969685199928071,0.969685199928071,0.0,0,False
2024-12-22,0.969685199928071,0.969685199928071,0.0,0,False
2024-12-23,0.969685199928071,0.969685199928071,0.0,0,False
2024-12-24,0.969685199928071,0.969685199928071,0.0,0,False
2024-12-25,0.969685199928071,0.974418482809165,0.48812572177496794,1,True
2024-12-26,0.974418482809165,0.9736286814369007,-0.08105361158455837,1,True
2024-12-27,0.9736286814369007,0.9745453877856343,0.09415358916713412,0,True
2024-12-28,0.9745453877856343,0.9745453877856343,0.0,0,False
2024-12-29,0.9745453877856343,0.9745453877856343,0.0,0,False
2024-12-30,0.9745453877856343,0.9740509915345084,-0.0507309620795926,1,True
2024-12-31,0.9740509915345084,0.9740509915345084,0.0,0,False
