day,start_equity,end_equity,return_pct,entries,active
2024-01-02,1.00371343555889,0.9922079032340996,-1.1462965341680231,1,True
2024-01-03,0.9922079032340996,0.9690243236517089,-2.3365646964536246,4,True
2024-01-04,0.9690243236517089,0.9844842573484182,1.5954123461472625,10,True
2024-01-05,0.9844842573484182,0.9759488102197621,-0.8669968122847593,7,True
2024-01-06,0.9759488102197621,0.970552050915706,-0.5529756527743457,7,True
2024-01-07,0.970552050915706,0.9758236966400291,0.5431595059069094,8,True
2024-01-08,0.9758236966400291,0.9527833383445967,-2.3611189577343983,3,True
2024-01-09,0.9527833383445967,0.9437816819387149,-0.9447747503143367,5,True
2024-01-10,0.9437816819387149,0.928399429451839,-1.629852833684775,7,True
2024-01-11,0.928399429451839,0.9491885495695678,2.2392430949686792,6,True
2024-01-12,0.9491885495695678,0.9291724604015276,-2.1087579677522394,1,True
2024-01-13,0.9291724604015276,0.9397794734441663,1.1415548237466266,8,True
2024-01-14,0.9397794734441663,0.9392426032876697,-0.05712724864367358,1,True
2024-01-15,0.9392426032876697,0.9505244293467322,1.2011620873640272,5,True
2024-01-16,0.9505244293467322,0.9482635173129594,-0.23785943464142978,1,True
2024-01-17,0.9482635173129594,0.9560470449944192,0.8208190591910025,0,True
2024-01-18,0.9560470449944192,0.9549381650286167,-0.11598592052641798,1,True
2024-01-19,0.9549381650286167,0.9465298206084675,-0.880511925072891,1,True
2024-01-20,0.9465298206084675,0.9862528898477956,4.196705520993782,11,True
2024-01-21,0.9862528898477956,0.9834308469221062,-0.2861378612664778,3,True
2024-01-22,0.9834308469221062,0.9635823500760905,-2.0182910580989644,3,True
2024-01-23,0.9635823500760905,0.943969730801509,-2.035385898572417,11,True
2024-01-24,0.943969730801509,0.9392622888427642,-0.49868568929088974,1,True
2024-01-25,0.9392622888427642,0.9297885011884164,-1.0086413312750175,3,True
2024-01-26,0.9297885011884164,0.9252851192170332,-0.4843447693348768,0,True
2024-01-27,0.9252851192170332,0.9252851192170332,0.0,0,False
2024-01-28,0.9252851192170332,0.9225989657384199,-0.29030548777075893,1,True
2024-01-29,0.9225989657384199,0.9206660460082182,-0.20950811804288927,0,True
2024-01-30,0.9206660460082182,0.9206660460082182,0.0,0,False
2024-01-31,0.9206660460082182,0.9160802683776922,-0.4980934889918909,1,True
2024-02-01,0.9160802683776922,0.9160802683776922,0.0,0,False
2024-02-02,0.9160802683776922,0.9156836353407269,-0.043296755825517064,3,True
2024-02-03,0.9156836353407269,0.917030653579822,0.14710519955878354,1,True
2024-02-04,0.917030653579822,0.9131472227418516,-0.42347884695137505,1,True
2024-02-05,0.9131472227418516,0.9131472227418516,0.0,0,False
2024-02-06,0.9131472227418516,0.9063050676030154,-0.7492937577241454,2,True
2024-02-07,0.9063050676030154,0.8973418900522427,-0.9889801868236736,5,True
2024-02-08,0.8973418900522427,0.909274885314583,1.3298159146059252,1,True
2024-02-09,0.909274885314583,0.909274885314583,0.0,0,False
2024-02-10,0.909274885314583,0.9063823310797159,-0.3181165873581082,2,True
2024-02-11,0.9063823310797159,0.9050770870757525,-0.1440058967619673,0,True
2024-02-12,0.9050770870757525,0.9085042124537985,0.37865563353491893,3,True
2024-02-13,0.9085042124537985,0.9085544011180753,0.005524318279293006,0,True
2024-02-14,0.9085544011180753,0.9097775032376378,0.13462068072724875,2,True
2024-02-15,0.9097775032376378,0.9179276031700484,0.8958344104362581,7,True
2024-02-16,0.9179276031700484,0.9214564761037087,0.38443913457590906,7,True
2024-02-17,0.9214564761037087,0.9153869204501393,-0.6586915183703579,6,True
2024-02-18,0.9153869204501393,0.9152141423486965,-0.0188748711154596,4,True
2024-02-19,0.9152141423486965,0.9107324274770086,-0.4896902991672114,6,True
2024-02-20,0.9107324274770086,0.9018055125453072,-0.9801907412511413,12,True
2024-02-21,0.9018055125453072,0.8959771266089518,-0.6463018749913174,9,True
2024-02-22,0.8959771266089518,0.9142946439606361,2.04441796645094,5,True
2024-02-23,0.9142946439606361,0.9071897178168422,-0.7770937072338113,7,True
2024-02-24,0.9071897178168422,0.9132121299542567,0.663853659178093,9,True
2024-02-25,0.9132121299542567,0.9114107755179502,-0.19725476449778956,7,True
2024-02-26,0.9114107755179502,0.9162905461387457,0.5354084845027529,7,True
2024-02-27,0.9162905461387457,0.9088845213464999,-0.8082616178301638,7,True
2024-02-28,0.9088845213464999,0.9070028170554216,-0.20703447433459976,7,True
2024-02-29,0.9070028170554216,0.9027723076802765,-0.4664273688674392,16,True
2024-03-01,0.9027723076802765,0.9125404606293641,1.082017344349806,9,True
2024-03-02,0.9125404606293641,0.9106445853138154,-0.2077579457946621,9,True
2024-03-03,0.9106445853138154,0.9246214606576056,1.5348331905991275,12,True
2024-03-04,0.9246214606576056,0.929535202831404,0.531432849320157,4,True
2024-03-05,0.929535202831404,0.9437717586756568,1.5315779112923922,16,True
2024-03-06,0.9437717586756568,0.919526296670992,-2.5689963470285626,9,True
2024-03-07,0.919526296670992,0.9183752275226036,-0.1251806666710542,7,True
2024-03-08,0.9183752275226036,0.9234303878656742,0.5504460694902846,6,True
2024-03-09,0.9234303878656742,0.9280101812079844,0.49595436781060265,7,True
2024-03-10,0.9280101812079844,0.9192194725348124,-0.9472642489470551,9,True
2024-03-11,0.9192194725348124,0.9230620779782905,0.41802916042257277,10,True
2024-03-12,0.9230620779782905,0.9321306983040024,0.9824496685612027,8,True
2024-03-13,0.9321306983040024,0.9370913927158566,0.5321887178354023,9,True
2024-03-14,0.9370913927158566,0.9399819670892795,0.3084623758036642,6,True
2024-03-15,0.9399819670892795,0.9210372013289102,-2.015439276886677,11,True
2024-03-16,0.9210372013289102,0.9189945920029813,-0.22177272785309787,4,True
2024-03-17,0.9189945920029813,0.9064330454237209,-1.3668792709521815,9,True
2024-03-18,0.9064330454237209,0.9224091911354806,1.762529046399841,5,True
2024-03-19,0.9224091911354806,0.9028244891373922,-2.1232119309196995,9,True
2024-03-20,0.9028244891373922,0.890387872963545,-1.377523131403957,7,True
2024-03-21,0.890387872963545,0.898947728894408,0.9613625916054414,5,True
2024-03-22,0.898947728894408,0.8996219246956176,0.07499833188731042,10,True
2024-03-23,0.8996219246956176,0.9088025713168794,1.0205005424215319,6,True
2024-03-24,0.9088025713168794,0.9058294586346792,-0.3271461564960165,6,True
2024-03-25,0.9058294586346792,0.9221213746528301,1.7985632795280315,4,True
2024-03-26,0.9221213746528301,0.9343132676652194,1.3221570768793267,9,True
2024-03-27,0.9343132676652194,0.9312488257660656,-0.327988695570125,10,True
2024-03-28,0.9312488257660656,0.9244768233820744,-0.7271958038089776,5,True
2024-03-29,0.9244768233820744,0.9131217917350102,-1.2282656914559875,7,True
2024-03-30,0.9131217917350102,0.9093911985405819,-0.408553736007089,3,True
2024-03-31,0.9093911985405819,0.9077623756957124,-0.17911134916233085,1,True
2024-04-01,0.9077623756957124,0.9045486570501778,-0.35402642052349,6,True
2024-04-02,0.9045486570501778,0.8922992725749979,-1.354198514331606,9,True
2024-04-03,0.8922992725749979,0.8853240189730507,-0.7817168315982115,5,True
2024-04-04,0.8853240189730507,0.8834948633550355,-0.2066086064328121,3,True
2024-04-05,0.8834948633550355,0.8700537394818005,-1.521358462933542,5,True
2024-04-06,0.8700537394818005,0.8634703304733721,-0.7566669401765314,3,True
2024-04-07,0.8634703304733721,0.8717634736580716,0.9604433287421665,4,True
2024-04-08,0.8717634736580716,0.8674248924375403,-0.4976787112134784,2,True
2024-04-09,0.8674248924375403,0.8628158667078684,-0.5313457994870485,3,True
2024-04-10,0.8628158667078684,0.8584889097748623,-0.5014925084208199,6,True
2024-04-11,0.8584889097748623,0.8605050230731609,0.234844419694058,1,True
2024-04-12,0.8605050230731609,0.8615744486020434,0.1242788246677673,9,True
2024-04-13,0.8615744486020434,0.8469376264254036,-1.6988458978082321,5,True
2024-04-14,0.8469376264254036,0.8469376264254036,0.0,0,False
2024-04-15,0.8469376264254036,0.8469376264254036,0.0,0,False
2024-04-16,0.8469376264254036,0.8469376264254036,0.0,0,False
2024-04-17,0.8469376264254036,0.8469376264254036,0.0,0,False
2024-04-18,0.8469376264254036,0.8469376264254036,0.0,0,False
2024-04-19,0.8469376264254036,0.8469376264254036,0.0,0,False
2024-04-20,0.8469376264254036,0.8469376264254036,0.0,0,False
2024-04-21,0.8469376264254036,0.8469376264254036,0.0,0,False
2024-04-22,0.8469376264254036,0.8469376264254036,0.0,0,False
2024-04-23,0.8469376264254036,0.8469376264254036,0.0,0,False
2024-04-24,0.8469376264254036,0.8469376264254036,0.0,0,False
2024-04-25,0.8469376264254036,0.8469376264254036,0.0,0,False
2024-04-26,0.8469376264254036,0.8469376264254036,0.0,0,False
2024-04-27,0.8469376264254036,0.8469376264254036,0.0,0,False
2024-04-28,0.8469376264254036,0.8469376264254036,0.0,0,False
2024-04-29,0.8469376264254036,0.8469376264254036,0.0,0,False
2024-04-30,0.8469376264254036,0.8469376264254036,0.0,0,False
2024-05-01,0.8469376264254036,0.8469376264254036,0.0,0,False
2024-05-02,0.8469376264254036,0.8469376264254036,0.0,0,False
2024-05-03,0.8469376264254036,0.8469376264254036,0.0,0,False
2024-05-04,0.8469376264254036,0.8469376264254036,0.0,0,False
2024-05-05,0.8469376264254036,0.8469376264254036,0.0,0,False
2024-05-06,0.8469376264254036,0.8469376264254036,0.0,0,False
2024-05-07,0.8469376264254036,0.8469376264254036,0.0,0,False
2024-05-08,0.8469376264254036,0.8469376264254036,0.0,0,False
2024-05-09,0.8469376264254036,0.8469376264254036,0.0,0,False
2024-05-10,0.8469376264254036,0.8469376264254036,0.0,0,False
2024-05-11,0.8469376264254036,0.8469376264254036,0.0,0,False
2024-05-12,0.8469376264254036,0.8469376264254036,0.0,0,False
2024-05-13,0.8469376264254036,0.8469376264254036,0.0,0,False
2024-05-14,0.8469376264254036,0.8469376264254036,0.0,0,False
2024-05-15,0.8469376264254036,0.8469376264254036,0.0,0,False
2024-05-16,0.8469376264254036,0.8469376264254036,0.0,0,False
2024-05-17,0.8469376264254036,0.8469376264254036,0.0,0,False
2024-05-18,0.8469376264254036,0.8469376264254036,0.0,0,False
2024-05-19,0.8469376264254036,0.8469376264254036,0.0,0,False
2024-05-20,0.8469376264254036,0.8469376264254036,0.0,0,False
2024-05-21,0.8469376264254036,0.8469376264254036,0.0,0,False
2024-05-22,0.8469376264254036,0.8469376264254036,0.0,0,False
2024-05-23,0.8469376264254036,0.8469376264254036,0.0,0,False
2024-05-24,0.8469376264254036,0.8469376264254036,0.0,0,False
2024-05-25,0.8469376264254036,0.8469376264254036,0.0,0,False
2024-05-26,0.8469376264254036,0.8469376264254036,0.0,0,False
2024-05-27,0.8469376264254036,0.8469376264254036,0.0,0,False
2024-05-28,0.8469376264254036,0.8469376264254036,0.0,0,False
2024-05-29,0.8469376264254036,0.8469376264254036,0.0,0,False
2024-05-30,0.8469376264254036,0.8469376264254036,0.0,0,False
2024-05-31,0.8469376264254036,0.8469376264254036,0.0,0,False
2024-06-01,0.8469376264254036,0.8469376264254036,0.0,0,False
2024-06-02,0.8469376264254036,0.8469376264254036,0.0,0,False
2024-06-03,0.8469376264254036,0.8469376264254036,0.0,0,False
2024-06-04,0.8469376264254036,0.8469376264254036,0.0,0,False
2024-06-05,0.8469376264254036,0.8469376264254036,0.0,0,False
2024-06-06,0.8469376264254036,0.8469376264254036,0.0,0,False
2024-06-07,0.8469376264254036,0.8469376264254036,0.0,0,False
2024-06-08,0.8469376264254036,0.8469376264254036,0.0,0,False
2024-06-09,0.8469376264254036,0.8469376264254036,0.0,0,False
2024-06-10,0.8469376264254036,0.8469376264254036,0.0,0,False
2024-06-11,0.8469376264254036,0.8469376264254036,0.0,0,False
2024-06-12,0.8469376264254036,0.8469376264254036,0.0,0,False
2024-06-13,0.8469376264254036,0.8469376264254036,0.0,0,False
2024-06-14,0.8469376264254036,0.8469376264254036,0.0,0,False
2024-06-15,0.8469376264254036,0.8469376264254036,0.0,0,False
2024-06-16,0.8469376264254036,0.8469376264254036,0.0,0,False
2024-06-17,0.8469376264254036,0.8469376264254036,0.0,0,False
2024-06-18,0.8469376264254036,0.8469376264254036,0.0,0,False
2024-06-19,0.8469376264254036,0.8469376264254036,0.0,0,False
2024-06-20,0.8469376264254036,0.8469376264254036,0.0,0,False
2024-06-21,0.8469376264254036,0.8469376264254036,0.0,0,False
2024-06-22,0.8469376264254036,0.8469376264254036,0.0,0,False
2024-06-23,0.8469376264254036,0.8469376264254036,0.0,0,False
2024-06-24,0.8469376264254036,0.8469376264254036,0.0,0,False
2024-06-25,0.8469376264254036,0.8469376264254036,0.0,0,False
2024-06-26,0.8469376264254036,0.8469376264254036,0.0,0,False
2024-06-27,0.8469376264254036,0.8469376264254036,0.0,0,False
2024-06-28,0.8469376264254036,0.8469376264254036,0.0,0,False
2024-06-29,0.8469376264254036,0.8469376264254036,0.0,0,False
2024-06-30,0.8469376264254036,0.8469376264254036,0.0,0,False
2024-07-01,0.8469376264254036,0.8469376264254036,0.0,0,False
2024-07-02,0.8469376264254036,0.8469376264254036,0.0,0,False
2024-07-03,0.8469376264254036,0.8469376264254036,0.0,0,False
2024-07-04,0.8469376264254036,0.8469376264254036,0.0,0,False
2024-07-05,0.8469376264254036,0.8469376264254036,0.0,0,False
2024-07-06,0.8469376264254036,0.8469376264254036,0.0,0,False
2024-07-07,0.8469376264254036,0.8469376264254036,0.0,0,False
2024-07-08,0.8469376264254036,0.8469376264254036,0.0,0,False
2024-07-09,0.8469376264254036,0.8469376264254036,0.0,0,False
2024-07-10,0.8469376264254036,0.8469376264254036,0.0,0,False
2024-07-11,0.8469376264254036,0.8469376264254036,0.0,0,False
2024-07-12,0.8469376264254036,0.8469376264254036,0.0,0,False
2024-07-13,0.8469376264254036,0.8469376264254036,0.0,0,False
2024-07-14,0.8469376264254036,0.8469376264254036,0.0,0,False
2024-07-15,0.8469376264254036,0.8469376264254036,0.0,0,False
2024-07-16,0.8469376264254036,0.8469376264254036,0.0,0,False
2024-07-17,0.8469376264254036,0.8469376264254036,0.0,0,False
2024-07-18,0.8469376264254036,0.8469376264254036,0.0,0,False
2024-07-19,0.8469376264254036,0.8469376264254036,0.0,0,False
2024-07-20,0.8469376264254036,0.8469376264254036,0.0,0,False
2024-07-21,0.8469376264254036,0.8469376264254036,0.0,0,False
2024-07-22,0.8469376264254036,0.8469376264254036,0.0,0,False
2024-07-23,0.8469376264254036,0.8469376264254036,0.0,0,False
2024-07-24,0.8469376264254036,0.8469376264254036,0.0,0,False
2024-07-25,0.8469376264254036,0.8469376264254036,0.0,0,False
2024-07-26,0.8469376264254036,0.8469376264254036,0.0,0,False
2024-07-27,0.8469376264254036,0.8469376264254036,0.0,0,False
2024-07-28,0.8469376264254036,0.8469376264254036,0.0,0,False
2024-07-29,0.8469376264254036,0.8469376264254036,0.0,0,False
2024-07-30,0.8469376264254036,0.8469376264254036,0.0,0,False
2024-07-31,0.8469376264254036,0.8469376264254036,0.0,0,False
2024-08-01,0.8469376264254036,0.8469376264254036,0.0,0,False
2024-08-02,0.8469376264254036,0.8469376264254036,0.0,0,False
2024-08-03,0.8469376264254036,0.8469376264254036,0.0,0,False
2024-08-04,0.8469376264254036,0.8469376264254036,0.0,0,False
2024-08-05,0.8469376264254036,0.8469376264254036,0.0,0,False
2024-08-06,0.8469376264254036,0.8469376264254036,0.0,0,False
2024-08-07,0.8469376264254036,0.8469376264254036,0.0,0,False
2024-08-08,0.8469376264254036,0.8469376264254036,0.0,0,False
2024-08-09,0.8469376264254036,0.8469376264254036,0.0,0,False
2024-08-10,0.8469376264254036,0.8469376264254036,0.0,0,False
2024-08-11,0.8469376264254036,0.8469376264254036,0.0,0,False
2024-08-12,0.8469376264254036,0.8469376264254036,0.0,0,False
2024-08-13,0.8469376264254036,0.8469376264254036,0.0,0,False
2024-08-14,0.8469376264254036,0.8469376264254036,0.0,0,False
2024-08-15,0.8469376264254036,0.8469376264254036,0.0,0,False
2024-08-16,0.8469376264254036,0.8469376264254036,0.0,0,False
2024-08-17,0.8469376264254036,0.8469376264254036,0.0,0,False
2024-08-18,0.8469376264254036,0.8469376264254036,0.0,0,False
2024-08-19,0.8469376264254036,0.8469376264254036,0.0,0,False
2024-08-20,0.8469376264254036,0.8469376264254036,0.0,0,False
2024-08-21,0.8469376264254036,0.8469376264254036,0.0,0,False
2024-08-22,0.8469376264254036,0.8469376264254036,0.0,0,False
2024-08-23,0.8469376264254036,0.8469376264254036,0.0,0,False
2024-08-24,0.8469376264254036,0.8469376264254036,0.0,0,False
2024-08-25,0.8469376264254036,0.8469376264254036,0.0,0,False
2024-08-26,0.8469376264254036,0.8469376264254036,0.0,0,False
2024-08-27,0.8469376264254036,0.8469376264254036,0.0,0,False
2024-08-28,0.8469376264254036,0.8469376264254036,0.0,0,False
2024-08-29,0.8469376264254036,0.8469376264254036,0.0,0,False
2024-08-30,0.8469376264254036,0.8469376264254036,0.0,0,False
2024-08-31,0.8469376264254036,0.8469376264254036,0.0,0,False
2024-09-01,0.8469376264254036,0.8469376264254036,0.0,0,False
2024-09-02,0.8469376264254036,0.8469376264254036,0.0,0,False
2024-09-03,0.8469376264254036,0.8469376264254036,0.0,0,False
2024-09-04,0.8469376264254036,0.8469376264254036,0.0,0,False
2024-09-05,0.8469376264254036,0.8469376264254036,0.0,0,False
2024-09-06,0.8469376264254036,0.8469376264254036,0.0,0,False
2024-09-07,0.8469376264254036,0.8469376264254036,0.0,0,False
2024-09-08,0.8469376264254036,0.8469376264254036,0.0,0,False
2024-09-09,0.8469376264254036,0.8469376264254036,0.0,0,False
2024-09-10,0.8469376264254036,0.8469376264254036,0.0,0,False
2024-09-11,0.8469376264254036,0.8469376264254036,0.0,0,False
2024-09-12,0.8469376264254036,0.8469376264254036,0.0,0,False
2024-09-13,0.8469376264254036,0.8469376264254036,0.0,0,False
2024-09-14,0.8469376264254036,0.8469376264254036,0.0,0,False
2024-09-15,0.8469376264254036,0.8469376264254036,0.0,0,False
2024-09-16,0.8469376264254036,0.8469376264254036,0.0,0,False
2024-09-17,0.8469376264254036,0.8469376264254036,0.0,0,False
2024-09-18,0.8469376264254036,0.8469376264254036,0.0,0,False
2024-09-19,0.8469376264254036,0.8469376264254036,0.0,0,False
2024-09-20,0.8469376264254036,0.8469376264254036,0.0,0,False
2024-09-21,0.8469376264254036,0.8469376264254036,0.0,0,False
2024-09-22,0.8469376264254036,0.8469376264254036,0.0,0,False
2024-09-23,0.8469376264254036,0.8469376264254036,0.0,0,False
2024-09-24,0.8469376264254036,0.8469376264254036,0.0,0,False
2024-09-25,0.8469376264254036,0.8469376264254036,0.0,0,False
2024-09-26,0.8469376264254036,0.8469376264254036,0.0,0,False
2024-09-27,0.8469376264254036,0.8469376264254036,0.0,0,False
2024-09-28,0.8469376264254036,0.8469376264254036,0.0,0,False
2024-09-29,0.8469376264254036,0.8469376264254036,0.0,0,False
2024-09-30,0.8469376264254036,0.8469376264254036,0.0,0,False
2024-10-01,0.8469376264254036,0.8469376264254036,0.0,0,False
2024-10-02,0.8469376264254036,0.8469376264254036,0.0,0,False
2024-10-03,0.8469376264254036,0.8469376264254036,0.0,0,False
2024-10-04,0.8469376264254036,0.8469376264254036,0.0,0,False
2024-10-05,0.8469376264254036,0.8469376264254036,0.0,0,False
2024-10-06,0.8469376264254036,0.8469376264254036,0.0,0,False
2024-10-07,0.8469376264254036,0.8469376264254036,0.0,0,False
2024-10-08,0.8469376264254036,0.8469376264254036,0.0,0,False
2024-10-09,0.8469376264254036,0.8469376264254036,0.0,0,False
2024-10-10,0.8469376264254036,0.8469376264254036,0.0,0,False
2024-10-11,0.8469376264254036,0.8469376264254036,0.0,0,False
2024-10-12,0.8469376264254036,0.8469376264254036,0.0,0,False
2024-10-13,0.8469376264254036,0.8469376264254036,0.0,0,False
2024-10-14,0.8469376264254036,0.8469376264254036,0.0,0,False
2024-10-15,0.8469376264254036,0.8469376264254036,0.0,0,False
2024-10-16,0.8469376264254036,0.8469376264254036,0.0,0,False
2024-10-17,0.8469376264254036,0.8469376264254036,0.0,0,False
2024-10-18,0.8469376264254036,0.8469376264254036,0.0,0,False
2024-10-19,0.8469376264254036,0.8469376264254036,0.0,0,False
2024-10-20,0.8469376264254036,0.8469376264254036,0.0,0,False
2024-10-21,0.8469376264254036,0.8469376264254036,0.0,0,False
2024-10-22,0.8469376264254036,0.8469376264254036,0.0,0,False
2024-10-23,0.8469376264254036,0.8469376264254036,0.0,0,False
2024-10-24,0.8469376264254036,0.8469376264254036,0.0,0,False
2024-10-25,0.8469376264254036,0.8469376264254036,0.0,0,False
2024-10-26,0.8469376264254036,0.8469376264254036,0.0,0,False
2024-10-27,0.8469376264254036,0.8469376264254036,0.0,0,False
2024-10-28,0.8469376264254036,0.8469376264254036,0.0,0,False
2024-10-29,0.8469376264254036,0.8469376264254036,0.0,0,False
2024-10-30,0.8469376264254036,0.8469376264254036,0.0,0,False
2024-10-31,0.8469376264254036,0.8469376264254036,0.0,0,False
2024-11-01,0.8469376264254036,0.8469376264254036,0.0,0,False
2024-11-02,0.8469376264254036,0.8469376264254036,0.0,0,False
2024-11-03,0.8469376264254036,0.8469376264254036,0.0,0,False
2024-11-04,0.8469376264254036,0.8469376264254036,0.0,0,False
2024-11-05,0.8469376264254036,0.8469376264254036,0.0,0,False
2024-11-06,0.8469376264254036,0.8469376264254036,0.0,0,False
2024-11-07,0.8469376264254036,0.8469376264254036,0.0,0,False
2024-11-08,0.8469376264254036,0.8469376264254036,0.0,0,False
2024-11-09,0.8469376264254036,0.8469376264254036,0.0,0,False
2024-11-10,0.8469376264254036,0.8469376264254036,0.0,0,False
2024-11-11,0.8469376264254036,0.8469376264254036,0.0,0,False
2024-11-12,0.8469376264254036,0.8469376264254036,0.0,0,False
2024-11-13,0.8469376264254036,0.8469376264254036,0.0,0,False
2024-11-14,0.8469376264254036,0.8469376264254036,0.0,0,False
2024-11-15,0.8469376264254036,0.8469376264254036,0.0,0,False
2024-11-16,0.8469376264254036,0.8469376264254036,0.0,0,False
2024-11-17,0.8469376264254036,0.8469376264254036,0.0,0,False
2024-11-18,0.8469376264254036,0.8469376264254036,0.0,0,False
2024-11-19,0.8469376264254036,0.8469376264254036,0.0,0,False
2024-11-20,0.8469376264254036,0.8469376264254036,0.0,0,False
2024-11-21,0.8469376264254036,0.8469376264254036,0.0,0,False
2024-11-22,0.8469376264254036,0.8469376264254036,0.0,0,False
2024-11-23,0.8469376264254036,0.8469376264254036,0.0,0,False
2024-11-24,0.8469376264254036,0.8469376264254036,0.0,0,False
2024-11-25,0.8469376264254036,0.8469376264254036,0.0,0,False
2024-11-26,0.8469376264254036,0.8469376264254036,0.0,0,False
2024-11-27,0.8469376264254036,0.8469376264254036,0.0,0,False
2024-11-28,0.8469376264254036,0.8469376264254036,0.0,0,False
2024-11-29,0.8469376264254036,0.8469376264254036,0.0,0,False
2024-11-30,0.8469376264254036,0.8469376264254036,0.0,0,False
2024-12-01,0.8469376264254036,0.8469376264254036,0.0,0,False
2024-12-02,0.8469376264254036,0.8469376264254036,0.0,0,False
2024-12-03,0.8469376264254036,0.8469376264254036,0.0,0,False
2024-12-04,0.8469376264254036,0.8469376264254036,0.0,0,False
2024-12-05,0.8469376264254036,0.8469376264254036,0.0,0,False
2024-12-06,0.8469376264254036,0.8469376264254036,0.0,0,False
2024-12-07,0.8469376264254036,0.8469376264254036,0.0,0,False
2024-12-08,0.8469376264254036,0.8469376264254036,0.0,0,False
2024-12-09,0.8469376264254036,0.8469376264254036,0.0,0,False
2024-12-10,0.8469376264254036,0.8469376264254036,0.0,0,False
2024-12-11,0.8469376264254036,0.8469376264254036,0.0,0,False
2024-12-12,0.8469376264254036,0.8469376264254036,0.0,0,False
2024-12-13,0.8469376264254036,0.8469376264254036,0.0,0,False
2024-12-14,0.8469376264254036,0.8469376264254036,0.0,0,False
2024-12-15,0.8469376264254036,0.8469376264254036,0.0,0,False
2024-12-16,0.8469376264254036,0.8469376264254036,0.0,0,False
2024-12-17,0.8469376264254036,0.8469376264254036,0.0,0,False
2024-12-18,0.8469376264254036,0.8469376264254036,0.0,0,False
2024-12-19,0.8469376264254036,0.8469376264254036,0.0,0,False
2024-12-20,0.8469376264254036,0.8469376264254036,0.0,0,False
2024-12-21,0.8469376264254036,0.8469376264254036,0.0,0,False
2024-12-22,0.8469376264254036,0.8469376264254036,0.0,0,False
2024-12-23,0.8469376264254036,0.8469376264254036,0.0,0,False
2024-12-24,0.8469376264254036,0.8469376264254036,0.0,0,False
2024-12-25,0.8469376264254036,0.8469376264254036,0.0,0,False
2024-12-26,0.8469376264254036,0.8469376264254036,0.0,0,False
2024-12-27,0.8469376264254036,0.8469376264254036,0.0,0,False
2024-12-28,0.8469376264254036,0.8469376264254036,0.0,0,False
2024-12-29,0.8469376264254036,0.8469376264254036,0.0,0,False
2024-12-30,0.8469376264254036,0.8469376264254036,0.0,0,False
2024-12-31,0.8469376264254036,0.8469376264254036,0.0,0,False
