day,start_equity,end_equity,return_pct,entries,active
2024-01-02,1.0,1.0,0.0,0,False
2024-01-03,1.0,0.9935142824198505,-0.6485717580149486,6,True
2024-01-04,0.9935142824198505,0.9988284641940535,0.5348873054204617,2,True
2024-01-05,0.9988284641940535,0.9968948699435509,-0.19358621823645228,1,True
2024-01-06,0.9968948699435509,0.9968448976766661,-0.00501279205977756,2,True
2024-01-07,0.9968448976766661,0.9950354354999302,-0.18151892846651752,1,True
2024-01-08,0.9950354354999302,0.999929013914495,0.49179941135524263,3,True
2024-01-09,0.999929013914495,1.0154735778982342,1.5545667509822447,0,True
2024-01-10,1.0154735778982342,1.0154735778982342,0.0,0,False
2024-01-11,1.0154735778982342,1.0163023138216882,0.08161078155959345,1,True
2024-01-12,1.0163023138216882,1.0144787672994011,-0.17942953562999353,2,True
2024-01-13,1.0144787672994011,1.0187631318689967,0.4223217584928607,4,True
2024-01-14,1.0187631318689967,1.0237295793986243,0.48749776805490086,0,True
2024-01-15,1.0237295793986243,1.0237295793986243,0.0,0,False
2024-01-16,1.0237295793986243,1.023404855481102,-0.03171969669110153,1,True
2024-01-17,1.023404855481102,1.0277898790478102,0.42847398497507516,0,True
2024-01-18,1.0277898790478102,1.0277898790478102,0.0,0,False
2024-01-19,1.0277898790478102,1.0277898790478102,0.0,0,False
2024-01-20,1.0277898790478102,1.042302585332057,1.412030472385295,6,True
2024-01-21,1.042302585332057,1.044567329063494,0.2172827510271702,0,True
2024-01-22,1.044567329063494,1.044567329063494,0.0,0,False
2024-01-23,1.044567329063494,1.0255479625369819,-1.8207889522606435,8,True
2024-01-24,1.0255479625369819,1.0394904789649622,1.3595187097334316,0,True
2024-01-25,1.0394904789649622,1.0343025927060183,-0.4990797283789927,1,True
2024-01-26,1.0343025927060183,1.0343025927060183,0.0,0,False
2024-01-27,1.0343025927060183,1.0343025927060183,0.0,0,False
2024-01-28,1.0343025927060183,1.0333584116881935,-0.09128673025506906,1,True
2024-01-29,1.0333584116881935,1.0333584116881935,0.0,0,False
2024-01-30,1.0333584116881935,1.0333584116881935,0.0,0,False
2024-01-31,1.0333584116881935,1.028196470578274,-0.49953056476179647,1,True
2024-02-01,1.028196470578274,1.028196470578274,0.0,0,False
2024-02-02,1.028196470578274,1.0279888765008731,-0.020190117680929376,2,True
2024-02-03,1.0279888765008731,1.0364358654034187,0.821700418714455,1,True
2024-02-04,1.0364358654034187,1.0347777980441422,-0.1599778061164625,1,True
2024-02-05,1.0347777980441422,1.0347777980441422,0.0,0,False
2024-02-06,1.0347777980441422,1.0296119489738105,-0.49922302933980145,1,True
2024-02-07,1.0296119489738105,1.02927095839011,-0.03311835920710715,3,True
2024-02-08,1.02927095839011,1.0413506278874662,1.1736141391038624,0,True
2024-02-09,1.0413506278874662,1.0413506278874662,0.0,0,False
2024-02-10,1.0413506278874662,1.0413506278874662,0.0,0,False
2024-02-11,1.0413506278874662,1.0413506278874662,0.0,0,False
2024-02-12,1.0413506278874662,1.0413506278874662,0.0,0,False
2024-02-13,1.0413506278874662,1.0413506278874662,0.0,0,False
2024-02-14,1.0413506278874662,1.0427122315068724,0.1307536177481694,1,True
2024-02-15,1.0427122315068724,1.0401089930622653,-0.24966029609578833,0,True
2024-02-16,1.0401089930622653,1.0454139584867774,0.5100393766323874,1,True
2024-02-17,1.0454139584867774,1.0414267097889767,-0.38140381285631797,2,True
2024-02-18,1.0414267097889767,1.041811139352039,0.036913741451893856,0,True
2024-02-19,1.041811139352039,1.041811139352039,0.0,0,False
2024-02-20,1.041811139352039,1.0438672709952976,0.19736126497336137,7,True
2024-02-21,1.0438672709952976,1.0288715619516315,-1.4365532343367904,5,True
2024-02-22,1.0288715619516315,1.053201304888732,2.3647016631454187,2,True
2024-02-23,1.053201304888732,1.0599598354046182,0.6417130784508673,1,True
2024-02-24,1.0599598354046182,1.067290906008993,0.6916366412672792,2,True
2024-02-25,1.067290906008993,1.0650871845887586,-0.20647804715913098,1,True
2024-02-26,1.0650871845887586,1.0705316128537965,0.5111720752832172,0,True
2024-02-27,1.0705316128537965,1.069677301554067,-0.07980252889983053,1,True
2024-02-28,1.069677301554067,1.0697377107451889,0.005647421987364787,1,True
2024-02-29,1.0697377107451889,1.090905023114202,1.9787385408959413,5,True
2024-03-01,1.090905023114202,1.0865547893561163,-0.39877291477373733,1,True
2024-03-02,1.0865547893561163,1.0861176299954134,-0.040233531248057286,1,True
2024-03-03,1.0861176299954134,1.0896626318207967,0.32639207093971834,6,True
2024-03-04,1.0896626318207967,1.1184837724507486,2.6449599892943487,0,True
2024-03-05,1.1184837724507486,1.1111113247242537,-0.6591465972135557,5,True
2024-03-06,1.1111113247242537,1.0870678924077979,-2.1639084924656604,4,True
2024-03-07,1.0870678924077979,1.0884150154059082,0.12392261858884535,0,True
2024-03-08,1.0884150154059082,1.0893463255983737,0.08556572440505672,2,True
2024-03-09,1.0893463255983737,1.086788243462554,-0.23482726068907445,3,True
2024-03-10,1.086788243462554,1.0998482727645194,1.2017087395383985,2,True
2024-03-11,1.0998482727645194,1.0921498335304076,-0.6999546596333062,0,True
2024-03-12,1.0921498335304076,1.0881169983941694,-0.3692565811416082,1,True
2024-03-13,1.0881169983941694,1.0926595172266165,0.417466029769864,2,True
2024-03-14,1.0926595172266165,1.1021997774286982,0.8731228760352261,1,True
2024-03-15,1.1021997774286982,1.0872224806811566,-1.358854996548986,10,True
2024-03-16,1.0872224806811566,1.0978329233788005,0.9759219374305461,1,True
2024-03-17,1.0978329233788005,1.0818584811228908,-1.4550886492586734,4,True
2024-03-18,1.0818584811228908,1.0832015151005492,0.12414137348761844,0,True
2024-03-19,1.0832015151005492,1.0672301967336117,-1.4744549508366345,8,True
2024-03-20,1.0672301967336117,1.0646153247703107,-0.24501480292669076,0,True
2024-03-21,1.0646153247703107,1.0678162016993822,0.3006604220883391,2,True
2024-03-22,1.0678162016993822,1.0686730122482402,0.0802395157045277,0,True
2024-03-23,1.0686730122482402,1.070542205908909,0.1749079128269937,1,True
2024-03-24,1.070542205908909,1.0680679844442835,-0.23111853516553094,2,True
2024-03-25,1.0680679844442835,1.0768029594670978,0.817829496814193,2,True
2024-03-26,1.0768029594670978,1.0915978802134922,1.373967318377023,2,True
2024-03-27,1.0915978802134922,1.0854228047824033,-0.5656914091736076,3,True
2024-03-28,1.0854228047824033,1.0808910838559975,-0.41750743640531773,0,True
2024-03-29,1.0808910838559975,1.0693313769736859,-1.069460841611658,4,True
2024-03-30,1.0693313769736859,1.0692142400770122,-0.010954218607628352,0,True
2024-03-31,1.0692142400770122,1.0692142400770122,0.0,0,False
2024-04-01,1.0692142400770122,1.068057832662209,-0.108154883414191,4,True
2024-04-02,1.068057832662209,1.0397196754544984,-2.653241832146458,5,True
2024-04-03,1.0397196754544984,1.0218022498529549,-1.7232938862786429,1,True
2024-04-04,1.0218022498529549,1.0213174128615652,-0.047449199828975,1,True
2024-04-05,1.0213174128615652,1.0064832111330275,-1.4524575358971559,3,True
2024-04-06,1.0064832111330275,1.0062146553515332,-0.026682589289495073,1,True
2024-04-07,1.0062146553515332,1.0218267566818477,1.5515676746787443,1,True
2024-04-08,1.0218267566818477,1.0136909456455396,-0.7962025835697717,0,True
2024-04-09,1.0136909456455396,1.0086344875737774,-0.4988165370799713,1,True
2024-04-10,1.0086344875737774,0.9976462891258797,-1.0894133190239463,5,True
2024-04-11,0.9976462891258797,1.0070865266613787,0.946250954711636,1,True
2024-04-12,1.0070865266613787,1.0036871963415936,-0.33754103841049377,3,True
2024-04-13,1.0036871963415936,0.9766052946550702,-2.6982412234843767,7,True
2024-04-14,0.9766052946550702,0.9303431104793605,-4.7370400743167345,13,True
2024-04-15,0.9303431104793605,0.9395046749953074,0.9847511539292642,0,True
2024-04-16,0.9395046749953074,0.9395046749953074,0.0,0,False
2024-04-17,0.9395046749953074,0.9395046749953074,0.0,0,False
2024-04-18,0.9395046749953074,0.9395046749953074,0.0,0,False
2024-04-19,0.9395046749953074,0.9448225123475023,0.5660256402898023,4,True
2024-04-20,0.9448225123475023,0.9418839456145591,-0.3110178572737432,0,True
2024-04-21,0.9418839456145591,0.9418839456145591,0.0,0,False
2024-04-22,0.9418839456145591,0.9418839456145591,0.0,0,False
2024-04-23,0.9418839456145591,0.9438365019266635,0.20730327989935127,1,True
2024-04-24,0.9438365019266635,0.9409590594532452,-0.30486662335525994,1,True
2024-04-25,0.9409590594532452,0.9381719265726748,-0.2962012908606204,0,True
2024-04-26,0.9381719265726748,0.9381719265726748,0.0,0,False
2024-04-27,0.9381719265726748,0.9459790337196329,0.8321616673693244,3,True
2024-04-28,0.9459790337196329,0.9485720764560774,0.27411207267973303,1,True
2024-04-29,0.9485720764560774,0.9514764741901383,0.30618629898022665,2,True
2024-04-30,0.9514764741901383,0.9478440574941214,-0.3817663173552144,2,True
2024-05-01,0.9478440574941214,0.9426897165988886,-0.5437962979753963,3,True
2024-05-02,0.9426897165988886,0.946059619189669,0.35747738958462616,1,True
2024-05-03,0.946059619189669,0.943930667754008,-0.2250335383180646,1,True
2024-05-04,0.943930667754008,0.9446641120822972,0.07770108052895797,0,True
2024-05-05,0.9446641120822972,0.941690047936747,-0.3148276839896491,1,True
2024-05-06,0.941690047936747,0.9430540452548587,0.14484567624986067,0,True
2024-05-07,0.9430540452548587,0.9481890351222142,0.544506424970348,2,True
2024-05-08,0.9481890351222142,0.9507106934036068,0.2659446785384434,2,True
2024-05-09,0.9507106934036068,0.9479927221843091,-0.28588836100782444,1,True
2024-05-10,0.9479927221843091,0.9479927221843091,0.0,0,False
2024-05-11,0.9479927221843091,0.9412481168416559,-0.7114617216799624,4,True
2024-05-12,0.9412481168416559,0.9369743572651366,-0.4540523906554905,0,True
2024-05-13,0.9369743572651366,0.9383600387278139,0.1478889418833118,3,True
2024-05-14,0.9383600387278139,0.929744770463574,-0.9181196884641585,3,True
2024-05-15,0.929744770463574,0.9352046838653938,0.5872486272869848,1,True
2024-05-16,0.9352046838653938,0.9444694206081482,0.9906640655884313,0,True
2024-05-17,0.9444694206081482,0.9444694206081482,0.0,0,False
2024-05-18,0.9444694206081482,0.9499646204442362,0.5818293018475584,2,True
2024-05-19,0.9499646204442362,0.9492832476936098,-0.0717261186324758,0,True
2024-05-20,0.9492832476936098,0.9466851931546755,-0.2736859146357684,1,True
2024-05-21,0.9466851931546755,0.941410754576831,-0.5571481011832691,2,True
2024-05-22,0.941410754576831,0.9448698243618844,0.36743470034057424,1,True
2024-05-23,0.9448698243618844,0.9402579758607242,-0.4880935322783442,1,True
2024-05-24,0.9402579758607242,0.9434030026718911,0.3344855233254451,2,True
2024-05-25,0.9434030026718911,0.9429334162127492,-0.049775807137775185,0,True
2024-05-26,0.9429334162127492,0.9446095198642829,0.17775418950212174,2,True
2024-05-27,0.9446095198642829,0.9580680863747967,1.424775658882571,2,True
2024-05-28,0.9580680863747967,0.9644759511260905,0.6688318755653677,1,True
2024-05-29,0.9644759511260905,0.9638955740316645,-0.06017538267786282,0,True
2024-05-30,0.9638955740316645,0.959918722424206,-0.41258116694370406,3,True
2024-05-31,0.959918722424206,0.9569919112346335,-0.30490197984481826,0,True
2024-06-01,0.9569919112346335,0.955048119391645,-0.2031147620130569,2,True
2024-06-02,0.955048119391645,0.9638655956438125,0.9232494230535737,0,True
2024-06-03,0.9638655956438125,0.9649451801958556,0.11200571500034062,1,True
2024-06-04,0.9649451801958556,0.9669626796679088,0.2090791801917513,3,True
2024-06-05,0.9669626796679088,0.9671614614858716,0.020557341264826334,0,True
2024-06-06,0.9671614614858716,0.96835693566373,0.12360647373417244,1,True
2024-06-07,0.96835693566373,0.9676723390241956,-0.07069672497003188,0,True
2024-06-08,0.9676723390241956,0.9871705238659697,2.014957342010648,5,True
2024-06-09,0.9871705238659697,0.9871705238659697,0.0,0,False
2024-06-10,0.9871705238659697,0.9871705238659697,0.0,0,False
2024-06-11,0.9871705238659697,0.9873875713680286,0.021986829712949962,1,True
2024-06-12,0.9873875713680286,0.9974162099119864,1.0156739698539141,1,True
2024-06-13,0.9974162099119864,0.9918904109271311,-0.554011347513883,1,True
2024-06-14,0.9918904109271311,0.9851100320856503,-0.683581448795656,4,True
2024-06-15,0.9851100320856503,0.9942199044668928,0.9247568377671822,4,True
2024-06-16,0.9942199044668928,0.9945440183389417,0.032599817263023745,0,True
2024-06-17,0.9945440183389417,0.9846487639044255,-0.9949538936489644,2,True
2024-06-18,0.9846487639044255,0.9871230489846369,0.25128605965036854,5,True
2024-06-19,0.9871230489846369,0.9927987740360438,0.5749764487056552,0,True
2024-06-20,0.9927987740360438,0.9967161233452517,0.39457636448145816,1,True
2024-06-21,0.9967161233452517,0.9952003605369593,-0.15207567859996107,1,True
2024-06-22,0.9952003605369593,0.9958731733096777,0.06760576054809508,0,True
2024-06-23,0.9958731733096777,0.9966031030942052,0.0732954560972443,2,True
2024-06-24,0.9966031030942052,0.9966031030942052,0.0,0,False
2024-06-25,0.9966031030942052,0.9966031030942052,0.0,0,False
2024-06-26,0.9966031030942052,0.9966031030942052,0.0,0,False
2024-06-27,0.9966031030942052,0.9916372749308243,-0.4982754065247397,1,True
2024-06-28,0.9916372749308243,0.9914501667835073,-0.018868607710420537,1,True
2024-06-29,0.9914501667835073,0.9795009235454459,-1.2052288292842217,3,True
2024-06-30,0.9795009235454459,0.9753162392461717,-0.42722617188835077,0,True
2024-07-01,0.9753162392461717,0.9690595189356912,-0.6415068322164319,2,True
2024-07-02,0.9690595189356912,0.9732913448543244,0.4366941179506645,0,True
2024-07-03,0.9732913448543244,0.9684292905081303,-0.49954768136994954,1,True
2024-07-04,0.9684292905081303,0.9554708542185844,-1.338088017014305,4,True
2024-07-05,0.9554708542185844,0.926464157586981,-3.0358536321158702,12,True
2024-07-06,0.926464157586981,0.9344236256988079,0.8591231562112167,0,True
2024-07-07,0.9344236256988079,0.9344236256988079,0.0,0,False
2024-07-08,0.9344236256988079,0.9357920464367924,0.14644543442072777,2,True
2024-07-09,0.9357920464367924,0.9369702261782298,0.12590187594814228,1,True
2024-07-10,0.9369702261782298,0.9405293373362437,0.37985317554123377,1,True
2024-07-11,0.9405293373362437,0.9302143779317675,-1.0967185174350913,2,True
2024-07-12,0.9302143779317675,0.9302143779317675,0.0,0,False
2024-07-13,0.9302143779317675,0.9302143779317675,0.0,0,False
2024-07-14,0.9302143779317675,0.9310333656426123,0.08804289960189227,1,True
2024-07-15,0.9310333656426123,0.9330890183009325,0.2207925874816885,0,True
2024-07-16,0.9330890183009325,0.9313197672119631,-0.18961225073584886,1,True
2024-07-17,0.9313197672119631,0.9313197672119631,0.0,0,False
2024-07-18,0.9313197672119631,0.9313197672119631,0.0,0,False
2024-07-19,0.9313197672119631,0.9283369494685051,-0.3202785819082843,2,True
2024-07-20,0.9283369494685051,0.9302606986794337,0.20722531964605384,1,True
2024-07-21,0.9302606986794337,0.9300520939394309,-0.02242433119006293,1,True
2024-07-22,0.9300520939394309,0.9299612110020473,-0.009771811490544291,1,True
2024-07-23,0.9299612110020473,0.9267666532591556,-0.34351516010538985,3,True
2024-07-24,0.9267666532591556,0.9232124989073387,-0.38350045713427816,1,True
2024-07-25,0.9232124989073387,0.922326696690367,-0.09594781461690349,0,True
2024-07-26,0.922326696690367,0.922326696690367,0.0,0,False
2024-07-27,0.922326696690367,0.922326696690367,0.0,0,False
2024-07-28,0.922326696690367,0.9197779384784261,-0.27634006703771696,1,True
2024-07-29,0.9197779384784261,0.9197779384784261,0.0,0,False
2024-07-30,0.9197779384784261,0.9172511474968831,-0.2747175025444859,2,True
2024-07-31,0.9172511474968831,0.905143016094045,-1.320045380796775,4,True
2024-08-01,0.905143016094045,0.9023517544488789,-0.3083779685127741,0,True
2024-08-02,0.9023517544488789,0.8954211765936428,-0.7680572261389407,4,True
2024-08-03,0.8954211765936428,0.8968958092932068,0.16468593083467375,5,True
2024-08-04,0.8968958092932068,0.8731073653648325,-2.652308515871049,2,True
2024-08-05,0.8731073653648325,0.8562890758011762,-1.9262567504087724,8,True
2024-08-06,0.8562890758011762,0.8625810327022757,0.734793550322066,0,True
2024-08-07,0.8625810327022757,0.8625810327022757,0.0,0,False
2024-08-08,0.8625810327022757,0.8625810327022757,0.0,0,False
2024-08-09,0.8625810327022757,0.8625810327022757,0.0,0,False
2024-08-10,0.8625810327022757,0.8625810327022757,0.0,0,False
2024-08-11,0.8625810327022757,0.8591528745930873,-0.3974302679075503,1,True
2024-08-12,0.8591528745930873,0.8592404929181016,0.010198222878066154,1,True
2024-08-13,0.8592404929181016,0.8539782752897577,-0.6124266339535112,0,True
2024-08-14,0.8539782752897577,0.8539782752897577,0.0,0,False
2024-08-15,0.8539782752897577,0.8539782752897577,0.0,0,False
2024-08-16,0.8539782752897577,0.8539782752897577,0.0,0,False
2024-08-17,0.8539782752897577,0.8732330794924535,2.2547182709258706,1,True
2024-08-18,0.8732330794924535,0.8723936580002368,-0.09612799972082975,0,True
2024-08-19,0.8723936580002368,0.8719679850277282,-0.04879368030762388,1,True
2024-08-20,0.8719679850277282,0.8642422811817195,-0.8860077409565625,2,True
2024-08-21,0.8642422811817195,0.8673782814789065,0.3628612445226498,0,True
2024-08-22,0.8673782814789065,0.8673782814789065,0.0,0,False
2024-08-23,0.8673782814789065,0.8673782814789065,0.0,0,False
2024-08-24,0.8673782814789065,0.8659712120420403,-0.16222096712718015,1,True
2024-08-25,0.8659712120420403,0.863660070240744,-0.26688436857461584,2,True
2024-08-26,0.863660070240744,0.8647920372243898,0.13106626352776818,2,True
2024-08-27,0.8647920372243898,0.8583967717372605,-0.7395148442457145,0,True
2024-08-28,0.8583967717372605,0.8606183398770152,0.258804344669028,4,True
2024-08-29,0.8606183398770152,0.850599039500411,-1.1641978694104882,2,True
2024-08-30,0.850599039500411,0.8514862604372337,0.10430542425063916,0,True
2024-08-31,0.8514862604372337,0.8514862604372337,0.0,0,False
2024-09-01,0.8514862604372337,0.8489767429878222,-0.29472201326218306,1,True
2024-09-02,0.8489767429878222,0.850476589186945,0.17666516915932906,0,True
2024-09-03,0.850476589186945,0.850476589186945,0.0,0,False
2024-09-04,0.850476589186945,0.850476589186945,0.0,0,False
2024-09-05,0.850476589186945,0.850476589186945,0.0,0,False
2024-09-06,0.850476589186945,0.8503795761839728,-0.011406898697241541,1,True
2024-09-07,0.8503795761839728,0.8516008615751212,0.14361650083705157,0,True
2024-09-08,0.8516008615751212,0.8516008615751212,0.0,0,False
2024-09-09,0.8516008615751212,0.8516008615751212,0.0,0,False
2024-09-10,0.8516008615751212,0.8516008615751212,0.0,0,False
2024-09-11,0.8516008615751212,0.8473528247757605,-0.4988295563139178,1,True
2024-09-12,0.8473528247757605,0.8473528247757605,0.0,0,False
2024-09-13,0.8473528247757605,0.8472573446958683,-0.011268042909684528,1,True
2024-09-14,0.8472573446958683,0.8488002343241563,0.18210401337290794,0,True
2024-09-15,0.8488002343241563,0.8506964050143442,0.22339422322352753,1,True
2024-09-16,0.8506964050143442,0.8509122017009015,0.02536706224280927,0,True
2024-09-17,0.8509122017009015,0.8509122017009015,0.0,0,False
2024-09-18,0.8509122017009015,0.8509122017009015,0.0,0,False
2024-09-19,0.8509122017009015,0.8509122017009015,0.0,0,False
2024-09-20,0.8509122017009015,0.8509122017009015,0.0,0,False
2024-09-21,0.8509122017009015,0.8509122017009015,0.0,0,False
2024-09-22,0.8509122017009015,0.8509834627635341,0.008374666915123008,1,True
2024-09-23,0.8509834627635341,0.8500312415587791,-0.11189655809088483,0,True
2024-09-24,0.8500312415587791,0.8500312415587791,0.0,0,False
2024-09-25,0.8500312415587791,0.8500312415587791,0.0,0,False
2024-09-26,0.8500312415587791,0.8500312415587791,0.0,0,False
2024-09-27,0.8500312415587791,0.8500312415587791,0.0,0,False
2024-09-28,0.8500312415587791,0.8500312415587791,0.0,0,False
2024-09-29,0.8500312415587791,0.8500312415587791,0.0,0,False
2024-09-30,0.8500312415587791,0.8483311880953743,-0.19999893889631748,1,True
2024-10-01,0.8483311880953743,0.8495295280327297,0.14125850306716536,0,True
2024-10-02,0.8495295280327297,0.8310298487766357,-2.177638168614826,7,True
2024-10-03,0.8310298487766357,0.8205519937184458,-1.2608277637216503,1,True
2024-10-04,0.8205519937184458,0.8205519937184458,0.0,0,False
2024-10-05,0.8205519937184458,0.8205519937184458,0.0,0,False
2024-10-06,0.8205519937184458,0.8205519937184458,0.0,0,False
2024-10-07,0.8205519937184458,0.8205519937184458,0.0,0,False
2024-10-08,0.8205519937184458,0.8205519937184458,0.0,0,False
2024-10-09,0.8205519937184458,0.8205519937184458,0.0,0,False
2024-10-10,0.8205519937184458,0.8205519937184458,0.0,0,False
2024-10-11,0.8205519937184458,0.8205519937184458,0.0,0,False
2024-10-12,0.8205519937184458,0.8205519937184458,0.0,0,False
2024-10-13,0.8205519937184458,0.8205519937184458,0.0,0,False
2024-10-14,0.8205519937184458,0.8205519937184458,0.0,0,False
2024-10-15,0.8205519937184458,0.8207470603981551,0.023772616629136323,1,True
2024-10-16,0.8207470603981551,0.8208300165164935,0.010107391465785653,3,True
2024-10-17,0.8208300165164935,0.8186159009036417,-0.2697410631068542,2,True
2024-10-18,0.8186159009036417,0.8246293859489453,0.7345917711426786,1,True
2024-10-19,0.8246293859489453,0.8239022466695363,-0.08817770647019385,1,True
2024-10-20,0.8239022466695363,0.8254994988968967,0.19386428836878355,2,True
2024-10-21,0.8254994988968967,0.8223880302346698,-0.3769195095072342,0,True
2024-10-22,0.8223880302346698,0.8223880302346698,0.0,0,False
2024-10-23,0.8223880302346698,0.8223880302346698,0.0,0,False
2024-10-24,0.8223880302346698,0.8219984333263345,-0.04737385443512876,1,True
2024-10-25,0.8219984333263345,0.8216933635221126,-0.03711318560393195,0,True
2024-10-26,0.8216933635221126,0.8044637575131872,-2.0968413247336337,9,True
2024-10-27,0.8044637575131872,0.8110899098809361,0.8236731991795532,0,True
2024-10-28,0.8110899098809361,0.8110899098809361,0.0,0,False
2024-10-29,0.8110899098809361,0.8228925805697154,1.455161819299633,2,True
2024-10-30,0.8228925805697154,0.8250529788246416,0.2625370924392634,0,True
2024-10-31,0.8250529788246416,0.8250529788246416,0.0,0,False
2024-11-01,0.8250529788246416,0.8243292374720498,-0.08772059142466704,2,True
2024-11-02,0.8243292374720498,0.8211709231745338,-0.383137483659024,0,True
2024-11-03,0.8211709231745338,0.8155864940653864,-0.6800568494995773,2,True
2024-11-04,0.8155864940653864,0.8240645176293909,1.0395002400965137,3,True
2024-11-05,0.8240645176293909,0.8257066571534879,0.19927317448651394,1,True
2024-11-06,0.8257066571534879,0.8274182985626278,0.20729412731641528,1,True
2024-11-07,0.8274182985626278,0.8283167276263504,0.10858220869460755,1,True
2024-11-08,0.8283167276263504,0.8238472705635342,-0.5395830983184413,2,True
2024-11-09,0.8238472705635342,0.8250340121948074,0.14404874224580588,2,True
2024-11-10,0.8250340121948074,0.828178822567753,0.3811734215150242,1,True
2024-11-11,0.828178822567753,0.8280799212266505,-0.011942027302247471,2,True
2024-11-12,0.8280799212266505,0.8255430308795263,-0.3063581524071157,4,True
2024-11-13,0.8255430308795263,0.8215980189636036,-0.4778687201465015,0,True
2024-11-14,0.8215980189636036,0.8164413418990031,-0.6276399097341234,4,True
2024-11-15,0.8164413418990031,0.8267493945235973,1.2625588754016537,2,True
2024-11-16,0.8267493945235973,0.8306232707957217,0.4685671737753916,0,True
2024-11-17,0.8306232707957217,0.824765509521902,-0.7052247968213243,4,True
2024-11-18,0.824765509521902,0.8304158576333603,0.6850854026053677,1,True
2024-11-19,0.8304158576333603,0.8278038600001127,-0.3145409145595579,1,True
2024-11-20,0.8278038600001127,0.8292999635432042,0.1807316461524211,1,True
2024-11-21,0.8292999635432042,0.8408102655919288,1.38795400394649,3,True
2024-11-22,0.8408102655919288,0.836938809638611,-0.46044346884756004,0,True
2024-11-23,0.836938809638611,0.836938809638611,0.0,0,False
2024-11-24,0.836938809638611,0.8403980990452052,0.41332644235818616,8,True
2024-11-25,0.8403980990452052,0.8491606732808014,1.0426694498180566,0,True
2024-11-26,0.8491606732808014,0.8448265365020192,-0.5104024379787742,2,True
2024-11-27,0.8448265365020192,0.8479444274970582,0.3690569436832103,0,True
2024-11-28,0.8479444274970582,0.8454141083087675,-0.29840625237194107,2,True
2024-11-29,0.8454141083087675,0.8533793970746483,0.9421759925221984,2,True
2024-11-30,0.8533793970746483,0.8571518750949326,0.44206340500090313,0,True
2024-12-01,0.8571518750949326,0.857785056334696,0.07387036745305497,1,True
2024-12-02,0.857785056334696,0.8613169725499843,0.41174839654820605,6,True
2024-12-03,0.8613169725499843,0.8758786035298954,1.6906239449572702,5,True
2024-12-04,0.8758786035298954,0.9195494336991115,4.98594554008025,1,True
2024-12-05,0.9195494336991115,0.9280785099915805,0.9275277630435452,5,True
2024-12-06,0.9280785099915805,0.9282879722363772,0.02256945318113157,1,True
2024-12-07,0.9282879722363772,0.9296625337360154,0.14807490140442692,1,True
2024-12-08,0.9296625337360154,0.9289139432093676,-0.08052282408751443,0,True
2024-12-09,0.9289139432093676,0.9289139432093676,0.0,0,False
2024-12-10,0.9289139432093676,0.906220010989783,-2.4430607792555903,7,True
2024-12-11,0.906220010989783,0.9199658964638784,1.5168375568182402,3,True
2024-12-12,0.9199658964638784,0.9260368271487383,0.6599082322719774,0,True
2024-12-13,0.9260368271487383,0.9260368271487383,0.0,0,False
2024-12-14,0.9260368271487383,0.9260368271487383,0.0,0,False
2024-12-15,0.9260368271487383,0.920735754537873,-0.5724472780620604,2,True
2024-12-16,0.920735754537873,0.9209394794719766,0.02212631942437593,0,True
2024-12-17,0.9209394794719766,0.9209394794719766,0.0,0,False
2024-12-18,0.9209394794719766,0.9164964678711899,-0.48244338524113806,2,True
2024-12-19,0.9164964678711899,0.900385295914623,-1.757908788670992,5,True
2024-12-20,0.900385295914623,0.8650970648316457,-3.9192367137816375,10,True
2024-12-21,0.8650970648316457,0.8699622134461109,0.5623818195952257,1,True
2024-12-22,0.8699622134461109,0.8722069759441692,0.25802988490342127,0,True
2024-12-23,0.8722069759441692,0.8705035143152979,-0.19530474713610468,1,True
2024-12-24,0.8705035143152979,0.878856207654275,0.959524367405562,0,True
2024-12-25,0.878856207654275,0.878856207654275,0.0,0,False
2024-12-26,0.878856207654275,0.878856207654275,0.0,0,False
2024-12-27,0.878856207654275,0.878856207654275,0.0,0,False
2024-12-28,0.878856207654275,0.874471564339271,-0.49890337882539937,1,True
2024-12-29,0.874471564339271,0.9032142716988298,3.2868658663905315,3,True
2024-12-30,0.9032142716988298,0.9001992714534137,-0.3338078615327089,0,True
2024-12-31,0.9001992714534137,0.9001992714534137,0.0,0,False
