day,start_equity,end_equity,return_pct,entries,active
2021-09-02,1.0,1.0,0.0,0,False
2021-09-03,1.0,1.0,0.0,0,False
2021-09-04,1.0,1.0,0.0,0,False
2021-09-05,1.0,1.0,0.0,0,False
2021-09-06,1.0,1.0,0.0,0,False
2021-09-07,1.0,1.0,0.0,0,False
2021-09-08,1.0,1.0,0.0,0,False
2021-09-09,1.0,1.0,0.0,0,False
2021-09-10,1.0,1.0,0.0,0,False
2021-09-11,1.0,1.0,0.0,0,False
2021-09-12,1.0,1.0,0.0,0,False
2021-09-13,1.0,1.0,0.0,0,False
2021-09-14,1.0,1.0,0.0,0,False
2021-09-15,1.0,1.0,0.0,0,False
2021-09-16,1.0,1.0,0.0,0,False
2021-09-17,1.0,1.0,0.0,0,False
2021-09-18,1.0,1.0,0.0,0,False
2021-09-19,1.0,1.0,0.0,0,False
2021-09-20,1.0,1.0,0.0,0,False
2021-09-21,1.0,1.0,0.0,0,False
2021-09-22,1.0,1.0,0.0,0,False
2021-09-23,1.0,1.0,0.0,0,False
2021-09-24,1.0,1.0,0.0,0,False
2021-09-25,1.0,1.0,0.0,0,False
2021-09-26,1.0,1.0,0.0,0,False
2021-09-27,1.0,1.0,0.0,0,False
2021-09-28,1.0,1.0,0.0,0,False
2021-09-29,1.0,1.0,0.0,0,False
2021-09-30,1.0,1.0,0.0,0,False
2021-10-01,1.0,1.0,0.0,0,False
2021-10-02,1.0,1.0,0.0,0,False
2021-10-03,1.0,1.0,0.0,0,False
2021-10-04,1.0,1.0,0.0,0,False
2021-10-05,1.0,1.0,0.0,0,False
2021-10-06,1.0,1.001489821323389,0.1489821323388929,1,True
2021-10-07,1.001489821323389,1.0006266840307554,-0.08618532852315841,0,True
2021-10-08,1.0006266840307554,1.0006266840307554,0.0,0,False
2021-10-09,1.0006266840307554,0.9986866545947173,-0.19388144120074946,3,True
2021-10-10,0.9986866545947173,1.0011029499451742,0.24194729541444637,1,True
2021-10-11,1.0011029499451742,0.9973633736513651,-0.3735456272518145,0,True
2021-10-12,0.9973633736513651,0.9973633736513651,0.0,0,False
2021-10-13,0.9973633736513651,1.0110876924455516,1.3760600355657404,4,True
2021-10-14,1.0110876924455516,1.0262936448939912,1.5039202397628237,0,True
2021-10-15,1.0262936448939912,1.0294611137627871,0.3086318311094294,1,True
2021-10-16,1.0294611137627871,1.045563883582114,1.564194082131909,0,True
2021-10-17,1.045563883582114,1.045563883582114,0.0,0,False
2021-10-18,1.045563883582114,1.04459984527644,-0.09220271671694924,1,True
2021-10-19,1.04459984527644,1.0467340420441218,0.2043075898711333,0,True
2021-10-20,1.0467340420441218,1.0467340420441218,0.0,0,False
2021-10-21,1.0467340420441218,1.0467340420441218,0.0,0,False
2021-10-22,1.0467340420441218,1.0467340420441218,0.0,0,False
2021-10-23,1.0467340420441218,1.0467340420441218,0.0,0,False
2021-10-24,1.0467340420441218,1.0467340420441218,0.0,0,False
2021-10-25,1.0467340420441218,1.0501342105188158,0.32483595050123437,1,True
2021-10-26,1.0501342105188158,1.0535514142283322,0.32540637904063807,0,True
2021-10-27,1.0535514142283322,1.0513533480793025,-0.2086339707151108,6,True
2021-10-28,1.0513533480793025,1.0546915598918936,0.31751568763151994,0,True
2021-10-29,1.0546915598918936,1.0546915598918936,0.0,0,False
2021-10-30,1.0546915598918936,1.0546915598918936,0.0,0,False
2021-10-31,1.0546915598918936,1.0546915598918936,0.0,0,False
2021-11-01,1.0546915598918936,1.0560783460891707,0.13148737033785718,1,True
2021-11-02,1.0560783460891707,1.055607989807068,-0.04453801025695592,0,True
2021-11-03,1.055607989807068,1.0557668720806652,0.015051257202602919,1,True
2021-11-04,1.0557668720806652,1.0755948759377094,1.878066491892083,1,True
2021-11-05,1.0755948759377094,1.0684224521487489,-0.6668332054582948,0,True
2021-11-06,1.0684224521487489,1.0653014880314937,-0.292109559376863,1,True
2021-11-07,1.0653014880314937,1.0654824843289086,0.016990147807760536,0,True
2021-11-08,1.0654824843289086,1.0654824843289086,0.0,0,False
2021-11-09,1.0654824843289086,1.0654824843289086,0.0,0,False
2021-11-10,1.0654824843289086,1.0654824843289086,0.0,0,False
2021-11-11,1.0654824843289086,1.0529119992680844,-1.1797927460761248,10,True
2021-11-12,1.0529119992680844,1.0556955061613307,0.26436272881125156,0,True
2021-11-13,1.0556955061613307,1.05459701607129,-0.1040536862788044,1,True
2021-11-14,1.05459701607129,1.0549411345127935,0.032630325731930476,0,True
2021-11-15,1.0549411345127935,1.0549411345127935,0.0,0,False
2021-11-16,1.0549411345127935,1.0759611222172083,1.9925270725292599,5,True
2021-11-17,1.0759611222172083,1.0642408019150662,-1.0892884566303218,0,True
2021-11-18,1.0642408019150662,1.061450064486654,-0.2622280054843218,2,True
2021-11-19,1.061450064486654,1.065347374808339,0.367168503924864,1,True
2021-11-20,1.065347374808339,1.0658943081055088,0.051338493913122285,0,True
2021-11-21,1.0658943081055088,1.0658943081055088,0.0,0,False
2021-11-22,1.0658943081055088,1.0605734904914135,-0.4991881065161463,1,True
2021-11-23,1.0605734904914135,1.0605734904914135,0.0,0,False
2021-11-24,1.0605734904914135,1.0605734904914135,0.0,0,False
2021-11-25,1.0605734904914135,1.0632438281911747,0.2517824293839288,2,True
2021-11-26,1.0632438281911747,1.0438037700041058,-1.8283725399225625,8,True
2021-11-27,1.0438037700041058,1.057130112976963,1.2767096034539849,0,True
2021-11-28,1.057130112976963,1.051853597007582,-0.4991359062246348,1,True
2021-11-29,1.051853597007582,1.051853597007582,0.0,0,False
2021-11-30,1.051853597007582,1.051853597007582,0.0,0,False
2021-12-01,1.051853597007582,1.051853597007582,0.0,0,False
2021-12-02,1.051853597007582,1.049794206691887,-0.19578678264291494,2,True
2021-12-03,1.049794206691887,1.0438191277351478,-0.569166691781231,1,True
2021-12-04,1.0438191277351478,0.9704889206119461,-7.025183307601546,15,True
2021-12-05,0.9704889206119461,0.9676602216560766,-0.29147153520164837,1,True
2021-12-06,0.9676602216560766,0.955361612856575,-1.2709635597558666,7,True
2021-12-07,0.955361612856575,0.9731048654051714,1.8572289601989755,0,True
2021-12-08,0.9731048654051714,0.9766122243603816,0.3604297008370061,1,True
2021-12-09,0.9766122243603816,0.9742600001534956,-0.2408554949664521,0,True
2021-12-10,0.9742600001534956,0.9693927994999041,-0.49957923478585187,1,True
2021-12-11,0.9693927994999041,0.9691250405181014,-0.027621309126779625,1,True
2021-12-12,0.9691250405181014,0.9706765766092523,0.16009658468028043,0,True
2021-12-13,0.9706765766092523,0.9673062858440892,-0.3472104763191264,1,True
2021-12-14,0.9673062858440892,0.9658287757310966,-0.1527448063364245,0,True
2021-12-15,0.9658287757310966,0.9658287757310966,0.0,0,False
2021-12-16,0.9658287757310966,0.9658287757310966,0.0,0,False
2021-12-17,0.9658287757310966,0.966348531287432,0.053814461672252456,2,True
2021-12-18,0.966348531287432,0.9720618100427875,0.5912234116756787,0,True
2021-12-19,0.9720618100427875,0.9691037267780017,-0.30431020272831955,1,True
2021-12-20,0.9691037267780017,0.9672050453529771,-0.1959213830842632,0,True
2021-12-21,0.9672050453529771,0.9646589952877649,-0.263237880886269,1,True
2021-12-22,0.9646589952877649,0.9651059579423498,0.046333746615978555,0,True
2021-12-23,0.9651059579423498,0.9651059579423498,0.0,0,False
2021-12-24,0.9651059579423498,0.9651059579423498,0.0,0,False
2021-12-25,0.9651059579423498,0.9668313775959535,0.17878033384877146,1,True
2021-12-26,0.9668313775959535,0.966500624373641,-0.034210021517389055,0,True
2021-12-27,0.966500624373641,0.966500624373641,0.0,0,False
2021-12-28,0.966500624373641,0.966500624373641,0.0,0,False
2021-12-29,0.966500624373641,0.966500624373641,0.0,0,False
2021-12-30,0.966500624373641,0.966500624373641,0.0,0,False
2021-12-31,0.966500624373641,0.966500624373641,0.0,0,False
2022-01-01,0.966500624373641,0.966500624373641,0.0,0,False
2022-01-02,0.966500624373641,0.966500624373641,0.0,0,False
2022-01-03,0.966500624373641,0.966500624373641,0.0,0,False
2022-01-04,0.966500624373641,0.966500624373641,0.0,0,False
2022-01-05,0.966500624373641,0.9679184356714939,0.14669533180815542,1,True
2022-01-06,0.9679184356714939,0.9519223647607568,-1.6526259156991796,9,True
2022-01-07,0.9519223647607568,0.9632886597164241,1.194035918940095,4,True
2022-01-08,0.9632886597164241,0.9641585814627274,0.09030748338294536,0,True
2022-01-09,0.9641585814627274,0.9648222293079692,0.06883181439250041,1,True
2022-01-10,0.9648222293079692,0.9662929185164052,0.15243110738554222,0,True
2022-01-11,0.9662929185164052,0.9662929185164052,0.0,0,False
2022-01-12,0.9662929185164052,0.9662929185164052,0.0,0,False
2022-01-13,0.9662929185164052,0.9662929185164052,0.0,0,False
2022-01-14,0.9662929185164052,0.9662929185164052,0.0,0,False
2022-01-15,0.9662929185164052,0.9667589850403967,0.04823242673732686,1,True
2022-01-16,0.9667589850403967,0.965753786828531,-0.10397609201674429,0,True
2022-01-17,0.965753786828531,0.9679147778710465,0.22376210914090144,1,True
2022-01-18,0.9679147778710465,0.9739479525419892,0.623316722595435,0,True
2022-01-19,0.9739479525419892,0.9739479525419892,0.0,0,False
2022-01-20,0.9739479525419892,0.9739479525419892,0.0,0,False
2022-01-21,0.9739479525419892,0.9425209753591159,-3.226761461005112,7,True
2022-01-22,0.9425209753591159,0.9203149679079194,-2.356022627797294,8,True
2022-01-23,0.9203149679079194,0.9294280411965111,0.9902124388249112,0,True
2022-01-24,0.9294280411965111,0.9238853675944435,-0.5963531716702053,2,True
2022-01-25,0.9238853675944435,0.9391778801797243,1.655239180278234,0,True
2022-01-26,0.9391778801797243,0.9391778801797243,0.0,0,False
2022-01-27,0.9391778801797243,0.9527205728042231,1.4419731246126943,4,True
2022-01-28,0.9527205728042231,0.9401058723271588,-1.3240713843235663,0,True
2022-01-29,0.9401058723271588,0.9401058723271588,0.0,0,False
2022-01-30,0.9401058723271588,0.946855859343809,0.7180028564166996,1,True
2022-01-31,0.946855859343809,0.9456042272821921,-0.1321882363894744,0,True
2022-02-01,0.9456042272821921,0.9456042272821921,0.0,0,False
2022-02-02,0.9456042272821921,0.9456042272821921,0.0,0,False
2022-02-03,0.9456042272821921,0.9431823024258792,-0.2561245800765777,3,True
2022-02-04,0.9431823024258792,0.9492130951267775,0.6394090183188483,0,True
2022-02-05,0.9492130951267775,0.9492130951267775,0.0,0,False
2022-02-06,0.9492130951267775,0.9492130951267775,0.0,0,False
2022-02-07,0.9492130951267775,0.9492130951267775,0.0,0,False
2022-02-08,0.9492130951267775,0.9492130951267775,0.0,0,False
2022-02-09,0.9492130951267775,0.9517544743414617,0.26773537235542655,2,True
2022-02-10,0.9517544743414617,0.954186844737648,0.2555670040710112,5,True
2022-02-11,0.954186844737648,0.9515491431589221,-0.27643449427885436,0,True
2022-02-12,0.9515491431589221,0.9325779749382057,-1.993713972326916,4,True
2022-02-13,0.9325779749382057,0.9325779749382057,0.0,0,False
2022-02-14,0.9325779749382057,0.9325779749382057,0.0,0,False
2022-02-15,0.9325779749382057,0.9325779749382057,0.0,0,False
2022-02-16,0.9325779749382057,0.9325779749382057,0.0,0,False
2022-02-17,0.9325779749382057,0.9325779749382057,0.0,0,False
2022-02-18,0.9325779749382057,0.9325779749382057,0.0,0,False
2022-02-19,0.9325779749382057,0.9325779749382057,0.0,0,False
2022-02-20,0.9325779749382057,0.9325779749382057,0.0,0,False
2022-02-21,0.9325779749382057,0.9325779749382057,0.0,0,False
2022-02-22,0.9325779749382057,0.9311866141574527,-0.14919511484765557,2,True
2022-02-23,0.9311866141574527,0.930394093982455,-0.0851086305310389,0,True
2022-02-24,0.930394093982455,0.9118551296603744,-1.9925926488555512,4,True
2022-02-25,0.9118551296603744,0.9118551296603744,0.0,0,False
2022-02-26,0.9118551296603744,0.9118551296603744,0.0,0,False
2022-02-27,0.9118551296603744,0.9118551296603744,0.0,0,False
2022-02-28,0.9118551296603744,0.9141807028513802,0.25503757289515594,1,True
2022-03-01,0.9141807028513802,0.9169576373229462,0.3037620968047827,0,True
2022-03-02,0.9169576373229462,0.9169576373229462,0.0,0,False
2022-03-03,0.9169576373229462,0.9169576373229462,0.0,0,False
2022-03-04,0.9169576373229462,0.915283417788851,-0.18258417466079369,1,True
2022-03-05,0.915283417788851,0.9146553425139831,-0.0686208514937725,0,True
2022-03-06,0.9146553425139831,0.9087725056693324,-0.6431752564284299,3,True
2022-03-07,0.9087725056693324,0.9036644663813675,-0.5620811871066334,0,True
2022-03-08,0.9036644663813675,0.9047555642552453,0.12074148253797823,1,True
2022-03-09,0.9047555642552453,0.9132252892986528,0.9361340651581784,1,True
2022-03-10,0.9132252892986528,0.9109703245637384,-0.24692315919614405,3,True
2022-03-11,0.9109703245637384,0.9068379080379442,-0.4536280067930054,0,True
2022-03-12,0.9068379080379442,0.9068379080379442,0.0,0,False
2022-03-13,0.9068379080379442,0.9068379080379442,0.0,0,False
2022-03-14,0.9068379080379442,0.9023122206934161,-0.4990624349085704,1,True
2022-03-15,0.9023122206934161,0.9032974448391698,0.10918882878441227,1,True
2022-03-16,0.9032974448391698,0.9065802794688608,0.3634278662523416,1,True
2022-03-17,0.9065802794688608,0.9079029471762721,0.14589636873485468,1,True
2022-03-18,0.9079029471762721,0.9070137170212957,-0.09794330525547679,0,True
2022-03-19,0.9070137170212957,0.9070137170212957,0.0,0,False
2022-03-20,0.9070137170212957,0.9024830905416136,-0.49951024936658595,1,True
2022-03-21,0.9024830905416136,0.9025421467970259,0.006543752013898896,3,True
2022-03-22,0.9025421467970259,0.8988740324806621,-0.40642027958266436,0,True
2022-03-23,0.8988740324806621,0.8988740324806621,0.0,0,False
2022-03-24,0.8988740324806621,0.8988740324806621,0.0,0,False
2022-03-25,0.8988740324806621,0.8988740324806621,0.0,0,False
2022-03-26,0.8988740324806621,0.8988740324806621,0.0,0,False
2022-03-27,0.8988740324806621,0.8988740324806621,0.0,0,False
2022-03-28,0.8988740324806621,0.8988740324806621,0.0,0,False
2022-03-29,0.8988740324806621,0.8988740324806621,0.0,0,False
2022-03-30,0.8988740324806621,0.9070211021905777,0.9063638970003174,4,True
2022-03-31,0.9070211021905777,0.9127185745233279,0.6281521255668832,5,True
2022-04-01,0.9127185745233279,0.8917998946793902,-2.2919090755726734,0,True
2022-04-02,0.8917998946793902,0.8917998946793902,0.0,0,False
2022-04-03,0.8917998946793902,0.887348357657127,-0.4991632146204239,1,True
2022-04-04,0.887348357657127,0.887348357657127,0.0,0,False
2022-04-05,0.887348357657127,0.887370998981099,0.002551571068631908,3,True
2022-04-06,0.887370998981099,0.8621739943166673,-2.839511849425269,7,True
2022-04-07,0.8621739943166673,0.8566280537870776,-0.6432507320039527,0,True
2022-04-08,0.8566280537870776,0.8566280537870776,0.0,0,False
2022-04-09,0.8566280537870776,0.8566280537870776,0.0,0,False
2022-04-10,0.8566280537870776,0.8566280537870776,0.0,0,False
2022-04-11,0.8566280537870776,0.8494018059335741,-0.8435689003596036,6,True
2022-04-12,0.8494018059335741,0.8541821649131384,0.5627912427511594,0,True
2022-04-13,0.8541821649131384,0.8541821649131384,0.0,0,False
2022-04-14,0.8541821649131384,0.8541821649131384,0.0,0,False
2022-04-15,0.8541821649131384,0.8541821649131384,0.0,0,False
2022-04-16,0.8541821649131384,0.8541821649131384,0.0,0,False
2022-04-17,0.8541821649131384,0.8581079000662309,0.4595899228932998,1,True
2022-04-18,0.8581079000662309,0.8602749073168825,0.25253318964717497,6,True
2022-04-19,0.8602749073168825,0.8770146640804303,1.9458613312060447,0,True
2022-04-20,0.8770146640804303,0.8770146640804303,0.0,0,False
2022-04-21,0.8770146640804303,0.879459559675441,0.27877476798796597,2,True
2022-04-22,0.879459559675441,0.8749205267696442,-0.5161161597324493,0,True
2022-04-23,0.8749205267696442,0.8749205267696442,0.0,0,False
2022-04-24,0.8749205267696442,0.8749205267696442,0.0,0,False
2022-04-25,0.8749205267696442,0.8698536943302144,-0.5791191639013649,3,True
2022-04-26,0.8698536943302144,0.8732754834955483,0.3933752523714418,2,True
2022-04-27,0.8732754834955483,0.8720279518691072,-0.1428565956583916,0,True
2022-04-28,0.8720279518691072,0.8720279518691072,0.0,0,False
2022-04-29,0.8720279518691072,0.8720279518691072,0.0,0,False
2022-04-30,0.8720279518691072,0.8695337423345948,-0.28602403502849816,1,True
2022-05-01,0.8695337423345948,0.8750158247331051,0.6304622962406858,6,True
2022-05-02,0.8750158247331051,0.8832747497131402,0.9438600704797739,0,True
2022-05-03,0.8832747497131402,0.8844750921209493,0.13589683257659857,3,True
2022-05-04,0.8844750921209493,0.8774442463832314,-0.7949173244503838,1,True
2022-05-05,0.8774442463832314,0.8774442463832314,0.0,0,False
2022-05-06,0.8774442463832314,0.8661725139025427,-1.284609538115955,4,True
2022-05-07,0.8661725139025427,0.8623320373907007,-0.4433847126525281,2,True
2022-05-08,0.8623320373907007,0.8513935769224742,-1.2684743224112172,3,True
2022-05-09,0.8513935769224742,0.8422607279126103,-1.0726941402208312,3,True
2022-05-10,0.8422607279126103,0.824751515589103,-2.078835180514793,7,True
2022-05-11,0.824751515589103,0.8039003833379972,-2.528171437940585,8,True
2022-05-12,0.8039003833379972,0.7952440759955112,-1.0767885576248637,0,True
2022-05-13,0.7952440759955112,0.7952440759955112,0.0,0,False
2022-05-14,0.7952440759955112,0.7854710509076743,-1.2289340320583597,4,True
2022-05-15,0.7854710509076743,0.8089878322750593,2.993971749844815,1,True
2022-05-16,0.8089878322750593,0.8066953562201444,-0.28337583872775074,6,True
2022-05-17,0.8066953562201444,0.8148958232368214,1.0165506660533064,4,True
2022-05-18,0.8148958232368214,0.8002367327056146,-1.7988913568092624,0,True
2022-05-19,0.8002367327056146,0.815354994767982,1.88922370649649,6,True
2022-05-20,0.815354994767982,0.8241790660387323,1.082236734596953,0,True
2022-05-21,0.8241790660387323,0.8241790660387323,0.0,0,False
2022-05-22,0.8241790660387323,0.8241790660387323,0.0,0,False
2022-05-23,0.8241790660387323,0.8243954463990353,0.026254047114182555,1,True
2022-05-24,0.8243954463990353,0.8116936212597841,-1.5407442138033245,6,True
2022-05-25,0.8116936212597841,0.8101860503228961,-0.18573152448186914,1,True
2022-05-26,0.8101860503228961,0.7934844420080902,-2.061453453580153,8,True
2022-05-27,0.7934844420080902,0.7853032559805289,-1.0310455497850701,2,True
2022-05-28,0.7853032559805289,0.786283256500542,0.12479262151912085,0,True
2022-05-29,0.786283256500542,0.7823622477137168,-0.49867636814195926,1,True
2022-05-30,0.7823622477137168,0.7823622477137168,0.0,0,False
2022-05-31,0.7823622477137168,0.7804491831252731,-0.24452414390317978,1,True
2022-06-01,0.7804491831252731,0.7845718488721646,0.5282426884454461,1,True
2022-06-02,0.7845718488721646,0.7855979402137684,0.13078360421405755,1,True
2022-06-03,0.7855979402137684,0.786897811793347,0.16546270210751057,0,True
2022-06-04,0.786897811793347,0.786897811793347,0.0,0,False
2022-06-05,0.786897811793347,0.786897811793347,0.0,0,False
2022-06-06,0.786897811793347,0.7885805688770422,0.21384696443116358,1,True
2022-06-07,0.7885805688770422,0.7856998274619497,-0.36530717707067284,4,True
2022-06-08,0.7856998274619497,0.7973619224667908,1.484293950084381,3,True
2022-06-09,0.7973619224667908,0.7960165532113472,-0.16872755238692694,2,True
2022-06-10,0.7960165532113472,0.7931213104828259,-0.3637163972082247,4,True
2022-06-11,0.7931213104828259,0.7689238175434109,-3.0509195276425483,3,True
2022-06-12,0.7689238175434109,0.7584436392717838,-1.3629670498580215,7,True
2022-06-13,0.7584436392717838,0.7304432782220756,-3.6918182973480596,4,True
2022-06-14,0.7304432782220756,0.7397113530206414,1.2688288159930394,4,True
2022-06-15,0.7397113530206414,0.7397591342189146,0.006459438276573692,4,True
2022-06-16,0.7397591342189146,0.7482897528803444,1.1531616531422761,1,True
2022-06-17,0.7482897528803444,0.7498981555039532,0.21494382589333227,0,True
2022-06-18,0.7498981555039532,0.7451715596934243,-0.6302983646296001,5,True
2022-06-19,0.7451715596934243,0.7519400222387226,0.9083092956584382,1,True
2022-06-20,0.7519400222387226,0.7519400222387226,0.0,0,False
2022-06-21,0.7519400222387226,0.7519400222387226,0.0,0,False
2022-06-22,0.7519400222387226,0.7519400222387226,0.0,0,False
2022-06-23,0.7519400222387226,0.7519400222387226,0.0,0,False
2022-06-24,0.7519400222387226,0.7481880518265122,-0.49897203250863775,1,True
2022-06-25,0.7481880518265122,0.7471490818814926,-0.13886481379689064,3,True
2022-06-26,0.7471490818814926,0.7509289108882835,0.505900241123558,0,True
2022-06-27,0.7509289108882835,0.7479190837922239,-0.40081385233912137,4,True
2022-06-28,0.7479190837922239,0.7447167033516117,-0.42817204561421685,1,True
2022-06-29,0.7447167033516117,0.7422559117435363,-0.3304332502548246,2,True
2022-06-30,0.7422559117435363,0.742532895321016,0.03731645286988439,1,True
2022-07-01,0.742532895321016,0.7423311456919788,-0.027170463464787353,1,True
2022-07-02,0.7423311456919788,0.7410574571588695,-0.17157956263871288,1,True
2022-07-03,0.7410574571588695,0.7420920520802852,0.13961062147356262,1,True
2022-07-04,0.7420920520802852,0.7449063849831706,0.37924309996262284,0,True
2022-07-05,0.7449063849831706,0.7449063849831706,0.0,0,False
2022-07-06,0.7449063849831706,0.7449063849831706,0.0,0,False
2022-07-07,0.7449063849831706,0.7449063849831706,0.0,0,False
2022-07-08,0.7449063849831706,0.7449063849831706,0.0,0,False
2022-07-09,0.7449063849831706,0.7449063849831706,0.0,0,False
2022-07-10,0.7449063849831706,0.7449063849831706,0.0,0,False
2022-07-11,0.7449063849831706,0.7411867092530462,-0.4993480798541561,1,True
2022-07-12,0.7411867092530462,0.7423488764449054,0.15679816938845015,2,True
2022-07-13,0.7423488764449054,0.7452886191867572,0.39600554875627303,4,True
2022-07-14,0.7452886191867572,0.7513203309090755,0.8093122002721609,0,True
2022-07-15,0.7513203309090755,0.7513203309090755,0.0,0,False
2022-07-16,0.7513203309090755,0.7513203309090755,0.0,0,False
2022-07-17,0.7513203309090755,0.7513203309090755,0.0,0,False
2022-07-18,0.7513203309090755,0.7513203309090755,0.0,0,False
2022-07-19,0.7513203309090755,0.7513203309090755,0.0,0,False
2022-07-20,0.7513203309090755,0.7514095272042095,0.011871939499652484,1,True
2022-07-21,0.7514095272042095,0.7459608117987685,-0.7251325952326138,5,True
2022-07-22,0.7459608117987685,0.7500156965332598,0.5435787872976272,0,True
2022-07-23,0.7500156965332598,0.7487926673930101,-0.163067139248263,1,True
2022-07-24,0.7487926673930101,0.7525929325960912,0.5075190194252288,1,True
2022-07-25,0.7525929325960912,0.7532798352564456,0.0912714736750031,1,True
2022-07-26,0.7532798352564456,0.7507949120929723,-0.3298804836090241,1,True
2022-07-27,0.7507949120929723,0.7522104640591845,0.18854043140303922,0,True
2022-07-28,0.7522104640591845,0.7522104640591845,0.0,0,False
2022-07-29,0.7522104640591845,0.7522104640591845,0.0,0,False
2022-07-30,0.7522104640591845,0.7522104640591845,0.0,0,False
2022-07-31,0.7522104640591845,0.7514839393093923,-0.09658530218678019,1,True
2022-08-01,0.7514839393093923,0.7514420173658456,-0.0055785548238374005,1,True
2022-08-02,0.7514420173658456,0.750310652862073,-0.1505591220116398,1,True
2022-08-03,0.750310652862073,0.7527768861797558,0.32869496231664463,1,True
2022-08-04,0.7527768861797558,0.750763532265144,-0.2674569253619419,0,True
2022-08-05,0.750763532265144,0.7524030054291906,0.21837410763680953,1,True
2022-08-06,0.7524030054291906,0.7522886311151447,-0.015201203772530203,0,True
2022-08-07,0.7522886311151447,0.7531348567394743,0.11248682876880967,2,True
2022-08-08,0.7531348567394743,0.7536536894220008,0.0688897450282333,0,True
2022-08-09,0.7536536894220008,0.7530123212590312,-0.08510117736723055,5,True
2022-08-10,0.7530123212590312,0.7776669328830141,3.2741312363602004,1,True
2022-08-11,0.7776669328830141,0.7799149130664362,0.2890672199585831,1,True
2022-08-12,0.7799149130664362,0.7786047597000895,-0.16798670526706472,1,True
2022-08-13,0.7786047597000895,0.7786998804181046,0.01221681691898624,0,True
2022-08-14,0.7786998804181046,0.7786998804181046,0.0,0,False
2022-08-15,0.7786998804181046,0.7786998804181046,0.0,0,False
2022-08-16,0.7786998804181046,0.7782003466930423,-0.06414971128466673,1,True
2022-08-17,0.7782003466930423,0.775689444421212,-0.3226549927021094,1,True
2022-08-18,0.775689444421212,0.7719539104091735,-0.48157597591467205,1,True
2022-08-19,0.7719539104091735,0.755248952900882,-2.1639837926900385,10,True
2022-08-20,0.755248952900882,0.7592664972713495,0.5319496776574617,1,True
2022-08-21,0.7592664972713495,0.7632026685431442,0.5184176156778353,0,True
2022-08-22,0.7632026685431442,0.7632026685431442,0.0,0,False
2022-08-23,0.7632026685431442,0.7632026685431442,0.0,0,False
2022-08-24,0.7632026685431442,0.7632026685431442,0.0,0,False
2022-08-25,0.7632026685431442,0.7618365936907394,-0.17899241036624103,1,True
2022-08-26,0.7618365936907394,0.7606404226549491,-0.1570114963886704,0,True
2022-08-27,0.7606404226549491,0.7537121704941281,-0.9108445928548758,3,True
2022-08-28,0.7537121704941281,0.7522960223806239,-0.18788977662066442,0,True
2022-08-29,0.7522960223806239,0.7523333558174677,0.004962599260549538,1,True
2022-08-30,0.7523333558174677,0.7500433550751293,-0.30438644314130237,1,True
2022-08-31,0.7500433550751293,0.7500433550751293,0.0,0,False
2022-09-01,0.7500433550751293,0.7500433550751293,0.0,0,False
2022-09-02,0.7500433550751293,0.7500433550751293,0.0,0,False
2022-09-03,0.7500433550751293,0.7500433550751293,0.0,0,False
2022-09-04,0.7500433550751293,0.7500433550751293,0.0,0,False
2022-09-05,0.7500433550751293,0.7500433550751293,0.0,0,False
2022-09-06,0.7500433550751293,0.7484883444881911,-0.2073227602666261,1,True
2022-09-07,0.7484883444881911,0.7405982733900955,-1.0541341299697526,5,True
2022-09-08,0.7405982733900955,0.7411447461568513,0.07378801522912593,0,True
2022-09-09,0.7411447461568513,0.7411447461568513,0.0,0,False
2022-09-10,0.7411447461568513,0.7411447461568513,0.0,0,False
2022-09-11,0.7411447461568513,0.7411447461568513,0.0,0,False
2022-09-12,0.7411447461568513,0.7411447461568513,0.0,0,False
2022-09-13,0.7411447461568513,0.736473483367817,-0.6302767189886649,4,True
2022-09-14,0.736473483367817,0.7351799066181082,-0.17564471483664246,0,True
2022-09-15,0.7351799066181082,0.7364032709665206,0.1664033983246327,1,True
2022-09-16,0.7364032709665206,0.7294448485180101,-0.9449200896918475,1,True
2022-09-17,0.7294448485180101,0.7288877249296175,-0.07637638260444835,1,True
2022-09-18,0.7288877249296175,0.7299132539312926,0.1406978011289972,0,True
2022-09-19,0.7299132539312926,0.7324422552908615,0.34647971467127725,8,True
2022-09-20,0.7324422552908615,0.7344845248232937,0.27883010813203324,0,True
2022-09-21,0.7344845248232937,0.7344845248232937,0.0,0,False
2022-09-22,0.7344845248232937,0.7353375515549841,0.11613951048126125,1,True
2022-09-23,0.7353375515549841,0.7356673465729804,0.04484947318394994,0,True
2022-09-24,0.7356673465729804,0.7356673465729804,0.0,0,False
2022-09-25,0.7356673465729804,0.7356673465729804,0.0,0,False
2022-09-26,0.7356673465729804,0.7356673465729804,0.0,0,False
2022-09-27,0.7356673465729804,0.7356673465729804,0.0,0,False
2022-09-28,0.7356673465729804,0.7356673465729804,0.0,0,False
2022-09-29,0.7356673465729804,0.7356673465729804,0.0,0,False
2022-09-30,0.7356673465729804,0.7356673465729804,0.0,0,False
2022-10-01,0.7356673465729804,0.7356673465729804,0.0,0,False
2022-10-02,0.7356673465729804,0.7356673465729804,0.0,0,False
2022-10-03,0.7356673465729804,0.7356673465729804,0.0,0,False
2022-10-04,0.7356673465729804,0.7356673465729804,0.0,0,False
2022-10-05,0.7356673465729804,0.7356673465729804,0.0,0,False
2022-10-06,0.7356673465729804,0.7356673465729804,0.0,0,False
2022-10-07,0.7356673465729804,0.7356673465729804,0.0,0,False
2022-10-08,0.7356673465729804,0.7341592760127368,-0.2049935432459793,1,True
2022-10-09,0.7341592760127368,0.7332425876504794,-0.12486232786377283,0,True
2022-10-10,0.7332425876504794,0.7332425876504794,0.0,0,False
2022-10-11,0.7332425876504794,0.7517382910504161,2.522453511490963,5,True
2022-10-12,0.7517382910504161,0.7476706500780285,-0.5410980152020572,2,True
2022-10-13,0.7476706500780285,0.7474060297852025,-0.0353926281308925,1,True
2022-10-14,0.7474060297852025,0.7541531754470812,0.902741668249285,0,True
2022-10-15,0.7541531754470812,0.7541531754470812,0.0,0,False
2022-10-16,0.7541531754470812,0.7541531754470812,0.0,0,False
2022-10-17,0.7541531754470812,0.7541531754470812,0.0,0,False
2022-10-18,0.7541531754470812,0.7541531754470812,0.0,0,False
2022-10-19,0.7541531754470812,0.7541531754470812,0.0,0,False
2022-10-20,0.7541531754470812,0.7576449149753056,0.46300136920520707,2,True
2022-10-21,0.7576449149753056,0.7525163157311733,-0.6769133063210142,0,True
2022-10-22,0.7525163157311733,0.7525163157311733,0.0,0,False
2022-10-23,0.7525163157311733,0.7525163157311733,0.0,0,False
2022-10-24,0.7525163157311733,0.7525163157311733,0.0,0,False
2022-10-25,0.7525163157311733,0.7520609422611055,-0.060513434798459276,1,True
2022-10-26,0.7520609422611055,0.7532235191819544,0.1545854671502367,0,True
2022-10-27,0.7532235191819544,0.7532235191819544,0.0,0,False
2022-10-28,0.7532235191819544,0.7532235191819544,0.0,0,False
2022-10-29,0.7532235191819544,0.7532235191819544,0.0,0,False
2022-10-30,0.7532235191819544,0.7532235191819544,0.0,0,False
2022-10-31,0.7532235191819544,0.7532235191819544,0.0,0,False
2022-11-01,0.7532235191819544,0.7532235191819544,0.0,0,False
2022-11-02,0.7532235191819544,0.7565634349080801,0.443416282294673,2,True
2022-11-03,0.7565634349080801,0.7568337113390533,0.03572422595417013,0,True
2022-11-04,0.7568337113390533,0.7571870517295896,0.04668666118361475,2,True
2022-11-05,0.7571870517295896,0.7557757181615575,-0.18639166700067378,0,True
2022-11-06,0.7557757181615575,0.7560860282056431,0.041058482910827365,1,True
2022-11-07,0.7560860282056431,0.7582433244548125,0.2853241785579774,3,True
2022-11-08,0.7582433244548125,0.7347496145756421,-3.0984393955677203,6,True
2022-11-09,0.7347496145756421,0.7091037446499358,-3.4904230525548807,6,True
2022-11-10,0.7091037446499358,0.7091037446499358,0.0,0,False
2022-11-11,0.7091037446499358,0.7033063438499897,-0.8175673649570281,7,True
2022-11-12,0.7033063438499897,0.7009509855118533,-0.3348979230363369,5,True
2022-11-13,0.7009509855118533,0.7041547696441669,0.45706250487316247,1,True
2022-11-14,0.7041547696441669,0.7018244332820588,-0.3309409326710533,2,True
2022-11-15,0.7018244332820588,0.7025132075087306,0.09814053116543597,0,True
2022-11-16,0.7025132075087306,0.7021807551091215,-0.047323295285517375,1,True
2022-11-17,0.7021807551091215,0.7032942839992194,0.15858151651064745,1,True
2022-11-18,0.7032942839992194,0.7048977486546558,0.22799341497821146,0,True
2022-11-19,0.7048977486546558,0.7048437597966912,-0.0076591048939533835,3,True
2022-11-20,0.7048437597966912,0.6950471561939475,-1.3898971887854272,2,True
2022-11-21,0.6950471561939475,0.6811953616463483,-1.9929287421951547,4,True
2022-11-22,0.6811953616463483,0.6784047173073636,-0.40966872296959167,0,True
2022-11-23,0.6784047173073636,0.6849456722847425,0.9641670835280003,1,True
2022-11-24,0.6849456722847425,0.6823158649798972,-0.38394392595739735,1,True
2022-11-25,0.6823158649798972,0.6811369770000855,-0.1727774540089877,1,True
2022-11-26,0.6811369770000855,0.6820786941513295,0.13825664778788216,0,True
2022-11-27,0.6820786941513295,0.6820786941513295,0.0,0,False
2022-11-28,0.6820786941513295,0.682894826758904,0.119653731244318,4,True
2022-11-29,0.682894826758904,0.6855865927648627,0.3941699219972339,0,True
2022-11-30,0.6855865927648627,0.6855865927648627,0.0,0,False
2022-12-01,0.6855865927648627,0.6855865927648627,0.0,0,False
2022-12-02,0.6855865927648627,0.6855865927648627,0.0,0,False
2022-12-03,0.6855865927648627,0.6855865927648627,0.0,0,False
2022-12-04,0.6855865927648627,0.6855865927648627,0.0,0,False
2022-12-05,0.6855865927648627,0.6855865927648627,0.0,0,False
2022-12-06,0.6855865927648627,0.6864869404784012,0.1313251634498247,2,True
2022-12-07,0.6864869404784012,0.683077906029341,-0.4965913039342684,1,True
2022-12-08,0.683077906029341,0.6811735929516264,-0.27878417101561137,1,True
2022-12-09,0.6811735929516264,0.6811735929516264,0.0,0,False
2022-12-10,0.6811735929516264,0.6811735929516264,0.0,0,False
2022-12-11,0.6811735929516264,0.6811735929516264,0.0,0,False
2022-12-12,0.6811735929516264,0.6808165334108686,-0.05241828873762122,1,True
2022-12-13,0.6808165334108686,0.6807829822241592,-0.004928080483190822,0,True
2022-12-14,0.6807829822241592,0.6807829822241592,0.0,0,False
2022-12-15,0.6807829822241592,0.6807829822241592,0.0,0,False
2022-12-16,0.6807829822241592,0.681942070516067,0.17025811781032907,5,True
2022-12-17,0.681942070516067,0.6705651692515785,-1.6683090479927332,5,True
2022-12-18,0.6705651692515785,0.6710794362123064,0.07669157067937693,0,True
2022-12-19,0.6710794362123064,0.6710794362123064,0.0,0,False
2022-12-20,0.6710794362123064,0.6710794362123064,0.0,0,False
2022-12-21,0.6710794362123064,0.6710794362123064,0.0,0,False
2022-12-22,0.6710794362123064,0.6710794362123064,0.0,0,False
2022-12-23,0.6710794362123064,0.6710794362123064,0.0,0,False
2022-12-24,0.6710794362123064,0.6710794362123064,0.0,0,False
2022-12-25,0.6710794362123064,0.6710794362123064,0.0,0,False
2022-12-26,0.6710794362123064,0.6710794362123064,0.0,0,False
2022-12-27,0.6710794362123064,0.6710794362123064,0.0,0,False
2022-12-28,0.6710794362123064,0.672432803703408,0.20167023724348976,4,True
2022-12-29,0.672432803703408,0.6676942055547597,-0.7046946732150117,0,True
2022-12-30,0.6676942055547597,0.6676942055547597,0.0,0,False
2022-12-31,0.6676942055547597,0.6676942055547597,0.0,0,False
2023-01-01,0.6676942055547597,0.6676942055547597,0.0,0,False
2023-01-02,0.6676942055547597,0.6676942055547597,0.0,0,False
2023-01-03,0.6676942055547597,0.6676942055547597,0.0,0,False
2023-01-04,0.6676942055547597,0.6676942055547597,0.0,0,False
2023-01-05,0.6676942055547597,0.6676942055547597,0.0,0,False
2023-01-06,0.6676942055547597,0.6671393541887013,-0.08309962276779048,1,True
2023-01-07,0.6671393541887013,0.6683000131885286,0.17397549590500994,0,True
2023-01-08,0.6683000131885286,0.6683000131885286,0.0,0,False
2023-01-09,0.6683000131885286,0.6683000131885286,0.0,0,False
2023-01-10,0.6683000131885286,0.6682662215854627,-0.005056352296739508,1,True
2023-01-11,0.6682662215854627,0.6651436762080656,-0.4672606929000289,1,True
2023-01-12,0.6651436762080656,0.6657488022209825,0.09097673699112185,0,True
2023-01-13,0.6657488022209825,0.6657488022209825,0.0,0,False
2023-01-14,0.6657488022209825,0.6676059702144969,0.2789592692196585,4,True
2023-01-15,0.6676059702144969,0.6694064599026567,0.2696934671781559,1,True
2023-01-16,0.6694064599026567,0.6694051399869633,-0.0001971770176245613,0,True
2023-01-17,0.6694051399869633,0.6694051399869633,0.0,0,False
2023-01-18,0.6694051399869633,0.6694051399869633,0.0,0,False
2023-01-19,0.6694051399869633,0.6627716119631359,-0.9909586329075015,5,True
2023-01-20,0.6627716119631359,0.6627680201423206,-0.0005419394479955209,0,True
2023-01-21,0.6627680201423206,0.6634277578166232,0.09954277428185776,1,True
2023-01-22,0.6634277578166232,0.6633464508361417,-0.012255589176590753,0,True
2023-01-23,0.6633464508361417,0.6633464508361417,0.0,0,False
2023-01-24,0.6633464508361417,0.6633464508361417,0.0,0,False
2023-01-25,0.6633464508361417,0.6625168613618942,-0.12506126673351714,6,True
2023-01-26,0.6625168613618942,0.677716163657522,2.2941759194450517,0,True
2023-01-27,0.677716163657522,0.677716163657522,0.0,0,False
2023-01-28,0.677716163657522,0.677716163657522,0.0,0,False
2023-01-29,0.677716163657522,0.677716163657522,0.0,0,False
2023-01-30,0.677716163657522,0.6804089784114354,0.3973366577802784,4,True
2023-01-31,0.6804089784114354,0.6843160570187001,0.5742250221898448,2,True
2023-02-01,0.6843160570187001,0.69292981042011,1.258739045074675,0,True
2023-02-02,0.69292981042011,0.69292981042011,0.0,0,False
2023-02-03,0.69292981042011,0.6933301382319803,0.057773212502953974,1,True
2023-02-04,0.6933301382319803,0.6947306916492216,0.20200382761563773,0,True
2023-02-05,0.6947306916492216,0.6968306490310547,0.30226926880803084,5,True
2023-02-06,0.6968306490310547,0.6896336474208451,-1.032819325644918,0,True
2023-02-07,0.6896336474208451,0.6896336474208451,0.0,0,False
2023-02-08,0.6896336474208451,0.6880118555773174,-0.23516715717004644,1,True
2023-02-09,0.6880118555773174,0.6925457669313962,0.6589873876918118,4,True
2023-02-10,0.6925457669313962,0.6624794677689794,-4.3414169283912845,3,True
2023-02-11,0.6624794677689794,0.6624794677689794,0.0,0,False
2023-02-12,0.6624794677689794,0.6624794677689794,0.0,0,False
2023-02-13,0.6624794677689794,0.6627837636068951,0.04593287078624719,2,True
2023-02-14,0.6627837636068951,0.6624791077483553,-0.045966101656114144,0,True
2023-02-15,0.6624791077483553,0.6624791077483553,0.0,0,False
2023-02-16,0.6624791077483553,0.6624791077483553,0.0,0,False
2023-02-17,0.6624791077483553,0.6667515120913171,0.6449115591709687,1,True
2023-02-18,0.6667515120913171,0.6660002197205119,-0.11267951510881558,0,True
2023-02-19,0.6660002197205119,0.6660002197205119,0.0,0,False
2023-02-20,0.6660002197205119,0.6707176959750092,0.7083295342570572,1,True
2023-02-21,0.6707176959750092,0.667200820958553,-0.5243450467403821,1,True
2023-02-22,0.667200820958553,0.667200820958553,0.0,0,False
2023-02-23,0.667200820958553,0.6717012491677742,0.6745237817237015,1,True
2023-02-24,0.6717012491677742,0.6711036004011054,-0.0889753841323504,0,True
2023-02-25,0.6711036004011054,0.6708066840345555,-0.04424300009304716,1,True
2023-02-26,0.6708066840345555,0.6713906501530936,0.08705430825850513,0,True
2023-02-27,0.6713906501530936,0.6713906501530936,0.0,0,False
2023-02-28,0.6713906501530936,0.6713906501530936,0.0,0,False
2023-03-01,0.6713906501530936,0.6713906501530936,0.0,0,False
2023-03-02,0.6713906501530936,0.6690634534458835,-0.34662334166845055,1,True
2023-03-03,0.6690634534458835,0.6620984720117946,-1.0410046159623598,9,True
2023-03-04,0.6620984720117946,0.6638233745913311,0.26052054980512107,0,True
2023-03-05,0.6638233745913311,0.6689275657094392,0.7689080128054249,3,True
2023-03-06,0.6689275657094392,0.6677582089662835,-0.17481066756691588,0,True
2023-03-07,0.6677582089662835,0.6677582089662835,0.0,0,False
2023-03-08,0.6677582089662835,0.6677582089662835,0.0,0,False
2023-03-09,0.6677582089662835,0.6677582089662835,0.0,0,False
2023-03-10,0.6677582089662835,0.6524785111999787,-2.2882081509650543,7,True
2023-03-11,0.6524785111999787,0.6493586537228496,-0.47815482404029996,5,True
2023-03-12,0.6493586537228496,0.6550256734151331,0.8727102749449323,0,True
2023-03-13,0.6550256734151331,0.6550256734151331,0.0,0,False
2023-03-14,0.6550256734151331,0.6550256734151331,0.0,0,False
2023-03-15,0.6550256734151331,0.6517523163230668,-0.4997295869335616,1,True
2023-03-16,0.6517523163230668,0.652299448706494,0.08394790010319841,1,True
2023-03-17,0.652299448706494,0.6523718508116273,0.011099519595925145,1,True
2023-03-18,0.6523718508116273,0.6624866428115211,1.5504642003344893,1,True
2023-03-19,0.6624866428115211,0.659898657610084,-0.39064715183599885,1,True
2023-03-20,0.659898657610084,0.6598850465747222,-0.0020625947946495415,0,True
2023-03-21,0.6598850465747222,0.6598850465747222,0.0,0,False
2023-03-22,0.6598850465747222,0.6598850465747222,0.0,0,False
2023-03-23,0.6598850465747222,0.6713333025694298,1.734886410009162,6,True
2023-03-24,0.6713333025694298,0.6693182344164367,-0.30015912293949176,1,True
2023-03-25,0.6693182344164367,0.6666029278306156,-0.4056824461369235,1,True
2023-03-26,0.6666029278306156,0.6659753779613092,-0.09414148109859743,0,True
2023-03-27,0.6659753779613092,0.662652415045931,-0.4989618273201879,1,True
2023-03-28,0.662652415045931,0.6731275676869325,1.580791438038509,4,True
2023-03-29,0.6731275676869325,0.6733651223815403,0.03529118491227834,0,True
2023-03-30,0.6733651223815403,0.6733651223815403,0.0,0,False
2023-03-31,0.6733651223815403,0.6733651223815403,0.0,0,False
2023-04-01,0.6733651223815403,0.6733651223815403,0.0,0,False
2023-04-02,0.6733651223815403,0.6733651223815403,0.0,0,False
2023-04-03,0.6733651223815403,0.6733651223815403,0.0,0,False
2023-04-04,0.6733651223815403,0.6733651223815403,0.0,0,False
2023-04-05,0.6733651223815403,0.6733651223815403,0.0,0,False
2023-04-06,0.6733651223815403,0.6733651223815403,0.0,0,False
2023-04-07,0.6733651223815403,0.6716182342870226,-0.2594265780115568,1,True
2023-04-08,0.6716182342870226,0.6712044229218275,-0.06161407538829433,0,True
2023-04-09,0.6712044229218275,0.6712044229218275,0.0,0,False
2023-04-10,0.6712044229218275,0.6712044229218275,0.0,0,False
2023-04-11,0.6712044229218275,0.6712044229218275,0.0,0,False
2023-04-12,0.6712044229218275,0.6738457738995169,0.3935240721733235,1,True
2023-04-13,0.6738457738995169,0.6740907430856096,0.03635389514651255,0,True
2023-04-14,0.6740907430856096,0.6779250031955936,0.5688047416929187,1,True
2023-04-15,0.6779250031955936,0.6775186811081212,-0.0599361412482291,0,True
2023-04-16,0.6775186811081212,0.6775186811081212,0.0,0,False
2023-04-17,0.6775186811081212,0.6775186811081212,0.0,0,False
2023-04-18,0.6775186811081212,0.6775186811081212,0.0,0,False
2023-04-19,0.6775186811081212,0.6727827401373618,-0.6990126033150079,7,True
2023-04-20,0.6727827401373618,0.6662831746904884,-0.9660719663448059,0,True
2023-04-21,0.6662831746904884,0.6662831746904884,0.0,0,False
2023-04-22,0.6662831746904884,0.6662831746904884,0.0,0,False
2023-04-23,0.6662831746904884,0.6662831746904884,0.0,0,False
2023-04-24,0.6662831746904884,0.6662831746904884,0.0,0,False
2023-04-25,0.6662831746904884,0.6662831746904884,0.0,0,False
2023-04-26,0.6662831746904884,0.6662831746904884,0.0,0,False
2023-04-27,0.6662831746904884,0.6630541841958623,-0.48462735024429326,8,True
2023-04-28,0.6630541841958623,0.6702593626001039,1.0866650985665638,0,True
2023-04-29,0.6702593626001039,0.6702593626001039,0.0,0,False
2023-04-30,0.6702593626001039,0.6702593626001039,0.0,0,False
2023-05-01,0.6702593626001039,0.6702593626001039,0.0,0,False
2023-05-02,0.6702593626001039,0.6702593626001039,0.0,0,False
2023-05-03,0.6702593626001039,0.6702593626001039,0.0,0,False
2023-05-04,0.6702593626001039,0.6702593626001039,0.0,0,False
2023-05-05,0.6702593626001039,0.6702593626001039,0.0,0,False
2023-05-06,0.6702593626001039,0.6669170815672721,-0.4986548818753045,1,True
2023-05-07,0.6669170815672721,0.6669170815672721,0.0,0,False
2023-05-08,0.6669170815672721,0.679336521459216,1.8622164936543228,5,True
2023-05-09,0.679336521459216,0.6663859882384211,-1.90635021255402,4,True
2023-05-10,0.6663859882384211,0.6615192036231945,-0.730325172066093,1,True
2023-05-11,0.6615192036231945,0.6577452438412934,-0.5704989002935701,5,True
2023-05-12,0.6577452438412934,0.6553024685378339,-0.3713862359830178,0,True
2023-05-13,0.6553024685378339,0.6553024685378339,0.0,0,False
2023-05-14,0.6553024685378339,0.6553024685378339,0.0,0,False
2023-05-15,0.6553024685378339,0.6553024685378339,0.0,0,False
2023-05-16,0.6553024685378339,0.6553024685378339,0.0,0,False
2023-05-17,0.6553024685378339,0.6553024685378339,0.0,0,False
2023-05-18,0.6553024685378339,0.6537527025918813,-0.23649627772813764,1,True
2023-05-19,0.6537527025918813,0.6520271241299792,-0.26394972518826165,0,True
2023-05-20,0.6520271241299792,0.6520271241299792,0.0,0,False
2023-05-21,0.6520271241299792,0.6520271241299792,0.0,0,False
2023-05-22,0.6520271241299792,0.6520271241299792,0.0,0,False
2023-05-23,0.6520271241299792,0.6520271241299792,0.0,0,False
2023-05-24,0.6520271241299792,0.6520271241299792,0.0,0,False
2023-05-25,0.6520271241299792,0.6520271241299792,0.0,0,False
2023-05-26,0.6520271241299792,0.6533317530291625,0.2000881329782267,1,True
2023-05-27,0.6533317530291625,0.6578004580011338,0.6839871093441197,0,True
2023-05-28,0.6578004580011338,0.6578004580011338,0.0,0,False
2023-05-29,0.6578004580011338,0.6578004580011338,0.0,0,False
2023-05-30,0.6578004580011338,0.6603892171420476,0.39354778632720855,2,True
2023-05-31,0.6603892171420476,0.6546854080884317,-0.8637041468211981,1,True
2023-06-01,0.6546854080884317,0.6543793889096977,-0.046742935607424485,0,True
2023-06-02,0.6543793889096977,0.6543793889096977,0.0,0,False
2023-06-03,0.6543793889096977,0.6543793889096977,0.0,0,False
2023-06-04,0.6543793889096977,0.6511086598177374,-0.49982153279765074,1,True
2023-06-05,0.6511086598177374,0.6511086598177374,0.0,0,False
2023-06-06,0.6511086598177374,0.6499066820845336,-0.18460478371462585,8,True
2023-06-07,0.6499066820845336,0.6496286890567446,-0.042774299057413145,0,True
2023-06-08,0.6496286890567446,0.6496286890567446,0.0,0,False
2023-06-09,0.6496286890567446,0.6496286890567446,0.0,0,False
2023-06-10,0.6496286890567446,0.6552913713909664,0.8716798425949968,6,True
2023-06-11,0.6552913713909664,0.6562661901360441,0.148761114160334,1,True
2023-06-12,0.6562661901360441,0.6562616250725832,-0.0006956115566447707,0,True
2023-06-13,0.6562616250725832,0.6562616250725832,0.0,0,False
2023-06-14,0.6562616250725832,0.6562616250725832,0.0,0,False
2023-06-15,0.6562616250725832,0.6592440129367333,0.45445105278252296,4,True
2023-06-16,0.6592440129367333,0.6642691453150145,0.7622568092648718,0,True
2023-06-17,0.6642691453150145,0.6642691453150145,0.0,0,False
2023-06-18,0.6642691453150145,0.6642691453150145,0.0,0,False
2023-06-19,0.6642691453150145,0.6642691453150145,0.0,0,False
2023-06-20,0.6642691453150145,0.6609536000585041,-0.4991267891779061,1,True
2023-06-21,0.6609536000585041,0.6609536000585041,0.0,0,False
2023-06-22,0.6609536000585041,0.6609536000585041,0.0,0,False
2023-06-23,0.6609536000585041,0.6609536000585041,0.0,0,False
2023-06-24,0.6609536000585041,0.6609536000585041,0.0,0,False
2023-06-25,0.6609536000585041,0.6602631356353541,-0.10446488574824553,3,True
2023-06-26,0.6602631356353541,0.6581314032349534,-0.3228610360548667,0,True
2023-06-27,0.6581314032349534,0.6581314032349534,0.0,0,False
2023-06-28,0.6581314032349534,0.6581314032349534,0.0,0,False
2023-06-29,0.6581314032349534,0.6560107425072386,-0.32222451584760226,2,True
2023-06-30,0.6560107425072386,0.6518641099851157,-0.6320982650794171,6,True
2023-07-01,0.6518641099851157,0.6612503867696955,1.4399131108467023,0,True
2023-07-02,0.6612503867696955,0.6612503867696955,0.0,0,False
2023-07-03,0.6612503867696955,0.6612503867696955,0.0,0,False
2023-07-04,0.6612503867696955,0.6612503867696955,0.0,0,False
2023-07-05,0.6612503867696955,0.6617085804865526,0.06929201494996207,1,True
2023-07-06,0.6617085804865526,0.6619484866193284,0.03625555718189677,1,True
2023-07-07,0.6619484866193284,0.6614273676144321,-0.07872500888365108,0,True
2023-07-08,0.6614273676144321,0.6614273676144321,0.0,0,False
2023-07-09,0.6614273676144321,0.6614273676144321,0.0,0,False
2023-07-10,0.6614273676144321,0.6614273676144321,0.0,0,False
2023-07-11,0.6614273676144321,0.6614273676144321,0.0,0,False
2023-07-12,0.6614273676144321,0.6604464126320565,-0.14830879857807844,1,True
2023-07-13,0.6604464126320565,0.6600303866173826,-0.06299163818846987,0,True
2023-07-14,0.6600303866173826,0.6600303866173826,0.0,0,False
2023-07-15,0.6600303866173826,0.6663109685515205,0.9515595132408405,5,True
2023-07-16,0.6663109685515205,0.6671712087033767,0.12910490633617488,1,True
2023-07-17,0.6671712087033767,0.6680029147888339,0.12466156731698597,0,True
2023-07-18,0.6680029147888339,0.6680029147888339,0.0,0,False
2023-07-19,0.6680029147888339,0.6680029147888339,0.0,0,False
2023-07-20,0.6680029147888339,0.6680029147888339,0.0,0,False
2023-07-21,0.6680029147888339,0.6680029147888339,0.0,0,False
2023-07-22,0.6680029147888339,0.6680029147888339,0.0,0,False
2023-07-23,0.6680029147888339,0.6680029147888339,0.0,0,False
2023-07-24,0.6680029147888339,0.6678635566215355,-0.02086191006254179,2,True
2023-07-25,0.6678635566215355,0.6678092034328659,-0.00813836720551242,0,True
2023-07-26,0.6678092034328659,0.6678092034328659,0.0,0,False
2023-07-27,0.6678092034328659,0.6678092034328659,0.0,0,False
2023-07-28,0.6678092034328659,0.6678092034328659,0.0,0,False
2023-07-29,0.6678092034328659,0.6678092034328659,0.0,0,False
2023-07-30,0.6678092034328659,0.6678092034328659,0.0,0,False
2023-07-31,0.6678092034328659,0.6644781744716233,-0.498799499036473,1,True
2023-08-01,0.6644781744716233,0.6613709472314548,-0.46761915733940507,2,True
2023-08-02,0.6613709472314548,0.6646760447302992,0.4997343038244617,0,True
2023-08-03,0.6646760447302992,0.6646760447302992,0.0,0,False
2023-08-04,0.6646760447302992,0.6646760447302992,0.0,0,False
2023-08-05,0.6646760447302992,0.6646760447302992,0.0,0,False
2023-08-06,0.6646760447302992,0.6646760447302992,0.0,0,False
2023-08-07,0.6646760447302992,0.6649634150218809,0.04323463946986905,1,True
2023-08-08,0.6649634150218809,0.6637034880743744,-0.1894731227379043,1,True
2023-08-09,0.6637034880743744,0.6637928909425762,0.013470302598705963,0,True
2023-08-10,0.6637928909425762,0.6609289135604639,-0.4314564710154567,1,True
2023-08-11,0.6609289135604639,0.6604754771082683,-0.06860593369307777,0,True
2023-08-12,0.6604754771082683,0.6604754771082683,0.0,0,False
2023-08-13,0.6604754771082683,0.662362008413703,0.285632301398131,1,True
2023-08-14,0.662362008413703,0.6618108385491134,-0.08321278358183193,0,True
2023-08-15,0.6618108385491134,0.6618108385491134,0.0,0,False
2023-08-16,0.6618108385491134,0.6607182526315944,-0.16509036326969317,6,True
2023-08-17,0.6607182526315944,0.6640648487538873,0.5065088044659882,4,True
2023-08-18,0.6640648487538873,0.6787211682597494,2.207061484034978,5,True
2023-08-19,0.6787211682597494,0.6791510508926226,0.06333714829838133,0,True
2023-08-20,0.6791510508926226,0.6791510508926226,0.0,0,False
2023-08-21,0.6791510508926226,0.6791510508926226,0.0,0,False
2023-08-22,0.6791510508926226,0.6797114610612317,0.08251627791380223,1,True
2023-08-23,0.6797114610612317,0.6803413986804332,0.09267721015295827,0,True
2023-08-24,0.6803413986804332,0.6803413986804332,0.0,0,False
2023-08-25,0.6803413986804332,0.6676269158663733,-1.868838621127633,4,True
2023-08-26,0.6676269158663733,0.6694346151789451,0.270764894226283,0,True
2023-08-27,0.6694346151789451,0.6694346151789451,0.0,0,False
2023-08-28,0.6694346151789451,0.6676977129344945,-0.2594580867298357,1,True
2023-08-29,0.6676977129344945,0.6723415379965598,0.6954981231934942,1,True
2023-08-30,0.6723415379965598,0.6695109120625528,-0.421010122688803,1,True
2023-08-31,0.6695109120625528,0.6729976416213397,0.5207875623782554,1,True
2023-09-01,0.6729976416213397,0.6718202586123607,-0.17494608244725818,0,True
2023-09-02,0.6718202586123607,0.6699408906857884,-0.2797426696322214,1,True
2023-09-03,0.6699408906857884,0.6715835302723107,0.245191719054616,0,True
2023-09-04,0.6715835302723107,0.6701827001441952,-0.20858613485464916,2,True
2023-09-05,0.6701827001441952,0.6725816048806689,0.3579478754013543,0,True
2023-09-06,0.6725816048806689,0.6725257478732923,-0.008304866944208733,2,True
2023-09-07,0.6725257478732923,0.6724040477271648,-0.01809598316679928,1,True
2023-09-08,0.6724040477271648,0.6717777139321546,-0.09314842721832584,1,True
2023-09-09,0.6717777139321546,0.6710885216891064,-0.10259230527522867,2,True
2023-09-10,0.6710885216891064,0.6640399762656088,-1.0503153005443466,3,True
2023-09-11,0.6640399762656088,0.6617010434413203,-0.35222771337384273,0,True
2023-09-12,0.6617010434413203,0.6617010434413203,0.0,0,False
2023-09-13,0.6617010434413203,0.6617010434413203,0.0,0,False
2023-09-14,0.6617010434413203,0.6625717839299816,0.1315912219410853,2,True
2023-09-15,0.6625717839299816,0.6711177521008893,1.2898177040105985,0,True
2023-09-16,0.6711177521008893,0.6685467502469314,-0.3830925118445294,2,True
2023-09-17,0.6685467502469314,0.6687362472145734,0.028344609793107267,1,True
2023-09-18,0.6687362472145734,0.6687362472145734,0.0,0,False
2023-09-19,0.6687362472145734,0.6687362472145734,0.0,0,False
2023-09-20,0.6687362472145734,0.670003778781811,0.18954132851587424,1,True
2023-09-21,0.670003778781811,0.6653939334797856,-0.6880327317566826,0,True
2023-09-22,0.6653939334797856,0.672572108031351,1.0787856922629402,1,True
2023-09-23,0.672572108031351,0.6718736046184195,-0.10385554271289399,0,True
2023-09-24,0.6718736046184195,0.6685199273812046,-0.4991529975522102,1,True
2023-09-25,0.6685199273812046,0.6684087134183794,-0.01663584857685141,1,True
2023-09-26,0.6684087134183794,0.6685148045784839,0.01587219884702229,0,True
2023-09-27,0.6685148045784839,0.6685148045784839,0.0,0,False
2023-09-28,0.6685148045784839,0.6685148045784839,0.0,0,False
2023-09-29,0.6685148045784839,0.6651818817599123,-0.4985563215272437,1,True
2023-09-30,0.6651818817599123,0.6651818817599123,0.0,0,False
2023-10-01,0.6651818817599123,0.6648389121983276,-0.0515602680995042,1,True
2023-10-02,0.6648389121983276,0.6666274369144926,0.2690162509067173,0,True
2023-10-03,0.6666274369144926,0.6640491378405183,-0.3867676202929715,2,True
2023-10-04,0.6640491378405183,0.6585520940534794,-0.8278067802204081,3,True
2023-10-05,0.6585520940534794,0.6535110504162838,-0.7654737844909554,0,True
2023-10-06,0.6535110504162838,0.6535110504162838,0.0,0,False
2023-10-07,0.6535110504162838,0.6518187586689548,-0.25895380747593677,1,True
2023-10-08,0.6518187586689548,0.650210695241532,-0.24670407318539977,1,True
2023-10-09,0.650210695241532,0.649059863977607,-0.17699359182296037,1,True
2023-10-10,0.649059863977607,0.6469961346113692,-0.31795670642623675,1,True
2023-10-11,0.6469961346113692,0.6468918595162417,-0.01611680341646604,0,True
2023-10-12,0.6468918595162417,0.6468918595162417,0.0,0,False
2023-10-13,0.6468918595162417,0.6468918595162417,0.0,0,False
2023-10-14,0.6468918595162417,0.6468918595162417,0.0,0,False
2023-10-15,0.6468918595162417,0.6468918595162417,0.0,0,False
2023-10-16,0.6468918595162417,0.6468918595162417,0.0,0,False
2023-10-17,0.6468918595162417,0.6468918595162417,0.0,0,False
2023-10-18,0.6468918595162417,0.6441981355676897,-0.41641024058742815,3,True
2023-10-19,0.6441981355676897,0.6369580903393688,-1.1238848466925022,3,True
2023-10-20,0.6369580903393688,0.6360359278676713,-0.1447760042118662,0,True
2023-10-21,0.6360359278676713,0.6364050311721889,0.058031832534233274,2,True
2023-10-22,0.6364050311721889,0.6359833740705002,-0.0662560918024302,0,True
2023-10-23,0.6359833740705002,0.6359833740705002,0.0,0,False
2023-10-24,0.6359833740705002,0.6348145975293,-0.18377470054281586,1,True
2023-10-25,0.6348145975293,0.6392062606276007,0.6918024751467522,3,True
2023-10-26,0.6392062606276007,0.6360388976122979,-0.4955150176709555,1,True
2023-10-27,0.6360388976122979,0.631763215462197,-0.6722359538311018,5,True
2023-10-28,0.631763215462197,0.6315456845669666,-0.0344323458388307,1,True
2023-10-29,0.6315456845669666,0.632456754137117,0.14426027956713217,0,True
2023-10-30,0.632456754137117,0.632456754137117,0.0,0,False
2023-10-31,0.632456754137117,0.6310239210094849,-0.22655037174628134,1,True
2023-11-01,0.6310239210094849,0.6296014770711795,-0.22541838604624997,1,True
2023-11-02,0.6296014770711795,0.6291401250543124,-0.07327683203878221,2,True
2023-11-03,0.6291401250543124,0.6274908437618607,-0.2621484827897924,0,True
2023-11-04,0.6274908437618607,0.6272162539858365,-0.04375996538500404,1,True
2023-11-05,0.6272162539858365,0.6296319869342631,0.3851515219950308,1,True
2023-11-06,0.6296319869342631,0.6222665052636075,-1.169807415045554,2,True
2023-11-07,0.6222665052636075,0.6173540983571227,-0.789437783478919,2,True
2023-11-08,0.6173540983571227,0.6181923588550645,0.13578277040235953,0,True
2023-11-09,0.6181923588550645,0.6181923588550645,0.0,0,False
2023-11-10,0.6181923588550645,0.6185398913063843,0.056217526202284596,6,True
2023-11-11,0.6185398913063843,0.6208211619904374,0.36881545008113914,0,True
2023-11-12,0.6208211619904374,0.6216160236430212,0.12803391721303292,1,True
2023-11-13,0.6216160236430212,0.6225582274356591,0.15157327945249932,1,True
2023-11-14,0.6225582274356591,0.6217624015802976,-0.12783155378727207,2,True
2023-11-15,0.6217624015802976,0.6184638433797466,-0.5305174761560449,1,True
2023-11-16,0.6184638433797466,0.6177498046667969,-0.11545359047145931,0,True
2023-11-17,0.6177498046667969,0.6179253642302384,0.028419201773144387,2,True
2023-11-18,0.6179253642302384,0.6165679842383384,-0.21966730457664285,3,True
2023-11-19,0.6165679842383384,0.6141552175010938,-0.391322092441293,2,True
2023-11-20,0.6141552175010938,0.6152880547900484,0.18445455752440498,0,True
2023-11-21,0.6152880547900484,0.619243169978859,0.6428070816619558,2,True
2023-11-22,0.619243169978859,0.6187596613863751,-0.07808056930210805,4,True
2023-11-23,0.6187596613863751,0.6187163247857673,-0.007003785688075581,2,True
2023-11-24,0.6187163247857673,0.6265073951839155,1.2592314257823922,1,True
2023-11-25,0.6265073951839155,0.6281368565783924,0.26008653800462245,2,True
2023-11-26,0.6281368565783924,0.6268707678980893,-0.2015625523392739,0,True
2023-11-27,0.6268707678980893,0.6268707678980893,0.0,0,False
2023-11-28,0.6268707678980893,0.6269777366468178,0.017063923571858375,1,True
2023-11-29,0.6269777366468178,0.6287568111100654,0.28375400899598446,1,True
2023-11-30,0.6287568111100654,0.6287510290231407,-0.0009196062487948353,0,True
2023-12-01,0.6287510290231407,0.6287510290231407,0.0,0,False
2023-12-02,0.6287510290231407,0.6287510290231407,0.0,0,False
2023-12-03,0.6287510290231407,0.6293080512292498,0.08859185598066865,1,True
2023-12-04,0.6293080512292498,0.6343012576198199,0.7934439072909916,3,True
2023-12-05,0.6343012576198199,0.6356971842966308,0.22007313717917754,0,True
2023-12-06,0.6356971842966308,0.6329164539706275,-0.4374300208801585,1,True
2023-12-07,0.6329164539706275,0.6326353554949804,-0.04441320396769699,2,True
2023-12-08,0.6326353554949804,0.6334062809554399,0.12185937029338678,0,True
2023-12-09,0.6334062809554399,0.6334062809554399,0.0,0,False
2023-12-10,0.6334062809554399,0.6318361499009786,-0.24788687792817177,1,True
2023-12-11,0.6318361499009786,0.6324648745513947,0.09950754646035342,5,True
2023-12-12,0.6324648745513947,0.6377737979266609,0.8394020899630039,0,True
2023-12-13,0.6377737979266609,0.6390054592417946,0.19311883290560328,3,True
2023-12-14,0.6390054592417946,0.6435927515927209,0.7178799937592517,0,True
2023-12-15,0.6435927515927209,0.6435927515927209,0.0,0,False
2023-12-16,0.6435927515927209,0.6503241924637301,1.0459162031192237,3,True
2023-12-17,0.6503241924637301,0.642836601385002,-1.1513628380272367,2,True
2023-12-18,0.642836601385002,0.6426995557270186,-0.021318894675270705,2,True
2023-12-19,0.6426995557270186,0.6661653789058852,3.6511341838912914,1,True
2023-12-20,0.6661653789058852,0.6679587749600168,0.2692118370181573,0,True
2023-12-21,0.6679587749600168,0.6671411099295605,-0.12241249926017161,1,True
2023-12-22,0.6671411099295605,0.6655713515616685,-0.2352963030651578,0,True
2023-12-23,0.6655713515616685,0.6654172698542458,-0.023150291409201884,1,True
2023-12-24,0.6654172698542458,0.6651777418611263,-0.03599666013656133,1,True
2023-12-25,0.6651777418611263,0.6709895921753215,0.8737289221274924,1,True
2023-12-26,0.6709895921753215,0.6704103310156434,-0.086329380728567,0,True
2023-12-27,0.6704103310156434,0.6667912246962351,-0.5398345091021328,7,True
2023-12-28,0.6667912246962351,0.6691667236863121,0.35625828626633105,1,True
2023-12-29,0.6691667236863121,0.6766378501839118,1.1164820713801538,0,True
2023-12-30,0.6766378501839118,0.676059020015963,-0.08554504714618494,1,True
2023-12-31,0.676059020015963,0.6765101276303424,0.06672606991748875,0,True
