day,start_equity,end_equity,return_pct,entries,active
2021-09-02,1.0,1.0,0.0,0,False
2021-09-03,1.0,1.0,0.0,0,False
2021-09-04,1.0,1.0,0.0,0,False
2021-09-05,1.0,1.0,0.0,0,False
2021-09-06,1.0,1.0,0.0,0,False
2021-09-07,1.0,1.0,0.0,0,False
2021-09-08,1.0,1.0,0.0,0,False
2021-09-09,1.0,1.0,0.0,0,False
2021-09-10,1.0,1.0,0.0,0,False
2021-09-11,1.0,1.0,0.0,0,False
2021-09-12,1.0,1.0,0.0,0,False
2021-09-13,1.0,1.0,0.0,0,False
2021-09-14,1.0,1.0,0.0,0,False
2021-09-15,1.0,1.0,0.0,0,False
2021-09-16,1.0,1.0,0.0,0,False
2021-09-17,1.0,1.0,0.0,0,False
2021-09-18,1.0,1.0,0.0,0,False
2021-09-19,1.0,1.0,0.0,0,False
2021-09-20,1.0,1.0,0.0,0,False
2021-09-21,1.0,1.0,0.0,0,False
2021-09-22,1.0,1.0,0.0,0,False
2021-09-23,1.0,1.0,0.0,0,False
2021-09-24,1.0,1.0,0.0,0,False
2021-09-25,1.0,1.0,0.0,0,False
2021-09-26,1.0,1.0,0.0,0,False
2021-09-27,1.0,1.0,0.0,0,False
2021-09-28,1.0,1.0,0.0,0,False
2021-09-29,1.0,1.0,0.0,0,False
2021-09-30,1.0,1.0,0.0,0,False
2021-10-01,1.0,1.0,0.0,0,False
2021-10-02,1.0,1.0,0.0,0,False
2021-10-03,1.0,1.0,0.0,0,False
2021-10-04,1.0,1.0,0.0,0,False
2021-10-05,1.0,1.0,0.0,0,False
2021-10-06,1.0,1.0,0.0,0,False
2021-10-07,1.0,1.0,0.0,0,False
2021-10-08,1.0,1.0,0.0,0,False
2021-10-09,1.0,1.0,0.0,0,False
2021-10-10,1.0,1.0,0.0,0,False
2021-10-11,1.0,1.0,0.0,0,False
2021-10-12,1.0,1.0,0.0,0,False
2021-10-13,1.0,1.0041608138854907,0.4160813885490722,1,True
2021-10-14,1.0041608138854907,1.007338994356227,0.3165011447159083,0,True
2021-10-15,1.007338994356227,1.007338994356227,0.0,0,False
2021-10-16,1.007338994356227,1.007338994356227,0.0,0,False
2021-10-17,1.007338994356227,1.007338994356227,0.0,0,False
2021-10-18,1.007338994356227,1.007338994356227,0.0,0,False
2021-10-19,1.007338994356227,1.007338994356227,0.0,0,False
2021-10-20,1.007338994356227,1.007338994356227,0.0,0,False
2021-10-21,1.007338994356227,1.007338994356227,0.0,0,False
2021-10-22,1.007338994356227,1.007338994356227,0.0,0,False
2021-10-23,1.007338994356227,1.007338994356227,0.0,0,False
2021-10-24,1.007338994356227,1.007338994356227,0.0,0,False
2021-10-25,1.007338994356227,1.0106508322010632,0.3287709364366176,1,True
2021-10-26,1.0106508322010632,1.0106508322010632,0.0,0,False
2021-10-27,1.0106508322010632,1.0184728118641302,0.7739547046166084,4,True
2021-10-28,1.0184728118641302,1.0141151834128959,-0.4278590847465513,0,True
2021-10-29,1.0141151834128959,1.0141151834128959,0.0,0,False
2021-10-30,1.0141151834128959,1.0141151834128959,0.0,0,False
2021-10-31,1.0141151834128959,1.0141151834128959,0.0,0,False
2021-11-01,1.0141151834128959,1.0141151834128959,0.0,0,False
2021-11-02,1.0141151834128959,1.0141151834128959,0.0,0,False
2021-11-03,1.0141151834128959,1.0141151834128959,0.0,0,False
2021-11-04,1.0141151834128959,1.0141151834128959,0.0,0,False
2021-11-05,1.0141151834128959,1.0141151834128959,0.0,0,False
2021-11-06,1.0141151834128959,1.0141151834128959,0.0,0,False
2021-11-07,1.0141151834128959,1.0141151834128959,0.0,0,False
2021-11-08,1.0141151834128959,1.0141151834128959,0.0,0,False
2021-11-09,1.0141151834128959,1.0141151834128959,0.0,0,False
2021-11-10,1.0141151834128959,1.0141151834128959,0.0,0,False
2021-11-11,1.0141151834128959,1.0099980166804376,-0.405986104911904,3,True
2021-11-12,1.0099980166804376,1.0099980166804376,0.0,0,False
2021-11-13,1.0099980166804376,1.0099980166804376,0.0,0,False
2021-11-14,1.0099980166804376,1.0099980166804376,0.0,0,False
2021-11-15,1.0099980166804376,1.0099980166804376,0.0,0,False
2021-11-16,1.0099980166804376,1.0351352773491793,2.4888425772716216,4,True
2021-11-17,1.0351352773491793,1.0383538960021188,0.3109370073042017,0,True
2021-11-18,1.0383538960021188,1.0350860963069686,-0.31470962912856226,1,True
2021-11-19,1.0350860963069686,1.0331626532179068,-0.18582445420959326,0,True
2021-11-20,1.0331626532179068,1.0331626532179068,0.0,0,False
2021-11-21,1.0331626532179068,1.0331626532179068,0.0,0,False
2021-11-22,1.0331626532179068,1.0331626532179068,0.0,0,False
2021-11-23,1.0331626532179068,1.0331626532179068,0.0,0,False
2021-11-24,1.0331626532179068,1.0331626532179068,0.0,0,False
2021-11-25,1.0331626532179068,1.0331626532179068,0.0,0,False
2021-11-26,1.0331626532179068,1.035672979131422,0.24297489903419844,5,True
2021-11-27,1.035672979131422,1.0343113148218286,-0.13147628035400372,0,True
2021-11-28,1.0343113148218286,1.0343113148218286,0.0,0,False
2021-11-29,1.0343113148218286,1.0343113148218286,0.0,0,False
2021-11-30,1.0343113148218286,1.0343113148218286,0.0,0,False
2021-12-01,1.0343113148218286,1.0321696261238984,-0.2070642240145193,1,True
2021-12-02,1.0321696261238984,1.032810540638124,0.06209391344254023,1,True
2021-12-03,1.032810540638124,1.0303583848339186,-0.23742552072428813,1,True
2021-12-04,1.0303583848339186,1.0099056201605463,-1.9850146293193927,4,True
2021-12-05,1.0099056201605463,1.0099056201605463,0.0,0,False
2021-12-06,1.0099056201605463,1.0099056201605463,0.0,0,False
2021-12-07,1.0099056201605463,1.0099056201605463,0.0,0,False
2021-12-08,1.0099056201605463,1.0099056201605463,0.0,0,False
2021-12-09,1.0099056201605463,1.0099056201605463,0.0,0,False
2021-12-10,1.0099056201605463,1.0099056201605463,0.0,0,False
2021-12-11,1.0099056201605463,1.0099056201605463,0.0,0,False
2021-12-12,1.0099056201605463,1.0099056201605463,0.0,0,False
2021-12-13,1.0099056201605463,1.0099056201605463,0.0,0,False
2021-12-14,1.0099056201605463,1.0099056201605463,0.0,0,False
2021-12-15,1.0099056201605463,1.0099056201605463,0.0,0,False
2021-12-16,1.0099056201605463,1.0099056201605463,0.0,0,False
2021-12-17,1.0099056201605463,1.0099056201605463,0.0,0,False
2021-12-18,1.0099056201605463,1.0099056201605463,0.0,0,False
2021-12-19,1.0099056201605463,1.0099056201605463,0.0,0,False
2021-12-20,1.0099056201605463,1.0099056201605463,0.0,0,False
2021-12-21,1.0099056201605463,1.0099056201605463,0.0,0,False
2021-12-22,1.0099056201605463,1.0099056201605463,0.0,0,False
2021-12-23,1.0099056201605463,1.0099056201605463,0.0,0,False
2021-12-24,1.0099056201605463,1.0099056201605463,0.0,0,False
2021-12-25,1.0099056201605463,1.0099056201605463,0.0,0,False
2021-12-26,1.0099056201605463,1.0099056201605463,0.0,0,False
2021-12-27,1.0099056201605463,1.0099056201605463,0.0,0,False
2021-12-28,1.0099056201605463,1.0099056201605463,0.0,0,False
2021-12-29,1.0099056201605463,1.0099056201605463,0.0,0,False
2021-12-30,1.0099056201605463,1.0099056201605463,0.0,0,False
2021-12-31,1.0099056201605463,1.0099056201605463,0.0,0,False
2022-01-01,1.0099056201605463,1.0099056201605463,0.0,0,False
2022-01-02,1.0099056201605463,1.0099056201605463,0.0,0,False
2022-01-03,1.0099056201605463,1.0099056201605463,0.0,0,False
2022-01-04,1.0099056201605463,1.0099056201605463,0.0,0,False
2022-01-05,1.0099056201605463,1.0099056201605463,0.0,0,False
2022-01-06,1.0099056201605463,1.01076421360269,0.08501719616207382,1,True
2022-01-07,1.01076421360269,1.01076421360269,0.0,0,False
2022-01-08,1.01076421360269,1.01076421360269,0.0,0,False
2022-01-09,1.01076421360269,1.01076421360269,0.0,0,False
2022-01-10,1.01076421360269,1.01076421360269,0.0,0,False
2022-01-11,1.01076421360269,1.01076421360269,0.0,0,False
2022-01-12,1.01076421360269,1.01076421360269,0.0,0,False
2022-01-13,1.01076421360269,1.01076421360269,0.0,0,False
2022-01-14,1.01076421360269,1.01076421360269,0.0,0,False
2022-01-15,1.01076421360269,1.01076421360269,0.0,0,False
2022-01-16,1.01076421360269,1.01076421360269,0.0,0,False
2022-01-17,1.01076421360269,1.01076421360269,0.0,0,False
2022-01-18,1.01076421360269,1.01076421360269,0.0,0,False
2022-01-19,1.01076421360269,1.01076421360269,0.0,0,False
2022-01-20,1.01076421360269,1.01076421360269,0.0,0,False
2022-01-21,1.01076421360269,1.01076421360269,0.0,0,False
2022-01-22,1.01076421360269,1.01076421360269,0.0,0,False
2022-01-23,1.01076421360269,1.01076421360269,0.0,0,False
2022-01-24,1.01076421360269,1.01076421360269,0.0,0,False
2022-01-25,1.01076421360269,1.01076421360269,0.0,0,False
2022-01-26,1.01076421360269,1.01076421360269,0.0,0,False
2022-01-27,1.01076421360269,1.01076421360269,0.0,0,False
2022-01-28,1.01076421360269,1.01076421360269,0.0,0,False
2022-01-29,1.01076421360269,1.01076421360269,0.0,0,False
2022-01-30,1.01076421360269,1.01076421360269,0.0,0,False
2022-01-31,1.01076421360269,1.01076421360269,0.0,0,False
2022-02-01,1.01076421360269,1.01076421360269,0.0,0,False
2022-02-02,1.01076421360269,1.01076421360269,0.0,0,False
2022-02-03,1.01076421360269,1.01076421360269,0.0,0,False
2022-02-04,1.01076421360269,1.01076421360269,0.0,0,False
2022-02-05,1.01076421360269,1.01076421360269,0.0,0,False
2022-02-06,1.01076421360269,1.01076421360269,0.0,0,False
2022-02-07,1.01076421360269,1.01076421360269,0.0,0,False
2022-02-08,1.01076421360269,1.01076421360269,0.0,0,False
2022-02-09,1.01076421360269,1.01076421360269,0.0,0,False
2022-02-10,1.01076421360269,1.0104760034593212,-0.028514082660435758,1,True
2022-02-11,1.0104760034593212,1.0079364993629416,-0.25131760553300797,0,True
2022-02-12,1.0079364993629416,1.0079364993629416,0.0,0,False
2022-02-13,1.0079364993629416,1.0079364993629416,0.0,0,False
2022-02-14,1.0079364993629416,1.0079364993629416,0.0,0,False
2022-02-15,1.0079364993629416,1.0079364993629416,0.0,0,False
2022-02-16,1.0079364993629416,1.0079364993629416,0.0,0,False
2022-02-17,1.0079364993629416,1.0079364993629416,0.0,0,False
2022-02-18,1.0079364993629416,1.0079364993629416,0.0,0,False
2022-02-19,1.0079364993629416,1.0079364993629416,0.0,0,False
2022-02-20,1.0079364993629416,1.0079364993629416,0.0,0,False
2022-02-21,1.0079364993629416,1.0079364993629416,0.0,0,False
2022-02-22,1.0079364993629416,1.0079364993629416,0.0,0,False
2022-02-23,1.0079364993629416,1.0079364993629416,0.0,0,False
2022-02-24,1.0079364993629416,1.0079364993629416,0.0,0,False
2022-02-25,1.0079364993629416,1.0079364993629416,0.0,0,False
2022-02-26,1.0079364993629416,1.0079364993629416,0.0,0,False
2022-02-27,1.0079364993629416,1.0079364993629416,0.0,0,False
2022-02-28,1.0079364993629416,1.0079364993629416,0.0,0,False
2022-03-01,1.0079364993629416,1.0079364993629416,0.0,0,False
2022-03-02,1.0079364993629416,1.0079364993629416,0.0,0,False
2022-03-03,1.0079364993629416,1.0079364993629416,0.0,0,False
2022-03-04,1.0079364993629416,1.0079364993629416,0.0,0,False
2022-03-05,1.0079364993629416,1.0079364993629416,0.0,0,False
2022-03-06,1.0079364993629416,1.0079364993629416,0.0,0,False
2022-03-07,1.0079364993629416,1.0079364993629416,0.0,0,False
2022-03-08,1.0079364993629416,1.0079364993629416,0.0,0,False
2022-03-09,1.0079364993629416,1.0079364993629416,0.0,0,False
2022-03-10,1.0079364993629416,1.0079364993629416,0.0,0,False
2022-03-11,1.0079364993629416,1.0079364993629416,0.0,0,False
2022-03-12,1.0079364993629416,1.0079364993629416,0.0,0,False
2022-03-13,1.0079364993629416,1.0079364993629416,0.0,0,False
2022-03-14,1.0079364993629416,1.0079364993629416,0.0,0,False
2022-03-15,1.0079364993629416,1.0079364993629416,0.0,0,False
2022-03-16,1.0079364993629416,1.0079364993629416,0.0,0,False
2022-03-17,1.0079364993629416,1.0079364993629416,0.0,0,False
2022-03-18,1.0079364993629416,1.0079364993629416,0.0,0,False
2022-03-19,1.0079364993629416,1.0079364993629416,0.0,0,False
2022-03-20,1.0079364993629416,1.0079364993629416,0.0,0,False
2022-03-21,1.0079364993629416,1.0079364993629416,0.0,0,False
2022-03-22,1.0079364993629416,1.0079364993629416,0.0,0,False
2022-03-23,1.0079364993629416,1.0079364993629416,0.0,0,False
2022-03-24,1.0079364993629416,1.0079364993629416,0.0,0,False
2022-03-25,1.0079364993629416,1.0079364993629416,0.0,0,False
2022-03-26,1.0079364993629416,1.0079364993629416,0.0,0,False
2022-03-27,1.0079364993629416,1.0079364993629416,0.0,0,False
2022-03-28,1.0079364993629416,1.0079364993629416,0.0,0,False
2022-03-29,1.0079364993629416,1.0079364993629416,0.0,0,False
2022-03-30,1.0079364993629416,1.0067032602428991,-0.12235285861975642,1,True
2022-03-31,1.0067032602428991,1.0067032602428991,0.0,0,False
2022-04-01,1.0067032602428991,1.0067032602428991,0.0,0,False
2022-04-02,1.0067032602428991,1.0067032602428991,0.0,0,False
2022-04-03,1.0067032602428991,1.0067032602428991,0.0,0,False
2022-04-04,1.0067032602428991,1.0067032602428991,0.0,0,False
2022-04-05,1.0067032602428991,1.0067032602428991,0.0,0,False
2022-04-06,1.0067032602428991,1.0076559554859423,0.09463516019738716,1,True
2022-04-07,1.0076559554859423,1.0076559554859423,0.0,0,False
2022-04-08,1.0076559554859423,1.0076559554859423,0.0,0,False
2022-04-09,1.0076559554859423,1.0076559554859423,0.0,0,False
2022-04-10,1.0076559554859423,1.0076559554859423,0.0,0,False
2022-04-11,1.0076559554859423,1.0076559554859423,0.0,0,False
2022-04-12,1.0076559554859423,1.0076559554859423,0.0,0,False
2022-04-13,1.0076559554859423,1.0076559554859423,0.0,0,False
2022-04-14,1.0076559554859423,1.0076559554859423,0.0,0,False
2022-04-15,1.0076559554859423,1.0076559554859423,0.0,0,False
2022-04-16,1.0076559554859423,1.0076559554859423,0.0,0,False
2022-04-17,1.0076559554859423,1.0076559554859423,0.0,0,False
2022-04-18,1.0076559554859423,1.009759691062282,0.20877518411779317,1,True
2022-04-19,1.009759691062282,1.0086648696158629,-0.10842396028576395,0,True
2022-04-20,1.0086648696158629,1.0086648696158629,0.0,0,False
2022-04-21,1.0086648696158629,1.0086648696158629,0.0,0,False
2022-04-22,1.0086648696158629,1.0086648696158629,0.0,0,False
2022-04-23,1.0086648696158629,1.0086648696158629,0.0,0,False
2022-04-24,1.0086648696158629,1.0086648696158629,0.0,0,False
2022-04-25,1.0086648696158629,1.0086648696158629,0.0,0,False
2022-04-26,1.0086648696158629,1.0086648696158629,0.0,0,False
2022-04-27,1.0086648696158629,1.0086648696158629,0.0,0,False
2022-04-28,1.0086648696158629,1.0086648696158629,0.0,0,False
2022-04-29,1.0086648696158629,1.0086648696158629,0.0,0,False
2022-04-30,1.0086648696158629,1.0086648696158629,0.0,0,False
2022-05-01,1.0086648696158629,1.0212746072271297,1.2501414484742623,4,True
2022-05-02,1.0212746072271297,1.0212746072271297,0.0,0,False
2022-05-03,1.0212746072271297,1.0212746072271297,0.0,0,False
2022-05-04,1.0212746072271297,1.0212746072271297,0.0,0,False
2022-05-05,1.0212746072271297,1.0212746072271297,0.0,0,False
2022-05-06,1.0212746072271297,1.0218741547646684,0.05870581068949665,1,True
2022-05-07,1.0218741547646684,1.021120353715498,-0.0737665245427288,0,True
2022-05-08,1.021120353715498,1.021120353715498,0.0,0,False
2022-05-09,1.021120353715498,1.021120353715498,0.0,0,False
2022-05-10,1.021120353715498,1.021120353715498,0.0,0,False
2022-05-11,1.021120353715498,1.021120353715498,0.0,0,False
2022-05-12,1.021120353715498,1.021120353715498,0.0,0,False
2022-05-13,1.021120353715498,1.021120353715498,0.0,0,False
2022-05-14,1.021120353715498,1.021120353715498,0.0,0,False
2022-05-15,1.021120353715498,1.021120353715498,0.0,0,False
2022-05-16,1.021120353715498,1.021120353715498,0.0,0,False
2022-05-17,1.021120353715498,1.021120353715498,0.0,0,False
2022-05-18,1.021120353715498,1.021120353715498,0.0,0,False
2022-05-19,1.021120353715498,1.021120353715498,0.0,0,False
2022-05-20,1.021120353715498,1.0241046234653053,0.29225445746414724,1,True
2022-05-21,1.0241046234653053,1.0241046234653053,0.0,0,False
2022-05-22,1.0241046234653053,1.0241046234653053,0.0,0,False
2022-05-23,1.0241046234653053,1.0241046234653053,0.0,0,False
2022-05-24,1.0241046234653053,1.0241046234653053,0.0,0,False
2022-05-25,1.0241046234653053,1.0189921061041745,-0.49921826774215194,1,True
2022-05-26,1.0189921061041745,1.0189921061041745,0.0,0,False
2022-05-27,1.0189921061041745,1.0189921061041745,0.0,0,False
2022-05-28,1.0189921061041745,1.0189921061041745,0.0,0,False
2022-05-29,1.0189921061041745,1.0189921061041745,0.0,0,False
2022-05-30,1.0189921061041745,1.0189921061041745,0.0,0,False
2022-05-31,1.0189921061041745,1.0189921061041745,0.0,0,False
2022-06-01,1.0189921061041745,1.0189921061041745,0.0,0,False
2022-06-02,1.0189921061041745,1.0189921061041745,0.0,0,False
2022-06-03,1.0189921061041745,1.0189921061041745,0.0,0,False
2022-06-04,1.0189921061041745,1.0189921061041745,0.0,0,False
2022-06-05,1.0189921061041745,1.0189921061041745,0.0,0,False
2022-06-06,1.0189921061041745,1.0189921061041745,0.0,0,False
2022-06-07,1.0189921061041745,1.0189921061041745,0.0,0,False
2022-06-08,1.0189921061041745,1.0189921061041745,0.0,0,False
2022-06-09,1.0189921061041745,1.0189921061041745,0.0,0,False
2022-06-10,1.0189921061041745,1.0189921061041745,0.0,0,False
2022-06-11,1.0189921061041745,1.0189921061041745,0.0,0,False
2022-06-12,1.0189921061041745,1.0189921061041745,0.0,0,False
2022-06-13,1.0189921061041745,1.0189921061041745,0.0,0,False
2022-06-14,1.0189921061041745,1.0189921061041745,0.0,0,False
2022-06-15,1.0189921061041745,1.0189921061041745,0.0,0,False
2022-06-16,1.0189921061041745,1.0189921061041745,0.0,0,False
2022-06-17,1.0189921061041745,1.0189921061041745,0.0,0,False
2022-06-18,1.0189921061041745,1.0114502090558983,-0.7401330199809264,4,True
2022-06-19,1.0114502090558983,1.0113125029531511,-0.013614718897114741,0,True
2022-06-20,1.0113125029531511,1.0113125029531511,0.0,0,False
2022-06-21,1.0113125029531511,1.0113125029531511,0.0,0,False
2022-06-22,1.0113125029531511,1.0113125029531511,0.0,0,False
2022-06-23,1.0113125029531511,1.0113125029531511,0.0,0,False
2022-06-24,1.0113125029531511,1.0113125029531511,0.0,0,False
2022-06-25,1.0113125029531511,1.0113125029531511,0.0,0,False
2022-06-26,1.0113125029531511,1.0113125029531511,0.0,0,False
2022-06-27,1.0113125029531511,1.0113125029531511,0.0,0,False
2022-06-28,1.0113125029531511,1.0124695031333149,0.11440580204291617,1,True
2022-06-29,1.0124695031333149,1.016735918505412,0.4213870500685335,0,True
2022-06-30,1.016735918505412,1.016735918505412,0.0,0,False
2022-07-01,1.016735918505412,1.016735918505412,0.0,0,False
2022-07-02,1.016735918505412,1.016735918505412,0.0,0,False
2022-07-03,1.016735918505412,1.016735918505412,0.0,0,False
2022-07-04,1.016735918505412,1.016735918505412,0.0,0,False
2022-07-05,1.016735918505412,1.016735918505412,0.0,0,False
2022-07-06,1.016735918505412,1.016735918505412,0.0,0,False
2022-07-07,1.016735918505412,1.016735918505412,0.0,0,False
2022-07-08,1.016735918505412,1.016735918505412,0.0,0,False
2022-07-09,1.016735918505412,1.016735918505412,0.0,0,False
2022-07-10,1.016735918505412,1.016735918505412,0.0,0,False
2022-07-11,1.016735918505412,1.016735918505412,0.0,0,False
2022-07-12,1.016735918505412,1.016735918505412,0.0,0,False
2022-07-13,1.016735918505412,1.0249620766959728,0.8090752024039194,4,True
2022-07-14,1.0249620766959728,1.042593921123685,1.720243590333559,0,True
2022-07-15,1.042593921123685,1.042593921123685,0.0,0,False
2022-07-16,1.042593921123685,1.042593921123685,0.0,0,False
2022-07-17,1.042593921123685,1.042593921123685,0.0,0,False
2022-07-18,1.042593921123685,1.042593921123685,0.0,0,False
2022-07-19,1.042593921123685,1.042593921123685,0.0,0,False
2022-07-20,1.042593921123685,1.042593921123685,0.0,0,False
2022-07-21,1.042593921123685,1.0400910835156896,-0.24005871867139872,3,True
2022-07-22,1.0400910835156896,1.0400910835156896,0.0,0,False
2022-07-23,1.0400910835156896,1.0400910835156896,0.0,0,False
2022-07-24,1.0400910835156896,1.0400910835156896,0.0,0,False
2022-07-25,1.0400910835156896,1.0408140989761088,0.06951462923567853,1,True
2022-07-26,1.0408140989761088,1.0408140989761088,0.0,0,False
2022-07-27,1.0408140989761088,1.0408140989761088,0.0,0,False
2022-07-28,1.0408140989761088,1.0408140989761088,0.0,0,False
2022-07-29,1.0408140989761088,1.0408140989761088,0.0,0,False
2022-07-30,1.0408140989761088,1.0408140989761088,0.0,0,False
2022-07-31,1.0408140989761088,1.0408140989761088,0.0,0,False
2022-08-01,1.0408140989761088,1.0408140989761088,0.0,0,False
2022-08-02,1.0408140989761088,1.0408140989761088,0.0,0,False
2022-08-03,1.0408140989761088,1.0408140989761088,0.0,0,False
2022-08-04,1.0408140989761088,1.0408140989761088,0.0,0,False
2022-08-05,1.0408140989761088,1.0408140989761088,0.0,0,False
2022-08-06,1.0408140989761088,1.0408140989761088,0.0,0,False
2022-08-07,1.0408140989761088,1.0408140989761088,0.0,0,False
2022-08-08,1.0408140989761088,1.0408140989761088,0.0,0,False
2022-08-09,1.0408140989761088,1.0422553593847135,0.13847433562079736,1,True
2022-08-10,1.0422553593847135,1.0422553593847135,0.0,0,False
2022-08-11,1.0422553593847135,1.0422553593847135,0.0,0,False
2022-08-12,1.0422553593847135,1.0424116947141808,0.014999714615004933,1,True
2022-08-13,1.0424116947141808,1.0424116947141808,0.0,0,False
2022-08-14,1.0424116947141808,1.0424116947141808,0.0,0,False
2022-08-15,1.0424116947141808,1.0424116947141808,0.0,0,False
2022-08-16,1.0424116947141808,1.0424116947141808,0.0,0,False
2022-08-17,1.0424116947141808,1.0424116947141808,0.0,0,False
2022-08-18,1.0424116947141808,1.0424116947141808,0.0,0,False
2022-08-19,1.0424116947141808,1.0199770060178597,-2.152190810030441,7,True
2022-08-20,1.0199770060178597,1.0214058167745763,0.14008264385243496,0,True
2022-08-21,1.0214058167745763,1.0214058167745763,0.0,0,False
2022-08-22,1.0214058167745763,1.0214058167745763,0.0,0,False
2022-08-23,1.0214058167745763,1.0214058167745763,0.0,0,False
2022-08-24,1.0214058167745763,1.0214058167745763,0.0,0,False
2022-08-25,1.0214058167745763,1.0214058167745763,0.0,0,False
2022-08-26,1.0214058167745763,1.0214058167745763,0.0,0,False
2022-08-27,1.0214058167745763,1.0214058167745763,0.0,0,False
2022-08-28,1.0214058167745763,1.0214058167745763,0.0,0,False
2022-08-29,1.0214058167745763,1.0214058167745763,0.0,0,False
2022-08-30,1.0214058167745763,1.0214058167745763,0.0,0,False
2022-08-31,1.0214058167745763,1.0214058167745763,0.0,0,False
2022-09-01,1.0214058167745763,1.0214058167745763,0.0,0,False
2022-09-02,1.0214058167745763,1.0214058167745763,0.0,0,False
2022-09-03,1.0214058167745763,1.0214058167745763,0.0,0,False
2022-09-04,1.0214058167745763,1.0214058167745763,0.0,0,False
2022-09-05,1.0214058167745763,1.0214058167745763,0.0,0,False
2022-09-06,1.0214058167745763,1.0214058167745763,0.0,0,False
2022-09-07,1.0214058167745763,1.0079684509365305,-1.315575613273734,4,True
2022-09-08,1.0079684509365305,1.0079684509365305,0.0,0,False
2022-09-09,1.0079684509365305,1.0079684509365305,0.0,0,False
2022-09-10,1.0079684509365305,1.0079684509365305,0.0,0,False
2022-09-11,1.0079684509365305,1.0079684509365305,0.0,0,False
2022-09-12,1.0079684509365305,1.0079684509365305,0.0,0,False
2022-09-13,1.0079684509365305,1.0013130288439165,-0.6602807941488931,4,True
2022-09-14,1.0013130288439165,0.9966149049616448,-0.4691963199256466,0,True
2022-09-15,0.9966149049616448,1.000264336959515,0.3661827632420067,1,True
2022-09-16,1.000264336959515,1.000264336959515,0.0,0,False
2022-09-17,1.000264336959515,1.000264336959515,0.0,0,False
2022-09-18,1.000264336959515,1.000264336959515,0.0,0,False
2022-09-19,1.000264336959515,0.9967579367889721,-0.3505473544324622,5,True
2022-09-20,0.9967579367889721,0.9967579367889721,0.0,0,False
2022-09-21,0.9967579367889721,0.9967579367889721,0.0,0,False
2022-09-22,0.9967579367889721,0.9967579367889721,0.0,0,False
2022-09-23,0.9967579367889721,0.9967579367889721,0.0,0,False
2022-09-24,0.9967579367889721,0.9967579367889721,0.0,0,False
2022-09-25,0.9967579367889721,0.9967579367889721,0.0,0,False
2022-09-26,0.9967579367889721,0.9967579367889721,0.0,0,False
2022-09-27,0.9967579367889721,0.9967579367889721,0.0,0,False
2022-09-28,0.9967579367889721,0.9967579367889721,0.0,0,False
2022-09-29,0.9967579367889721,0.9967579367889721,0.0,0,False
2022-09-30,0.9967579367889721,0.9967579367889721,0.0,0,False
2022-10-01,0.9967579367889721,0.9967579367889721,0.0,0,False
2022-10-02,0.9967579367889721,0.9967579367889721,0.0,0,False
2022-10-03,0.9967579367889721,0.9967579367889721,0.0,0,False
2022-10-04,0.9967579367889721,0.9967579367889721,0.0,0,False
2022-10-05,0.9967579367889721,0.9967579367889721,0.0,0,False
2022-10-06,0.9967579367889721,0.9967579367889721,0.0,0,False
2022-10-07,0.9967579367889721,0.9967579367889721,0.0,0,False
2022-10-08,0.9967579367889721,0.9967579367889721,0.0,0,False
2022-10-09,0.9967579367889721,0.9967579367889721,0.0,0,False
2022-10-10,0.9967579367889721,0.9967579367889721,0.0,0,False
2022-10-11,0.9967579367889721,1.0150472469096143,1.8348798083876572,4,True
2022-10-12,1.0150472469096143,1.0150472469096143,0.0,0,False
2022-10-13,1.0150472469096143,1.0150472469096143,0.0,0,False
2022-10-14,1.0150472469096143,1.0150472469096143,0.0,0,False
2022-10-15,1.0150472469096143,1.0150472469096143,0.0,0,False
2022-10-16,1.0150472469096143,1.0150472469096143,0.0,0,False
2022-10-17,1.0150472469096143,1.0150472469096143,0.0,0,False
2022-10-18,1.0150472469096143,1.0150472469096143,0.0,0,False
2022-10-19,1.0150472469096143,1.0150472469096143,0.0,0,False
2022-10-20,1.0150472469096143,1.0180591534146388,0.2967257449536964,1,True
2022-10-21,1.0180591534146388,1.0180591534146388,0.0,0,False
2022-10-22,1.0180591534146388,1.0180591534146388,0.0,0,False
2022-10-23,1.0180591534146388,1.0180591534146388,0.0,0,False
2022-10-24,1.0180591534146388,1.0180591534146388,0.0,0,False
2022-10-25,1.0180591534146388,1.0180591534146388,0.0,0,False
2022-10-26,1.0180591534146388,1.0180591534146388,0.0,0,False
2022-10-27,1.0180591534146388,1.0180591534146388,0.0,0,False
2022-10-28,1.0180591534146388,1.0180591534146388,0.0,0,False
2022-10-29,1.0180591534146388,1.0180591534146388,0.0,0,False
2022-10-30,1.0180591534146388,1.0180591534146388,0.0,0,False
2022-10-31,1.0180591534146388,1.0180591534146388,0.0,0,False
2022-11-01,1.0180591534146388,1.0180591534146388,0.0,0,False
2022-11-02,1.0180591534146388,1.0214144437515573,0.329577149389082,1,True
2022-11-03,1.0214144437515573,1.0214144437515573,0.0,0,False
2022-11-04,1.0214144437515573,1.0163152521467305,-0.499228460692025,1,True
2022-11-05,1.0163152521467305,1.0163152521467305,0.0,0,False
2022-11-06,1.0163152521467305,1.0163152521467305,0.0,0,False
2022-11-07,1.0163152521467305,1.0163152521467305,0.0,0,False
2022-11-08,1.0163152521467305,1.0130374313889063,-0.322520079365185,2,True
2022-11-09,1.0130374313889063,1.0154254759419388,0.2357311269099327,0,True
2022-11-10,1.0154254759419388,1.0154254759419388,0.0,0,False
2022-11-11,1.0154254759419388,1.01213646986946,-0.323904230335359,2,True
2022-11-12,1.01213646986946,1.0138433204764594,0.16863838600931214,0,True
2022-11-13,1.0138433204764594,1.008777990809481,-0.4996166137976821,1,True
2022-11-14,1.008777990809481,1.008777990809481,0.0,0,False
2022-11-15,1.008777990809481,1.008777990809481,0.0,0,False
2022-11-16,1.008777990809481,1.008777990809481,0.0,0,False
2022-11-17,1.008777990809481,1.008777990809481,0.0,0,False
2022-11-18,1.008777990809481,1.008777990809481,0.0,0,False
2022-11-19,1.008777990809481,1.0087467788723505,-0.00309403430831523,2,True
2022-11-20,1.0087467788723505,1.0036865698033122,-0.5016332319489614,0,True
2022-11-21,1.0036865698033122,1.0036865698033122,0.0,0,False
2022-11-22,1.0036865698033122,1.0036865698033122,0.0,0,False
2022-11-23,1.0036865698033122,1.0036865698033122,0.0,0,False
2022-11-24,1.0036865698033122,1.0036865698033122,0.0,0,False
2022-11-25,1.0036865698033122,1.0036865698033122,0.0,0,False
2022-11-26,1.0036865698033122,1.0036865698033122,0.0,0,False
2022-11-27,1.0036865698033122,1.0036865698033122,0.0,0,False
2022-11-28,1.0036865698033122,1.0008878464448527,-0.2788443566608567,2,True
2022-11-29,1.0008878464448527,1.0008878464448527,0.0,0,False
2022-11-30,1.0008878464448527,1.0008878464448527,0.0,0,False
2022-12-01,1.0008878464448527,1.0007201744497976,-0.016752326012425822,1,True
2022-12-02,1.0007201744497976,1.0007201744497976,0.0,0,False
2022-12-03,1.0007201744497976,1.0007201744497976,0.0,0,False
2022-12-04,1.0007201744497976,1.0007201744497976,0.0,0,False
2022-12-05,1.0007201744497976,1.0007201744497976,0.0,0,False
2022-12-06,1.0007201744497976,1.0007201744497976,0.0,0,False
2022-12-07,1.0007201744497976,1.0007201744497976,0.0,0,False
2022-12-08,1.0007201744497976,0.9957235152174905,-0.4993063355652083,1,True
2022-12-09,0.9957235152174905,0.9957235152174905,0.0,0,False
2022-12-10,0.9957235152174905,0.9957235152174905,0.0,0,False
2022-12-11,0.9957235152174905,0.9957235152174905,0.0,0,False
2022-12-12,0.9957235152174905,0.9957235152174905,0.0,0,False
2022-12-13,0.9957235152174905,0.9957235152174905,0.0,0,False
2022-12-14,0.9957235152174905,0.9957235152174905,0.0,0,False
2022-12-15,0.9957235152174905,0.9957235152174905,0.0,0,False
2022-12-16,0.9957235152174905,0.9957235152174905,0.0,0,False
2022-12-17,0.9957235152174905,0.997799959164741,0.20853619659639833,4,True
2022-12-18,0.997799959164741,0.997799959164741,0.0,0,False
2022-12-19,0.997799959164741,0.997799959164741,0.0,0,False
2022-12-20,0.997799959164741,0.997799959164741,0.0,0,False
2022-12-21,0.997799959164741,0.997799959164741,0.0,0,False
2022-12-22,0.997799959164741,0.997799959164741,0.0,0,False
2022-12-23,0.997799959164741,0.997799959164741,0.0,0,False
2022-12-24,0.997799959164741,0.997799959164741,0.0,0,False
2022-12-25,0.997799959164741,0.997799959164741,0.0,0,False
2022-12-26,0.997799959164741,0.997799959164741,0.0,0,False
2022-12-27,0.997799959164741,0.997799959164741,0.0,0,False
2022-12-28,0.997799959164741,0.999594895047704,0.17988935221702196,1,True
2022-12-29,0.999594895047704,0.9988513090274752,-0.07438873726874906,0,True
2022-12-30,0.9988513090274752,0.9988513090274752,0.0,0,False
2022-12-31,0.9988513090274752,0.9988513090274752,0.0,0,False
2023-01-01,0.9988513090274752,0.9988513090274752,0.0,0,False
2023-01-02,0.9988513090274752,0.9988513090274752,0.0,0,False
2023-01-03,0.9988513090274752,0.9988513090274752,0.0,0,False
2023-01-04,0.9988513090274752,0.9988513090274752,0.0,0,False
2023-01-05,0.9988513090274752,0.9988513090274752,0.0,0,False
2023-01-06,0.9988513090274752,0.9988513090274752,0.0,0,False
2023-01-07,0.9988513090274752,0.9988513090274752,0.0,0,False
2023-01-08,0.9988513090274752,0.9988513090274752,0.0,0,False
2023-01-09,0.9988513090274752,0.9988513090274752,0.0,0,False
2023-01-10,0.9988513090274752,0.9970988461220018,-0.175447825881081,2,True
2023-01-11,0.9970988461220018,0.9976155666782957,0.051822400387235845,0,True
2023-01-12,0.9976155666782957,0.9976155666782957,0.0,0,False
2023-01-13,0.9976155666782957,0.9976155666782957,0.0,0,False
2023-01-14,0.9976155666782957,0.9976155666782957,0.0,0,False
2023-01-15,0.9976155666782957,0.9976155666782957,0.0,0,False
2023-01-16,0.9976155666782957,0.9976155666782957,0.0,0,False
2023-01-17,0.9976155666782957,0.9976155666782957,0.0,0,False
2023-01-18,0.9976155666782957,0.9976155666782957,0.0,0,False
2023-01-19,0.9976155666782957,0.9976155666782957,0.0,0,False
2023-01-20,0.9976155666782957,0.9976155666782957,0.0,0,False
2023-01-21,0.9976155666782957,0.9976155666782957,0.0,0,False
2023-01-22,0.9976155666782957,0.9976155666782957,0.0,0,False
2023-01-23,0.9976155666782957,0.9976155666782957,0.0,0,False
2023-01-24,0.9976155666782957,0.9976155666782957,0.0,0,False
2023-01-25,0.9976155666782957,1.0056666758758868,0.8070352414806914,4,True
2023-01-26,1.0056666758758868,1.0056666758758868,0.0,0,False
2023-01-27,1.0056666758758868,1.0056666758758868,0.0,0,False
2023-01-28,1.0056666758758868,1.0056666758758868,0.0,0,False
2023-01-29,1.0056666758758868,1.0056666758758868,0.0,0,False
2023-01-30,1.0056666758758868,1.0065714815271634,0.08997073016152601,1,True
2023-01-31,1.0065714815271634,1.0039871766461435,-0.2567433042210743,1,True
2023-02-01,1.0039871766461435,1.0039871766461435,0.0,0,False
2023-02-02,1.0039871766461435,1.0039871766461435,0.0,0,False
2023-02-03,1.0039871766461435,1.0039871766461435,0.0,0,False
2023-02-04,1.0039871766461435,1.0039871766461435,0.0,0,False
2023-02-05,1.0039871766461435,1.0057396637419425,0.17455273698347984,4,True
2023-02-06,1.0057396637419425,1.0165203970991719,1.0719208703690475,0,True
2023-02-07,1.0165203970991719,1.0165203970991719,0.0,0,False
2023-02-08,1.0165203970991719,1.0165203970991719,0.0,0,False
2023-02-09,1.0165203970991719,1.0165203970991719,0.0,0,False
2023-02-10,1.0165203970991719,1.0165203970991719,0.0,0,False
2023-02-11,1.0165203970991719,1.0165203970991719,0.0,0,False
2023-02-12,1.0165203970991719,1.0165203970991719,0.0,0,False
2023-02-13,1.0165203970991719,1.0165203970991719,0.0,0,False
2023-02-14,1.0165203970991719,1.0165203970991719,0.0,0,False
2023-02-15,1.0165203970991719,1.0165203970991719,0.0,0,False
2023-02-16,1.0165203970991719,1.0165203970991719,0.0,0,False
2023-02-17,1.0165203970991719,1.0165203970991719,0.0,0,False
2023-02-18,1.0165203970991719,1.0165203970991719,0.0,0,False
2023-02-19,1.0165203970991719,1.0165203970991719,0.0,0,False
2023-02-20,1.0165203970991719,1.0165203970991719,0.0,0,False
2023-02-21,1.0165203970991719,1.0165203970991719,0.0,0,False
2023-02-22,1.0165203970991719,1.0165203970991719,0.0,0,False
2023-02-23,1.0165203970991719,1.0257243210703535,0.9054342635373303,1,True
2023-02-24,1.0257243210703535,1.0257243210703535,0.0,0,False
2023-02-25,1.0257243210703535,1.0257243210703535,0.0,0,False
2023-02-26,1.0257243210703535,1.0257243210703535,0.0,0,False
2023-02-27,1.0257243210703535,1.0257243210703535,0.0,0,False
2023-02-28,1.0257243210703535,1.0257243210703535,0.0,0,False
2023-03-01,1.0257243210703535,1.0257243210703535,0.0,0,False
2023-03-02,1.0257243210703535,1.0257243210703535,0.0,0,False
2023-03-03,1.0257243210703535,1.0263870531618806,0.06461113165723287,1,True
2023-03-04,1.0263870531618806,1.0263870531618806,0.0,0,False
2023-03-05,1.0263870531618806,1.0263870531618806,0.0,0,False
2023-03-06,1.0263870531618806,1.0263870531618806,0.0,0,False
2023-03-07,1.0263870531618806,1.0263870531618806,0.0,0,False
2023-03-08,1.0263870531618806,1.0263870531618806,0.0,0,False
2023-03-09,1.0263870531618806,1.0263870531618806,0.0,0,False
2023-03-10,1.0263870531618806,1.0263870531618806,0.0,0,False
2023-03-11,1.0263870531618806,1.0263870531618806,0.0,0,False
2023-03-12,1.0263870531618806,1.0263870531618806,0.0,0,False
2023-03-13,1.0263870531618806,1.0263870531618806,0.0,0,False
2023-03-14,1.0263870531618806,1.0263870531618806,0.0,0,False
2023-03-15,1.0263870531618806,1.0263870531618806,0.0,0,False
2023-03-16,1.0263870531618806,1.0263870531618806,0.0,0,False
2023-03-17,1.0263870531618806,1.0263870531618806,0.0,0,False
2023-03-18,1.0263870531618806,1.0263870531618806,0.0,0,False
2023-03-19,1.0263870531618806,1.0263870531618806,0.0,0,False
2023-03-20,1.0263870531618806,1.0263870531618806,0.0,0,False
2023-03-21,1.0263870531618806,1.0263870531618806,0.0,0,False
2023-03-22,1.0263870531618806,1.0263870531618806,0.0,0,False
2023-03-23,1.0263870531618806,1.0333892919698404,0.6822220512611388,3,True
2023-03-24,1.0333892919698404,1.0343166681223326,0.08974121947058489,0,True
2023-03-25,1.0343166681223326,1.0300903559558174,-0.40860911331801475,1,True
2023-03-26,1.0300903559558174,1.0303687042000071,0.02702173091713167,0,True
2023-03-27,1.0303687042000071,1.0303687042000071,0.0,0,False
2023-03-28,1.0303687042000071,1.0303687042000071,0.0,0,False
2023-03-29,1.0303687042000071,1.0303687042000071,0.0,0,False
2023-03-30,1.0303687042000071,1.0303687042000071,0.0,0,False
2023-03-31,1.0303687042000071,1.0303687042000071,0.0,0,False
2023-04-01,1.0303687042000071,1.0303687042000071,0.0,0,False
2023-04-02,1.0303687042000071,1.0303687042000071,0.0,0,False
2023-04-03,1.0303687042000071,1.0303687042000071,0.0,0,False
2023-04-04,1.0303687042000071,1.0303687042000071,0.0,0,False
2023-04-05,1.0303687042000071,1.0303687042000071,0.0,0,False
2023-04-06,1.0303687042000071,1.0303687042000071,0.0,0,False
2023-04-07,1.0303687042000071,1.0273388256128113,-0.2940577071921302,1,True
2023-04-08,1.0273388256128113,1.0273388256128113,0.0,0,False
2023-04-09,1.0273388256128113,1.0273388256128113,0.0,0,False
2023-04-10,1.0273388256128113,1.0273388256128113,0.0,0,False
2023-04-11,1.0273388256128113,1.0273388256128113,0.0,0,False
2023-04-12,1.0273388256128113,1.0273388256128113,0.0,0,False
2023-04-13,1.0273388256128113,1.0273388256128113,0.0,0,False
2023-04-14,1.0273388256128113,1.0273388256128113,0.0,0,False
2023-04-15,1.0273388256128113,1.0273388256128113,0.0,0,False
2023-04-16,1.0273388256128113,1.0273388256128113,0.0,0,False
2023-04-17,1.0273388256128113,1.0273388256128113,0.0,0,False
2023-04-18,1.0273388256128113,1.0273388256128113,0.0,0,False
2023-04-19,1.0273388256128113,1.0212997558433323,-0.5878362249062907,2,True
2023-04-20,1.0212997558433323,1.019969983904589,-0.1302038829574803,0,True
2023-04-21,1.019969983904589,1.019969983904589,0.0,0,False
2023-04-22,1.019969983904589,1.019969983904589,0.0,0,False
2023-04-23,1.019969983904589,1.019969983904589,0.0,0,False
2023-04-24,1.019969983904589,1.019969983904589,0.0,0,False
2023-04-25,1.019969983904589,1.019969983904589,0.0,0,False
2023-04-26,1.019969983904589,1.019969983904589,0.0,0,False
2023-04-27,1.019969983904589,1.019969983904589,0.0,0,False
2023-04-28,1.019969983904589,1.019969983904589,0.0,0,False
2023-04-29,1.019969983904589,1.019969983904589,0.0,0,False
2023-04-30,1.019969983904589,1.019969983904589,0.0,0,False
2023-05-01,1.019969983904589,1.019969983904589,0.0,0,False
2023-05-02,1.019969983904589,1.019969983904589,0.0,0,False
2023-05-03,1.019969983904589,1.019969983904589,0.0,0,False
2023-05-04,1.019969983904589,1.019969983904589,0.0,0,False
2023-05-05,1.019969983904589,1.019969983904589,0.0,0,False
2023-05-06,1.019969983904589,1.019969983904589,0.0,0,False
2023-05-07,1.019969983904589,1.019969983904589,0.0,0,False
2023-05-08,1.019969983904589,1.0280583508222407,0.7930004848464511,4,True
2023-05-09,1.0280583508222407,1.0229260179730078,-0.4992258314061804,1,True
2023-05-10,1.0229260179730078,1.0229260179730078,0.0,0,False
2023-05-11,1.0229260179730078,1.0229260179730078,0.0,0,False
2023-05-12,1.0229260179730078,1.0229260179730078,0.0,0,False
2023-05-13,1.0229260179730078,1.0229260179730078,0.0,0,False
2023-05-14,1.0229260179730078,1.0229260179730078,0.0,0,False
2023-05-15,1.0229260179730078,1.0229260179730078,0.0,0,False
2023-05-16,1.0229260179730078,1.0229260179730078,0.0,0,False
2023-05-17,1.0229260179730078,1.0229260179730078,0.0,0,False
2023-05-18,1.0229260179730078,1.0229260179730078,0.0,0,False
2023-05-19,1.0229260179730078,1.0229260179730078,0.0,0,False
2023-05-20,1.0229260179730078,1.0229260179730078,0.0,0,False
2023-05-21,1.0229260179730078,1.0229260179730078,0.0,0,False
2023-05-22,1.0229260179730078,1.0229260179730078,0.0,0,False
2023-05-23,1.0229260179730078,1.0229260179730078,0.0,0,False
2023-05-24,1.0229260179730078,1.0229260179730078,0.0,0,False
2023-05-25,1.0229260179730078,1.0229260179730078,0.0,0,False
2023-05-26,1.0229260179730078,1.024297086832419,0.13403401959881656,1,True
2023-05-27,1.024297086832419,1.0269024038900416,0.25435170041139266,0,True
2023-05-28,1.0269024038900416,1.0269024038900416,0.0,0,False
2023-05-29,1.0269024038900416,1.0269024038900416,0.0,0,False
2023-05-30,1.0269024038900416,1.0269024038900416,0.0,0,False
2023-05-31,1.0269024038900416,1.0269024038900416,0.0,0,False
2023-06-01,1.0269024038900416,1.0269024038900416,0.0,0,False
2023-06-02,1.0269024038900416,1.0269024038900416,0.0,0,False
2023-06-03,1.0269024038900416,1.0269024038900416,0.0,0,False
2023-06-04,1.0269024038900416,1.0269024038900416,0.0,0,False
2023-06-05,1.0269024038900416,1.0269024038900416,0.0,0,False
2023-06-06,1.0269024038900416,1.0185626485031052,-0.8121273604331125,4,True
2023-06-07,1.0185626485031052,1.0185626485031052,0.0,0,False
2023-06-08,1.0185626485031052,1.0185626485031052,0.0,0,False
2023-06-09,1.0185626485031052,1.0185626485031052,0.0,0,False
2023-06-10,1.0185626485031052,1.0264244915117862,0.7718565981419845,5,True
2023-06-11,1.0264244915117862,1.0255353609716682,-0.08662405734379819,0,True
2023-06-12,1.0255353609716682,1.0255353609716682,0.0,0,False
2023-06-13,1.0255353609716682,1.0255353609716682,0.0,0,False
2023-06-14,1.0255353609716682,1.0255353609716682,0.0,0,False
2023-06-15,1.0255353609716682,1.0255353609716682,0.0,0,False
2023-06-16,1.0255353609716682,1.0255353609716682,0.0,0,False
2023-06-17,1.0255353609716682,1.0255353609716682,0.0,0,False
2023-06-18,1.0255353609716682,1.0255353609716682,0.0,0,False
2023-06-19,1.0255353609716682,1.0255353609716682,0.0,0,False
2023-06-20,1.0255353609716682,1.0255353609716682,0.0,0,False
2023-06-21,1.0255353609716682,1.0255353609716682,0.0,0,False
2023-06-22,1.0255353609716682,1.0255353609716682,0.0,0,False
2023-06-23,1.0255353609716682,1.0255353609716682,0.0,0,False
2023-06-24,1.0255353609716682,1.0255353609716682,0.0,0,False
2023-06-25,1.0255353609716682,1.0255353609716682,0.0,0,False
2023-06-26,1.0255353609716682,1.0255353609716682,0.0,0,False
2023-06-27,1.0255353609716682,1.0255353609716682,0.0,0,False
2023-06-28,1.0255353609716682,1.0255353609716682,0.0,0,False
2023-06-29,1.0255353609716682,1.0255353609716682,0.0,0,False
2023-06-30,1.0255353609716682,1.0137439961044368,-1.149776528042823,3,True
2023-07-01,1.0137439961044368,1.017285630359522,0.34936179831346337,0,True
2023-07-02,1.017285630359522,1.017285630359522,0.0,0,False
2023-07-03,1.017285630359522,1.017285630359522,0.0,0,False
2023-07-04,1.017285630359522,1.017285630359522,0.0,0,False
2023-07-05,1.017285630359522,1.017285630359522,0.0,0,False
2023-07-06,1.017285630359522,1.017285630359522,0.0,0,False
2023-07-07,1.017285630359522,1.017285630359522,0.0,0,False
2023-07-08,1.017285630359522,1.017285630359522,0.0,0,False
2023-07-09,1.017285630359522,1.017285630359522,0.0,0,False
2023-07-10,1.017285630359522,1.017285630359522,0.0,0,False
2023-07-11,1.017285630359522,1.017285630359522,0.0,0,False
2023-07-12,1.017285630359522,1.017285630359522,0.0,0,False
2023-07-13,1.017285630359522,1.017285630359522,0.0,0,False
2023-07-14,1.017285630359522,1.017285630359522,0.0,0,False
2023-07-15,1.017285630359522,1.017285630359522,0.0,0,False
2023-07-16,1.017285630359522,1.017285630359522,0.0,0,False
2023-07-17,1.017285630359522,1.017285630359522,0.0,0,False
2023-07-18,1.017285630359522,1.017285630359522,0.0,0,False
2023-07-19,1.017285630359522,1.017285630359522,0.0,0,False
2023-07-20,1.017285630359522,1.017285630359522,0.0,0,False
2023-07-21,1.017285630359522,1.017285630359522,0.0,0,False
2023-07-22,1.017285630359522,1.017285630359522,0.0,0,False
2023-07-23,1.017285630359522,1.017285630359522,0.0,0,False
2023-07-24,1.017285630359522,1.0171086619230478,-0.017396140394865256,1,True
2023-07-25,1.0171086619230478,1.0173699183689637,0.02568618828020508,0,True
2023-07-26,1.0173699183689637,1.0173699183689637,0.0,0,False
2023-07-27,1.0173699183689637,1.0173699183689637,0.0,0,False
2023-07-28,1.0173699183689637,1.0173699183689637,0.0,0,False
2023-07-29,1.0173699183689637,1.0173699183689637,0.0,0,False
2023-07-30,1.0173699183689637,1.0173699183689637,0.0,0,False
2023-07-31,1.0173699183689637,1.0173699183689637,0.0,0,False
2023-08-01,1.0173699183689637,1.0173699183689637,0.0,0,False
2023-08-02,1.0173699183689637,1.0173699183689637,0.0,0,False
2023-08-03,1.0173699183689637,1.0173699183689637,0.0,0,False
2023-08-04,1.0173699183689637,1.0173699183689637,0.0,0,False
2023-08-05,1.0173699183689637,1.0173699183689637,0.0,0,False
2023-08-06,1.0173699183689637,1.0173699183689637,0.0,0,False
2023-08-07,1.0173699183689637,1.0173699183689637,0.0,0,False
2023-08-08,1.0173699183689637,1.0173699183689637,0.0,0,False
2023-08-09,1.0173699183689637,1.0173699183689637,0.0,0,False
2023-08-10,1.0173699183689637,1.0173699183689637,0.0,0,False
2023-08-11,1.0173699183689637,1.0173699183689637,0.0,0,False
2023-08-12,1.0173699183689637,1.0173699183689637,0.0,0,False
2023-08-13,1.0173699183689637,1.0173699183689637,0.0,0,False
2023-08-14,1.0173699183689637,1.0173699183689637,0.0,0,False
2023-08-15,1.0173699183689637,1.0173699183689637,0.0,0,False
2023-08-16,1.0173699183689637,1.019938778473278,0.2525001042327668,4,True
2023-08-17,1.019938778473278,1.019938778473278,0.0,0,False
2023-08-18,1.019938778473278,1.050462718551585,2.9927227714586335,4,True
2023-08-19,1.050462718551585,1.050462718551585,0.0,0,False
2023-08-20,1.050462718551585,1.050462718551585,0.0,0,False
2023-08-21,1.050462718551585,1.050462718551585,0.0,0,False
2023-08-22,1.050462718551585,1.050462718551585,0.0,0,False
2023-08-23,1.050462718551585,1.050462718551585,0.0,0,False
2023-08-24,1.050462718551585,1.050462718551585,0.0,0,False
2023-08-25,1.050462718551585,1.0360143648563804,-1.3754275558799822,3,True
2023-08-26,1.0360143648563804,1.0360143648563804,0.0,0,False
2023-08-27,1.0360143648563804,1.0360143648563804,0.0,0,False
2023-08-28,1.0360143648563804,1.0360143648563804,0.0,0,False
2023-08-29,1.0360143648563804,1.0360143648563804,0.0,0,False
2023-08-30,1.0360143648563804,1.0360143648563804,0.0,0,False
2023-08-31,1.0360143648563804,1.0360143648563804,0.0,0,False
2023-09-01,1.0360143648563804,1.0360143648563804,0.0,0,False
2023-09-02,1.0360143648563804,1.0360143648563804,0.0,0,False
2023-09-03,1.0360143648563804,1.0360143648563804,0.0,0,False
2023-09-04,1.0360143648563804,1.0360143648563804,0.0,0,False
2023-09-05,1.0360143648563804,1.0360143648563804,0.0,0,False
2023-09-06,1.0360143648563804,1.0360143648563804,0.0,0,False
2023-09-07,1.0360143648563804,1.0360143648563804,0.0,0,False
2023-09-08,1.0360143648563804,1.0360143648563804,0.0,0,False
2023-09-09,1.0360143648563804,1.0360143648563804,0.0,0,False
2023-09-10,1.0360143648563804,1.0351245221182064,-0.08589096525678519,1,True
2023-09-11,1.0351245221182064,1.0347032393997833,-0.04069874777588023,0,True
2023-09-12,1.0347032393997833,1.0347032393997833,0.0,0,False
2023-09-13,1.0347032393997833,1.0347032393997833,0.0,0,False
2023-09-14,1.0347032393997833,1.0347032393997833,0.0,0,False
2023-09-15,1.0347032393997833,1.0347032393997833,0.0,0,False
2023-09-16,1.0347032393997833,1.0347032393997833,0.0,0,False
2023-09-17,1.0347032393997833,1.0347032393997833,0.0,0,False
2023-09-18,1.0347032393997833,1.0347032393997833,0.0,0,False
2023-09-19,1.0347032393997833,1.0347032393997833,0.0,0,False
2023-09-20,1.0347032393997833,1.0347032393997833,0.0,0,False
2023-09-21,1.0347032393997833,1.0347032393997833,0.0,0,False
2023-09-22,1.0347032393997833,1.0347032393997833,0.0,0,False
2023-09-23,1.0347032393997833,1.0347032393997833,0.0,0,False
2023-09-24,1.0347032393997833,1.0347032393997833,0.0,0,False
2023-09-25,1.0347032393997833,1.0347032393997833,0.0,0,False
2023-09-26,1.0347032393997833,1.0347032393997833,0.0,0,False
2023-09-27,1.0347032393997833,1.0347032393997833,0.0,0,False
2023-09-28,1.0347032393997833,1.0347032393997833,0.0,0,False
2023-09-29,1.0347032393997833,1.0347032393997833,0.0,0,False
2023-09-30,1.0347032393997833,1.0347032393997833,0.0,0,False
2023-10-01,1.0347032393997833,1.0347032393997833,0.0,0,False
2023-10-02,1.0347032393997833,1.0347032393997833,0.0,0,False
2023-10-03,1.0347032393997833,1.034852459305207,0.014421517179208365,1,True
2023-10-04,1.034852459305207,1.0295298745795165,-0.5143327126326924,0,True
2023-10-05,1.0295298745795165,1.0295298745795165,0.0,0,False
2023-10-06,1.0295298745795165,1.0295298745795165,0.0,0,False
2023-10-07,1.0295298745795165,1.0295298745795165,0.0,0,False
2023-10-08,1.0295298745795165,1.0295298745795165,0.0,0,False
2023-10-09,1.0295298745795165,1.0295298745795165,0.0,0,False
2023-10-10,1.0295298745795165,1.0295298745795165,0.0,0,False
2023-10-11,1.0295298745795165,1.0295298745795165,0.0,0,False
2023-10-12,1.0295298745795165,1.0295298745795165,0.0,0,False
2023-10-13,1.0295298745795165,1.0295298745795165,0.0,0,False
2023-10-14,1.0295298745795165,1.0295298745795165,0.0,0,False
2023-10-15,1.0295298745795165,1.0295298745795165,0.0,0,False
2023-10-16,1.0295298745795165,1.0295298745795165,0.0,0,False
2023-10-17,1.0295298745795165,1.0295298745795165,0.0,0,False
2023-10-18,1.0295298745795165,1.0295298745795165,0.0,0,False
2023-10-19,1.0295298745795165,1.0243897537335307,-0.4992687412869068,1,True
2023-10-20,1.0243897537335307,1.0243897537335307,0.0,0,False
2023-10-21,1.0243897537335307,1.024986024672718,0.058207429058532156,1,True
2023-10-22,1.024986024672718,1.024986024672718,0.0,0,False
2023-10-23,1.024986024672718,1.024986024672718,0.0,0,False
2023-10-24,1.024986024672718,1.024986024672718,0.0,0,False
2023-10-25,1.024986024672718,1.024986024672718,0.0,0,False
2023-10-26,1.024986024672718,1.024986024672718,0.0,0,False
2023-10-27,1.024986024672718,1.025598766894416,0.05978054402191457,1,True
2023-10-28,1.025598766894416,1.026585514714089,0.09621187656658758,0,True
2023-10-29,1.026585514714089,1.026585514714089,0.0,0,False
2023-10-30,1.026585514714089,1.026585514714089,0.0,0,False
2023-10-31,1.026585514714089,1.026585514714089,0.0,0,False
2023-11-01,1.026585514714089,1.026585514714089,0.0,0,False
2023-11-02,1.026585514714089,1.026585514714089,0.0,0,False
2023-11-03,1.026585514714089,1.026585514714089,0.0,0,False
2023-11-04,1.026585514714089,1.026585514714089,0.0,0,False
2023-11-05,1.026585514714089,1.026585514714089,0.0,0,False
2023-11-06,1.026585514714089,1.026585514714089,0.0,0,False
2023-11-07,1.026585514714089,1.026585514714089,0.0,0,False
2023-11-08,1.026585514714089,1.026585514714089,0.0,0,False
2023-11-09,1.026585514714089,1.026585514714089,0.0,0,False
2023-11-10,1.026585514714089,1.039862758301096,1.2933402426494212,4,True
2023-11-11,1.039862758301096,1.039862758301096,0.0,0,False
2023-11-12,1.039862758301096,1.039862758301096,0.0,0,False
2023-11-13,1.039862758301096,1.039862758301096,0.0,0,False
2023-11-14,1.039862758301096,1.039862758301096,0.0,0,False
2023-11-15,1.039862758301096,1.039862758301096,0.0,0,False
2023-11-16,1.039862758301096,1.039862758301096,0.0,0,False
2023-11-17,1.039862758301096,1.039862758301096,0.0,0,False
2023-11-18,1.039862758301096,1.039862758301096,0.0,0,False
2023-11-19,1.039862758301096,1.039862758301096,0.0,0,False
2023-11-20,1.039862758301096,1.039862758301096,0.0,0,False
2023-11-21,1.039862758301096,1.039862758301096,0.0,0,False
2023-11-22,1.039862758301096,1.039862758301096,0.0,0,False
2023-11-23,1.039862758301096,1.039862758301096,0.0,0,False
2023-11-24,1.039862758301096,1.039862758301096,0.0,0,False
2023-11-25,1.039862758301096,1.039862758301096,0.0,0,False
2023-11-26,1.039862758301096,1.039862758301096,0.0,0,False
2023-11-27,1.039862758301096,1.039862758301096,0.0,0,False
2023-11-28,1.039862758301096,1.039862758301096,0.0,0,False
2023-11-29,1.039862758301096,1.039862758301096,0.0,0,False
2023-11-30,1.039862758301096,1.039862758301096,0.0,0,False
2023-12-01,1.039862758301096,1.039862758301096,0.0,0,False
2023-12-02,1.039862758301096,1.039862758301096,0.0,0,False
2023-12-03,1.039862758301096,1.0403598876589666,0.047807208586148064,1,True
2023-12-04,1.0403598876589666,1.0470433202130396,0.6424154404022886,4,True
2023-12-05,1.0470433202130396,1.0513294459418467,0.40935514759170566,0,True
2023-12-06,1.0513294459418467,1.0513294459418467,0.0,0,False
2023-12-07,1.0513294459418467,1.0513294459418467,0.0,0,False
2023-12-08,1.0513294459418467,1.0513294459418467,0.0,0,False
2023-12-09,1.0513294459418467,1.0513294459418467,0.0,0,False
2023-12-10,1.0513294459418467,1.0513294459418467,0.0,0,False
2023-12-11,1.0513294459418467,1.0612214184102085,0.9409013042053438,4,True
2023-12-12,1.0612214184102085,1.0612214184102085,0.0,0,False
2023-12-13,1.0612214184102085,1.0612214184102085,0.0,0,False
2023-12-14,1.0612214184102085,1.0612214184102085,0.0,0,False
2023-12-15,1.0612214184102085,1.0612214184102085,0.0,0,False
2023-12-16,1.0612214184102085,1.0612214184102085,0.0,0,False
2023-12-17,1.0612214184102085,1.0612214184102085,0.0,0,False
2023-12-18,1.0612214184102085,1.0612214184102085,0.0,0,False
2023-12-19,1.0612214184102085,1.0612214184102085,0.0,0,False
2023-12-20,1.0612214184102085,1.0612214184102085,0.0,0,False
2023-12-21,1.0612214184102085,1.0612214184102085,0.0,0,False
2023-12-22,1.0612214184102085,1.0612214184102085,0.0,0,False
2023-12-23,1.0612214184102085,1.0612214184102085,0.0,0,False
2023-12-24,1.0612214184102085,1.0599711628566002,-0.11781288352445962,1,True
2023-12-25,1.0599711628566002,1.0624420717781338,0.23311095698816953,0,True
2023-12-26,1.0624420717781338,1.0624420717781338,0.0,0,False
2023-12-27,1.0624420717781338,1.057136070744333,-0.49941556106871676,1,True
2023-12-28,1.057136070744333,1.057136070744333,0.0,0,False
2023-12-29,1.057136070744333,1.057136070744333,0.0,0,False
2023-12-30,1.057136070744333,1.057136070744333,0.0,0,False
2023-12-31,1.057136070744333,1.057136070744333,0.0,0,False
