day,start_equity,end_equity,return_pct,entries,active
2024-01-02,1.0,0.9990134675237569,-0.09865324762431404,1,True
2024-01-03,0.9990134675237569,0.9904518335542647,-0.8570088640260098,8,True
2024-01-04,0.9904518335542647,1.0104125585451234,2.0153150627455485,4,True
2024-01-05,1.0104125585451234,0.9898071030453615,-2.039311103717012,4,True
2024-01-06,0.9898071030453615,0.9798549252377242,-1.0054663961308385,7,True
2024-01-07,0.9798549252377242,0.9783355206837343,-0.15506423602670294,3,True
2024-01-08,0.9783355206837343,0.9728834003243646,-0.5572853324960936,7,True
2024-01-09,0.9728834003243646,0.9748016445906547,0.19717103464305108,0,True
2024-01-10,0.9748016445906547,0.967552779393947,-0.7436246375796429,4,True
2024-01-11,0.967552779393947,0.9794893595582944,1.2336877551862635,3,True
2024-01-12,0.9794893595582944,0.9751494527534829,-0.44307850437177443,5,True
2024-01-13,0.9751494527534829,0.9595768185095409,-1.5969484677420764,5,True
2024-01-14,0.9595768185095409,0.9642178494902592,0.4836539286064756,0,True
2024-01-15,0.9642178494902592,0.9588822045008625,-0.5533650919465449,2,True
2024-01-16,0.9588822045008625,0.9600665534837814,0.12351350117456583,1,True
2024-01-17,0.9600665534837814,0.9654720912335822,0.5630378154708016,0,True
2024-01-18,0.9654720912335822,0.9647090025642381,-0.07903787963141617,1,True
2024-01-19,0.9647090025642381,0.9558536552798179,-0.9179293715392167,1,True
2024-01-20,0.9558536552798179,0.9734987098960025,1.8459995961431108,6,True
2024-01-21,0.9734987098960025,0.9750551762347857,0.1598837597791336,1,True
2024-01-22,0.9750551762347857,0.9539862239143859,-2.1607959050849113,4,True
2024-01-23,0.9539862239143859,0.9294431951962129,-2.5726816701260424,8,True
2024-01-24,0.9294431951962129,0.9386284796158277,0.9882566752964062,1,True
2024-01-25,0.9386284796158277,0.9290506789259105,-1.0204038017083472,2,True
2024-01-26,0.9290506789259105,0.9290506789259105,0.0,0,False
2024-01-27,0.9290506789259105,0.9290506789259105,0.0,0,False
2024-01-28,0.9290506789259105,0.9260893867161376,-0.31874388307820967,2,True
2024-01-29,0.9260893867161376,0.9260185042064801,-0.007653959830900003,0,True
2024-01-30,0.9260185042064801,0.9260185042064801,0.0,0,False
2024-01-31,0.9260185042064801,0.9213993567551058,-0.4988180506535933,1,True
2024-02-01,0.9213993567551058,0.9213993567551058,0.0,0,False
2024-02-02,0.9213993567551058,0.9211529017876986,-0.026747898791146252,2,True
2024-02-03,0.9211529017876986,0.9310989406061734,1.0797380976787174,1,True
2024-02-04,0.9310989406061734,0.9305931390071456,-0.054323077491480465,1,True
2024-02-05,0.9305931390071456,0.9305931390071456,0.0,0,False
2024-02-06,0.9305931390071456,0.9243499295735681,-0.6708849627065194,2,True
2024-02-07,0.9243499295735681,0.9199424412202589,-0.47682032662050844,4,True
2024-02-08,0.9199424412202589,0.944067111881183,2.622410879198478,1,True
2024-02-09,0.944067111881183,0.9571220604075573,1.3828411520829809,0,True
2024-02-10,0.9571220604075573,0.9514616737655179,-0.5913965288428469,2,True
2024-02-11,0.9514616737655179,0.9495981488594364,-0.195859166739365,0,True
2024-02-12,0.9495981488594364,0.9517110447643236,0.2225042148012779,1,True
2024-02-13,0.9517110447643236,0.951782904134822,0.007550544978318641,0,True
2024-02-14,0.951782904134822,0.9535426105774175,0.1848852753028929,2,True
2024-02-15,0.9535426105774175,0.9635056303759618,1.0448426413279144,1,True
2024-02-16,0.9635056303759618,0.9631187518902624,-0.0401532148336714,3,True
2024-02-17,0.9631187518902624,0.9593177978564497,-0.39465061046239924,5,True
2024-02-18,0.9593177978564497,0.9630436864932501,0.3883893997511434,1,True
2024-02-19,0.9630436864932501,0.964497036022781,0.15091210813322764,2,True
2024-02-20,0.964497036022781,0.9594043274443265,-0.5280170273467055,6,True
2024-02-21,0.9594043274443265,0.9419901930739221,-1.8150985848471635,6,True
2024-02-22,0.9419901930739221,0.9650632542029992,2.4493950466495384,2,True
2024-02-23,0.9650632542029992,0.9668489359460515,0.1850326116216161,3,True
2024-02-24,0.9668489359460515,0.9637095919810421,-0.32469849717914334,5,True
2024-02-25,0.9637095919810421,0.9554642124622204,-0.8555875740400398,4,True
2024-02-26,0.9554642124622204,0.9508170371247334,-0.48637879649214844,5,True
2024-02-27,0.9508170371247334,0.9485007124859933,-0.24361412851253705,2,True
2024-02-28,0.9485007124859933,0.9880782093424842,4.172637546339786,5,True
2024-02-29,0.9880782093424842,1.0146712870307935,2.6913940047322393,6,True
2024-03-01,1.0146712870307935,1.0106151607140033,-0.3997478167199864,5,True
2024-03-02,1.0106151607140033,1.0201844131602618,0.9468740246779683,4,True
2024-03-03,1.0201844131602618,1.0244486246585451,0.4179843803998162,9,True
2024-03-04,1.0244486246585451,1.058911932291518,3.3640835473286446,1,True
2024-03-05,1.058911932291518,1.078929346993852,1.890375780261122,8,True
2024-03-06,1.078929346993852,1.065292637153815,-1.263911291136166,13,True
2024-03-07,1.065292637153815,1.0701438606483153,0.4553888129238848,5,True
2024-03-08,1.0701438606483153,1.0736211539672142,0.32493699648870056,5,True
2024-03-09,1.0736211539672142,1.0603482062366978,-1.2362785216620042,5,True
2024-03-10,1.0603482062366978,1.0981388179044773,3.563981288929874,6,True
2024-03-11,1.0981388179044773,1.1111879441718613,1.1882947815545775,3,True
2024-03-12,1.1111879441718613,1.1088182559557735,-0.21325719276533706,4,True
2024-03-13,1.1088182559557735,1.1210766980298594,1.1055411478159138,5,True
2024-03-14,1.1210766980298594,1.1421975838637797,1.8839822352063385,5,True
2024-03-15,1.1421975838637797,1.1100823630800352,-2.811704492939515,14,True
2024-03-16,1.1100823630800352,1.1259201443987306,1.4267212817210995,1,True
2024-03-17,1.1259201443987306,1.1164868720320764,-0.8378278347343837,7,True
2024-03-18,1.1164868720320764,1.1160853945854001,-0.03595899394192026,4,True
2024-03-19,1.1160853945854001,1.0929284115581281,-2.074839715636123,10,True
2024-03-20,1.0929284115581281,1.0779042052330978,-1.374674330554837,4,True
2024-03-21,1.0779042052330978,1.0787298306285782,0.07659543320008844,4,True
2024-03-22,1.0787298306285782,1.0868881141361104,0.7562860760769397,6,True
2024-03-23,1.0868881141361104,1.1220569015672066,3.2357320844426996,5,True
2024-03-24,1.1220569015672066,1.1204427818883158,-0.14385363849518384,4,True
2024-03-25,1.1204427818883158,1.1349588075246224,1.29556152897361,4,True
2024-03-26,1.1349588075246224,1.1742983173794852,3.4661619077315464,5,True
2024-03-27,1.1742983173794852,1.167676131556834,-0.5639270468707602,6,True
2024-03-28,1.167676131556834,1.154572890852031,-1.122163958882405,2,True
2024-03-29,1.154572890852031,1.141152986323865,-1.1623263143016094,6,True
2024-03-30,1.141152986323865,1.1290867472774373,-1.0573726039396436,2,True
2024-03-31,1.1290867472774373,1.12898732676544,-0.008805391812194419,0,True
2024-04-01,1.12898732676544,1.127392034214913,-0.14130296352373728,5,True
2024-04-02,1.127392034214913,1.0936589473489622,-2.992134576278227,5,True
2024-04-03,1.0936589473489622,1.068222866335805,-2.3257781664763333,3,True
2024-04-04,1.068222866335805,1.0675557081342624,-0.062454963525659934,1,True
2024-04-05,1.0675557081342624,1.0577294720909953,-0.9204424620088525,5,True
2024-04-06,1.0577294720909953,1.0529918327401624,-0.4479065276934424,1,True
2024-04-07,1.0529918327401624,1.0760013653911087,2.185157751040623,3,True
2024-04-08,1.0760013653911087,1.0586308313138297,-1.6143598545495408,1,True
2024-04-09,1.0586308313138297,1.0457132135466083,-1.220219304513348,3,True
2024-04-10,1.0457132135466083,1.038969017582427,-0.6449374337833769,5,True
2024-04-11,1.038969017582427,1.0530546407207066,1.3557308158288706,1,True
2024-04-12,1.0530546407207066,1.0401082507963089,-1.2294129310837398,7,True
2024-04-13,1.0401082507963089,1.0139735526897589,-2.5126902018651642,11,True
2024-04-14,1.0139735526897589,0.9827593200875424,-3.078406978112469,15,True
2024-04-15,0.9827593200875424,0.9956944264535432,1.316202868963745,1,True
2024-04-16,0.9956944264535432,0.9870860409381594,-0.8645609824336487,1,True
2024-04-17,0.9870860409381594,0.9858174560991991,-0.12851816218114598,0,True
2024-04-18,0.9858174560991991,1.0087219773842317,2.3234039064051526,1,True
2024-04-19,1.0087219773842317,1.028377139425597,1.9485212458971057,5,True
2024-04-20,1.028377139425597,1.0282597937584288,-0.011410761934449454,0,True
2024-04-21,1.0282597937584288,1.0282597937584288,0.0,0,False
2024-04-22,1.0282597937584288,1.0282597937584288,0.0,0,False
2024-04-23,1.0282597937584288,1.0434306362753787,1.4753900336313297,3,True
2024-04-24,1.0434306362753787,1.0359438866330104,-0.7175129215194365,2,True
2024-04-25,1.0359438866330104,1.0368398886000822,0.08649136103153765,2,True
2024-04-26,1.0368398886000822,1.030748801134546,-0.5874665444980387,1,True
2024-04-27,1.030748801134546,1.0349192691831879,0.4046056657113217,6,True
2024-04-28,1.0349192691831879,1.0427402403796042,0.7557083368047612,3,True
2024-04-29,1.0427402403796042,1.0490804525354414,0.6080337087143617,2,True
2024-04-30,1.0490804525354414,1.0390309661857893,-0.9579328568523282,2,True
2024-05-01,1.0390309661857893,1.0249179912277193,-1.3582824205786381,6,True
2024-05-02,1.0249179912277193,1.0370160898108576,1.1803967426356143,3,True
2024-05-03,1.0370160898108576,1.0419779533991989,0.4784750822184769,1,True
2024-05-04,1.0419779533991989,1.043041098504935,0.10203143955858085,0,True
2024-05-05,1.043041098504935,1.038724611463214,-0.4138367172595636,1,True
2024-05-06,1.038724611463214,1.0378333823239325,-0.08580032950467054,0,True
2024-05-07,1.0378333823239325,1.0424281561508282,0.4427275037739653,3,True
2024-05-08,1.0424281561508282,1.0441976092935235,0.16974341418682926,3,True
2024-05-09,1.0441976092935235,1.0369175907900854,-0.6971878156629363,1,True
2024-05-10,1.0369175907900854,1.0331493791114583,-0.36340512612539344,2,True
2024-05-11,1.0331493791114583,1.0293200743423336,-0.370643862983111,4,True
2024-05-12,1.0293200743423336,1.0232623503259564,-0.5885170383223892,0,True
2024-05-13,1.0232623503259564,1.0218788472188844,-0.13520512179806543,4,True
2024-05-14,1.0218788472188844,1.0110183639919244,-1.0627955805639466,3,True
2024-05-15,1.0110183639919244,1.015577571188937,0.4509519667883266,3,True
2024-05-16,1.015577571188937,1.0207681589196747,0.5110971212825222,2,True
2024-05-17,1.0207681589196747,1.0214522486027935,0.06701714558208227,0,True
2024-05-18,1.0214522486027935,1.0292581244928616,0.7641939112420948,2,True
2024-05-19,1.0292581244928616,1.0282879606668731,-0.09425855408879968,0,True
2024-05-20,1.0282879606668731,1.0352909040285303,0.6810294031951436,2,True
2024-05-21,1.0352909040285303,1.02779438599495,-0.7240977395251647,2,True
2024-05-22,1.02779438599495,1.032706705140722,0.47794765302366926,1,True
2024-05-23,1.032706705140722,1.0242199279006774,-0.8217993741880592,6,True
2024-05-24,1.0242199279006774,1.0415493317155176,1.6919612031333742,2,True
2024-05-25,1.0415493317155176,1.0401652432764843,-0.13288745879693753,0,True
2024-05-26,1.0401652432764843,1.0460413779195301,0.5649231870636484,3,True
2024-05-27,1.0460413779195301,1.0702793757223077,2.3171165418890416,3,True
2024-05-28,1.0702793757223077,1.0822815585808996,1.1214065346715651,2,True
2024-05-29,1.0822815585808996,1.0833367695870293,0.09749875138900244,1,True
2024-05-30,1.0833367695870293,1.0584540775978735,-2.2968565904618155,5,True
2024-05-31,1.0584540775978735,1.0579658153303233,-0.046129754505574994,1,True
2024-06-01,1.0579658153303233,1.0536615004687555,-0.40684819860874466,2,True
2024-06-02,1.0536615004687555,1.0664572589800554,1.2144088500535721,0,True
2024-06-03,1.0664572589800554,1.0522261949646827,-1.3344242252130267,5,True
2024-06-04,1.0522261949646827,1.0491105852648974,-0.2960969527934898,6,True
2024-06-05,1.0491105852648974,1.0502892111271642,0.11234524546992475,0,True
2024-06-06,1.0502892111271642,1.0467480991266391,-0.33715589601504004,2,True
2024-06-07,1.0467480991266391,1.0457725554423494,-0.09319755967110988,0,True
2024-06-08,1.0457725554423494,1.0761458262842447,2.904385918699859,7,True
2024-06-09,1.0761458262842447,1.0844920920541627,0.775570147285376,1,True
2024-06-10,1.0844920920541627,1.077216228997438,-0.6709005173973437,0,True
2024-06-11,1.077216228997438,1.0744107126045845,-0.2604413410541184,2,True
2024-06-12,1.0744107126045845,1.086319131457841,1.1083674719128744,3,True
2024-06-13,1.086319131457841,1.0786288524024819,-0.7079207971822155,4,True
2024-06-14,1.0786288524024819,1.060381248668322,-1.6917407404332008,5,True
2024-06-15,1.060381248668322,1.0665594949889328,0.5826438677946966,5,True
2024-06-16,1.0665594949889328,1.0677530909661983,0.11191086693929098,0,True
2024-06-17,1.0677530909661983,1.0489691264678045,-1.759204881476517,4,True
2024-06-18,1.0489691264678045,1.052078971695917,0.29646680246768753,5,True
2024-06-19,1.052078971695917,1.0489368137386137,-0.29866179648455615,2,True
2024-06-20,1.0489368137386137,1.0564166232142753,0.7130848472180151,1,True
2024-06-21,1.0564166232142753,1.0543043645794714,-0.19994560747984558,1,True
2024-06-22,1.0543043645794714,1.0592422565623694,0.46835545301640025,2,True
2024-06-23,1.0592422565623694,1.0613052637336367,0.194762544496907,2,True
2024-06-24,1.0613052637336367,1.0617526079187911,0.042150378448213566,1,True
2024-06-25,1.0617526079187911,1.0731422314091266,1.0727191443081097,0,True
2024-06-26,1.0731422314091266,1.0731422314091266,0.0,0,False
2024-06-27,1.0731422314091266,1.0682336837923612,-0.4573995387657126,2,True
2024-06-28,1.0682336837923612,1.0603189827604442,-0.7409147597573162,2,True
2024-06-29,1.0603189827604442,1.0418066325602802,-1.7459227365682728,5,True
2024-06-30,1.0418066325602802,1.0530770242295042,1.0818122401012875,0,True
2024-07-01,1.0530770242295042,1.0458515942186308,-0.6861255012338696,2,True
2024-07-02,1.0458515942186308,1.051861180309888,0.5746117445799781,0,True
2024-07-03,1.051861180309888,1.0466184150049038,-0.4984274924415111,1,True
2024-07-04,1.0466184150049038,1.0286337004858,-1.7183640437875902,5,True
2024-07-05,1.0286337004858,0.9686208292153413,-5.834231489996478,18,True
2024-07-06,0.9686208292153413,0.9807632669536079,1.2535800771601213,1,True
2024-07-07,0.9807632669536079,0.9789832055276407,-0.18149756276010232,1,True
2024-07-08,0.9789832055276407,0.9794982412545802,0.052609250499036087,2,True
2024-07-09,0.9794982412545802,0.9954736167883728,1.630975417917102,2,True
2024-07-10,0.9954736167883728,0.9971858629568513,0.1720031691048396,1,True
2024-07-11,0.9971858629568513,0.98594844808706,-1.126912773960731,2,True
2024-07-12,0.98594844808706,0.98594844808706,0.0,0,False
2024-07-13,0.98594844808706,0.9847789857761008,-0.11861292679431479,2,True
2024-07-14,0.9847789857761008,1.0110211484608111,2.6647768751918433,1,True
2024-07-15,1.0110211484608111,1.0139308721949905,0.2878004815833002,0,True
2024-07-16,1.0139308721949905,0.9987874022131503,-1.4935406739373769,3,True
2024-07-17,0.9987874022131503,0.9938007021440705,-0.4992754271860189,1,True
2024-07-18,0.9938007021440705,0.9938007021440705,0.0,0,False
2024-07-19,0.9938007021440705,0.991178023544569,-0.2639038786995451,2,True
2024-07-20,0.991178023544569,0.9938670821703525,0.271299258246982,1,True
2024-07-21,0.9938670821703525,0.9935742735674937,-0.029461545523701282,1,True
2024-07-22,0.9935742735674937,0.9934362612981154,-0.013890483384082497,1,True
2024-07-23,0.9934362612981154,0.986872378175844,-0.6607251393959013,3,True
2024-07-24,0.986872378175844,0.9818811630442802,-0.5057609516632366,1,True
2024-07-25,0.9818811630442802,0.9752940241072913,-0.6708692645213565,3,True
2024-07-26,0.9752940241072913,0.974044002262557,-0.12816871772369787,0,True
2024-07-27,0.974044002262557,0.9779852264214701,0.40462485778447466,1,True
2024-07-28,0.9779852264214701,0.965238436655654,-1.3033724254156387,2,True
2024-07-29,0.965238436655654,0.9644916902833038,-0.07736392833023187,0,True
2024-07-30,0.9644916902833038,0.961003718666308,-0.3616383274355983,2,True
2024-07-31,0.961003718666308,0.9473164809348976,-1.4242648041368322,5,True
2024-08-01,0.9473164809348976,0.9474914793070416,0.018473063191226657,1,True
2024-08-02,0.9474914793070416,0.932548904524612,-1.5770669297583528,4,True
2024-08-03,0.932548904524612,0.9271237722472563,-0.5817531124677422,7,True
2024-08-04,0.9271237722472563,0.8942422302455192,-3.5466183681209573,4,True
2024-08-05,0.8942422302455192,0.8755747874614473,-2.0875152338697522,16,True
2024-08-06,0.8755747874614473,0.8900087280829715,1.6485103075400742,0,True
2024-08-07,0.8900087280829715,0.8897117118575282,-0.03337228232391798,1,True
2024-08-08,0.8897117118575282,0.8855690441095382,-0.46561910928889505,0,True
2024-08-09,0.8855690441095382,0.8855690441095382,0.0,0,False
2024-08-10,0.8855690441095382,0.8855690441095382,0.0,0,False
2024-08-11,0.8855690441095382,0.881142066676881,-0.49990200787886074,1,True
2024-08-12,0.881142066676881,0.8824551754535132,0.14902350327961056,1,True
2024-08-13,0.8824551754535132,0.8767428500628468,-0.647321875327056,0,True
2024-08-14,0.8767428500628468,0.8767428500628468,0.0,0,False
2024-08-15,0.8767428500628468,0.8767428500628468,0.0,0,False
2024-08-16,0.8767428500628468,0.8767428500628468,0.0,0,False
2024-08-17,0.8767428500628468,0.9026539618395656,2.9553833002301078,1,True
2024-08-18,0.9026539618395656,0.9226521756209659,2.2154906117782813,1,True
2024-08-19,0.9226521756209659,0.9139127677057799,-0.9472050406540422,3,True
2024-08-20,0.9139127677057799,0.9045355286097323,-1.0260540641737093,2,True
2024-08-21,0.9045355286097323,0.9036974777388949,-0.09264985667567505,0,True
2024-08-22,0.9036974777388949,0.904281562964086,0.06463282675663873,1,True
2024-08-23,0.904281562964086,0.9049007132250237,0.0684687475998258,0,True
2024-08-24,0.9049007132250237,0.9027331490372842,-0.2395361343030089,2,True
2024-08-25,0.9027331490372842,0.9012900352061255,-0.1598605116802987,2,True
2024-08-26,0.9012900352061255,0.9042489162861138,0.3282939968721088,2,True
2024-08-27,0.9042489162861138,0.896807749390081,-0.8229113424426115,1,True
2024-08-28,0.896807749390081,0.897811985226505,0.11197894276748777,4,True
2024-08-29,0.897811985226505,0.8907566352286008,-0.7858382505468775,3,True
2024-08-30,0.8907566352286008,0.8933591548338209,0.29216954466493306,0,True
2024-08-31,0.8933591548338209,0.8933591548338209,0.0,0,False
2024-09-01,0.8933591548338209,0.8889080193139476,-0.49824703712822993,1,True
2024-09-02,0.8889080193139476,0.8902533181328961,0.15134285997180363,1,True
2024-09-03,0.8902533181328961,0.8879963504773976,-0.2535197128197164,0,True
2024-09-04,0.8879963504773976,0.8879963504773976,0.0,0,False
2024-09-05,0.8879963504773976,0.8879963504773976,0.0,0,False
2024-09-06,0.8879963504773976,0.8878635072062669,-0.014959889312515795,1,True
2024-09-07,0.8878635072062669,0.8895358556685717,0.1883564814559202,0,True
2024-09-08,0.8895358556685717,0.8895358556685717,0.0,0,False
2024-09-09,0.8895358556685717,0.8895358556685717,0.0,0,False
2024-09-10,0.8895358556685717,0.8895358556685717,0.0,0,False
2024-09-11,0.8895358556685717,0.8806861418014288,-0.9948687071744344,2,True
2024-09-12,0.8806861418014288,0.8806861418014288,0.0,0,False
2024-09-13,0.8806861418014288,0.8805558559575316,-0.014793674808000201,1,True
2024-09-14,0.8805558559575316,0.8826611817751152,0.23909054756034998,0,True
2024-09-15,0.8826611817751152,0.8850044252216572,0.2654748497979087,2,True
2024-09-16,0.8850044252216572,0.8792667305520369,-0.6483238395314617,2,True
2024-09-17,0.8792667305520369,0.8861926380955566,0.7876913003601826,1,True
2024-09-18,0.8861926380955566,0.8862958138076455,0.01164258284864772,0,True
2024-09-19,0.8862958138076455,0.8858645705153778,-0.04865681249413001,1,True
2024-09-20,0.8858645705153778,0.8887827685657662,0.32941807896105235,2,True
2024-09-21,0.8887827685657662,0.8804916474925246,-0.9328624908672589,2,True
2024-09-22,0.8804916474925246,0.890103730121255,1.0916722101911747,2,True
2024-09-23,0.890103730121255,0.8886129024909554,-0.16748920152221958,0,True
2024-09-24,0.8886129024909554,0.8886129024909554,0.0,0,False
2024-09-25,0.8886129024909554,0.8886129024909554,0.0,0,False
2024-09-26,0.8886129024909554,0.8886129024909554,0.0,0,False
2024-09-27,0.8886129024909554,0.8886129024909554,0.0,0,False
2024-09-28,0.8886129024909554,0.8886129024909554,0.0,0,False
2024-09-29,0.8886129024909554,0.8886129024909554,0.0,0,False
2024-09-30,0.8886129024909554,0.884824743012225,-0.4263003010772648,2,True
2024-10-01,0.884824743012225,0.8851786137242009,0.039993311078889704,0,True
2024-10-02,0.8851786137242009,0.8650952477502033,-2.2688489828624703,11,True
2024-10-03,0.8650952477502033,0.8662990788734264,0.13915590524324895,3,True
2024-10-04,0.8662990788734264,0.8692424061550477,0.3397587915537015,2,True
2024-10-05,0.8692424061550477,0.8699370515769486,0.07991389018553452,0,True
2024-10-06,0.8699370515769486,0.8699370515769486,0.0,0,False
2024-10-07,0.8699370515769486,0.8699370515769486,0.0,0,False
2024-10-08,0.8699370515769486,0.8630975730219491,-0.7862038457381981,2,True
2024-10-09,0.8630975730219491,0.8635883152085969,0.05685825125536503,0,True
2024-10-10,0.8635883152085969,0.8635883152085969,0.0,0,False
2024-10-11,0.8635883152085969,0.8627408506120282,-0.09813293923088828,1,True
2024-10-12,0.8627408506120282,0.8614634896612162,-0.1480584754861014,1,True
2024-10-13,0.8614634896612162,0.8614056731087887,-0.006711433870554284,0,True
2024-10-14,0.8614056731087887,0.8614056731087887,0.0,0,False
2024-10-15,0.8614056731087887,0.8616744426693091,0.031201275880898827,1,True
2024-10-16,0.8616744426693091,0.8562257546284228,-0.6323371996513338,5,True
2024-10-17,0.8562257546284228,0.8519585079194998,-0.49837869111690747,2,True
2024-10-18,0.8519585079194998,0.86065611157362,1.020895216524087,2,True
2024-10-19,0.86065611157362,0.8533967419475947,-0.8434692472876537,3,True
2024-10-20,0.8533967419475947,0.855569310188776,0.25457892377502844,2,True
2024-10-21,0.855569310188776,0.8595116849956953,0.46078964731091077,2,True
2024-10-22,0.8595116849956953,0.8564252777156948,-0.35908846079457657,0,True
2024-10-23,0.8564252777156948,0.8521488849892204,-0.4993305122754754,1,True
2024-10-24,0.8521488849892204,0.8459880669129366,-0.7229743751130613,3,True
2024-10-25,0.8459880669129366,0.8429880207099123,-0.3546203924567948,2,True
2024-10-26,0.8429880207099123,0.8251178921467394,-2.1198555761354543,10,True
2024-10-27,0.8251178921467394,0.8339781709705641,1.0738197423852514,1,True
2024-10-28,0.8339781709705641,0.830871353316528,-0.372529852960124,1,True
2024-10-29,0.830871353316528,0.8456653250278685,1.780536981120906,2,True
2024-10-30,0.8456653250278685,0.8485725610209317,0.3437809150998783,0,True
2024-10-31,0.8485725610209317,0.8485725610209317,0.0,0,False
2024-11-01,0.8485725610209317,0.8446873508832364,-0.45785243550897636,3,True
2024-11-02,0.8446873508832364,0.8378553691257868,-0.8088178129228352,1,True
2024-11-03,0.8378553691257868,0.8315625966922179,-0.7510571233952712,2,True
2024-11-04,0.8315625966922179,0.8451426556136187,1.6330771700674651,4,True
2024-11-05,0.8451426556136187,0.8379075264128785,-0.8560837809667876,1,True
2024-11-06,0.8379075264128785,0.843112082562098,0.6211372956035577,2,True
2024-11-07,0.843112082562098,0.8393247166349743,-0.4492126261094964,2,True
2024-11-08,0.8393247166349743,0.8361532193351296,-0.37786296971688005,2,True
2024-11-09,0.8361532193351296,0.8356213728773647,-0.0636063397791875,2,True
2024-11-10,0.8356213728773647,0.8491219123056234,1.6156287843346107,3,True
2024-11-11,0.8491219123056234,0.8390249817527737,-1.1891025783839937,5,True
2024-11-12,0.8390249817527737,0.8323060154043626,-0.8008064711464091,6,True
2024-11-13,0.8323060154043626,0.8290102549711781,-0.395979408076641,2,True
2024-11-14,0.8290102549711781,0.828328011975037,-0.08229608645369257,3,True
2024-11-15,0.828328011975037,0.8488371148854273,2.475963943497339,6,True
2024-11-16,0.8488371148854273,0.851891967318362,0.3598867650063786,1,True
2024-11-17,0.851891967318362,0.8409126889307219,-1.2888111179403805,4,True
2024-11-18,0.8409126889307219,0.8399068978592,-0.11960707511748936,2,True
2024-11-19,0.8399068978592,0.8287550268304582,-1.3277508563349527,3,True
2024-11-20,0.8287550268304582,0.829190978558656,0.052603207713275424,1,True
2024-11-21,0.829190978558656,0.8469019178372571,2.1359300494787403,4,True
2024-11-22,0.8469019178372571,0.8470835091536776,0.021441835541491372,5,True
2024-11-23,0.8470835091536776,0.8738136498642025,3.1555496502618796,1,True
2024-11-24,0.8738136498642025,0.8672579340128682,-0.7502418682007406,11,True
2024-11-25,0.8672579340128682,0.8875205657701619,2.336402004826521,1,True
2024-11-26,0.8875205657701619,0.8731896133771088,-1.614717781848496,5,True
2024-11-27,0.8731896133771088,0.8805770251842753,0.8460260742904735,3,True
2024-11-28,0.8805770251842753,0.8793158702528531,-0.14321915009744002,2,True
2024-11-29,0.8793158702528531,0.8917872127725208,1.418300629110858,5,True
2024-11-30,0.8917872127725208,0.8960979362245645,0.4833802716952773,1,True
2024-12-01,0.8960979362245645,0.899413075686702,0.36995280628642213,3,True
2024-12-02,0.899413075686702,0.9033368445924816,0.4362588238762122,8,True
2024-12-03,0.9033368445924816,0.903577278288945,0.026616172904114777,7,True
2024-12-04,0.903577278288945,0.9267884673026248,2.568810612151906,3,True
2024-12-05,0.9267884673026248,0.9238358074232546,-0.31859048569775616,6,True
2024-12-06,0.9238358074232546,0.9263640979689314,0.273673148990472,2,True
2024-12-07,0.9263640979689314,0.9278347041812667,0.1587503461716322,2,True
2024-12-08,0.9278347041812667,0.9258837628919901,-0.21026819545385544,0,True
2024-12-09,0.9258837628919901,0.9190872464667486,-0.7340572000110179,3,True
2024-12-10,0.9190872464667486,0.8707117236202245,-5.263430978124683,16,True
2024-12-11,0.8707117236202245,0.8863145223291168,1.7919591852995076,3,True
2024-12-12,0.8863145223291168,0.8856689208104779,-0.07284113058898534,0,True
2024-12-13,0.8856689208104779,0.8856689208104779,0.0,0,False
2024-12-14,0.8856689208104779,0.8856689208104779,0.0,0,False
2024-12-15,0.8856689208104779,0.8793239918680887,-0.7163996379801696,3,True
2024-12-16,0.8793239918680887,0.8762660454188602,-0.34776106162326403,0,True
2024-12-17,0.8762660454188602,0.8762660454188602,0.0,0,False
2024-12-18,0.8762660454188602,0.8720865083695754,-0.47697124305290384,2,True
2024-12-19,0.8720865083695754,0.8645282857993941,-0.8666826625161161,9,True
2024-12-20,0.8645282857993941,0.8333474028742759,-3.606693203367717,12,True
2024-12-21,0.8333474028742759,0.8563190466501686,2.756550713023387,2,True
2024-12-22,0.8563190466501686,0.8597114153616113,0.3961571011077414,1,True
2024-12-23,0.8597114153616113,0.869004970124747,1.0810086497719196,3,True
2024-12-24,0.869004970124747,0.8670742912652678,-0.22217121027535702,0,True
2024-12-25,0.8670742912652678,0.8737245341748652,0.7669749843341567,3,True
2024-12-26,0.8737245341748652,0.8654791506451827,-0.9437051618871317,1,True
2024-12-27,0.8654791506451827,0.8654791506451827,0.0,0,False
2024-12-28,0.8654791506451827,0.8611674553847358,-0.49818591900597786,1,True
2024-12-29,0.8611674553847358,0.8966626127756877,4.12174858315959,4,True
2024-12-30,0.8966626127756877,0.8874570106332141,-1.0266517206485193,2,True
2024-12-31,0.8874570106332141,0.8841949458822843,-0.36757439648849033,2,True
