day,start_equity,end_equity,return_pct,entries,active
2021-09-02,1.0,1.0,0.0,0,False
2021-09-03,1.0,1.0,0.0,0,False
2021-09-04,1.0,1.0,0.0,0,False
2021-09-05,1.0,1.0,0.0,0,False
2021-09-06,1.0,1.0,0.0,0,False
2021-09-07,1.0,1.0,0.0,0,False
2021-09-08,1.0,1.0,0.0,0,False
2021-09-09,1.0,1.0,0.0,0,False
2021-09-10,1.0,1.0,0.0,0,False
2021-09-11,1.0,1.0,0.0,0,False
2021-09-12,1.0,1.0,0.0,0,False
2021-09-13,1.0,1.0,0.0,0,False
2021-09-14,1.0,1.0,0.0,0,False
2021-09-15,1.0,1.0,0.0,0,False
2021-09-16,1.0,1.0,0.0,0,False
2021-09-17,1.0,1.0,0.0,0,False
2021-09-18,1.0,1.0,0.0,0,False
2021-09-19,1.0,1.0,0.0,0,False
2021-09-20,1.0,1.0,0.0,0,False
2021-09-21,1.0,1.0,0.0,0,False
2021-09-22,1.0,1.0,0.0,0,False
2021-09-23,1.0,1.0,0.0,0,False
2021-09-24,1.0,1.0,0.0,0,False
2021-09-25,1.0,1.0,0.0,0,False
2021-09-26,1.0,1.0,0.0,0,False
2021-09-27,1.0,1.0,0.0,0,False
2021-09-28,1.0,1.0,0.0,0,False
2021-09-29,1.0,1.0,0.0,0,False
2021-09-30,1.0,1.0,0.0,0,False
2021-10-01,1.0,1.0,0.0,0,False
2021-10-02,1.0,1.0,0.0,0,False
2021-10-03,1.0,1.0,0.0,0,False
2021-10-04,1.0,1.0,0.0,0,False
2021-10-05,1.0,1.0,0.0,0,False
2021-10-06,1.0,1.0013367622167146,0.13367622167146376,1,True
2021-10-07,1.0013367622167146,1.0004939772081831,-0.08416599093653554,0,True
2021-10-08,1.0004939772081831,1.0004939772081831,0.0,0,False
2021-10-09,1.0004939772081831,0.9981469044963843,-0.2345913883807782,3,True
2021-10-10,0.9981469044963843,1.000300551514583,0.21576453410787622,1,True
2021-10-11,1.000300551514583,0.9966563313634399,-0.3643125204345177,0,True
2021-10-12,0.9966563313634399,0.9966563313634399,0.0,0,False
2021-10-13,0.9966563313634399,1.0093296859517973,1.2715872251591431,4,True
2021-10-14,1.0093296859517973,1.025946761222844,1.646347620834776,0,True
2021-10-15,1.025946761222844,1.0289138650380927,0.2892064118134474,1,True
2021-10-16,1.0289138650380927,1.0353227358002395,0.622877286419854,0,True
2021-10-17,1.0353227358002395,1.0353227358002395,0.0,0,False
2021-10-18,1.0353227358002395,1.0342276589517874,-0.10577154452284798,1,True
2021-10-19,1.0342276589517874,1.0362706290829926,0.1975358242957581,0,True
2021-10-20,1.0362706290829926,1.0362706290829926,0.0,0,False
2021-10-21,1.0362706290829926,1.0362706290829926,0.0,0,False
2021-10-22,1.0362706290829926,1.0362706290829926,0.0,0,False
2021-10-23,1.0362706290829926,1.0362706290829926,0.0,0,False
2021-10-24,1.0362706290829926,1.0362706290829926,0.0,0,False
2021-10-25,1.0362706290829926,1.039398313653592,0.3018212118360619,1,True
2021-10-26,1.039398313653592,1.0426869606068132,0.3163991041760683,0,True
2021-10-27,1.0426869606068132,1.03974847681333,-0.28181840806497105,6,True
2021-10-28,1.03974847681333,1.0429600417746239,0.30887902535206013,0,True
2021-10-29,1.0429600417746239,1.0429600417746239,0.0,0,False
2021-10-30,1.0429600417746239,1.0429600417746239,0.0,0,False
2021-10-31,1.0429600417746239,1.0429600417746239,0.0,0,False
2021-11-01,1.0429600417746239,1.0441628842310027,0.11532967785918835,1,True
2021-11-02,1.0441628842310027,1.0437096547429698,-0.043406014030711315,0,True
2021-11-03,1.0437096547429698,1.0436986877811298,-0.001050767499388705,1,True
2021-11-04,1.0436986877811298,1.0604065360552093,1.600830629537331,1,True
2021-11-05,1.0604065360552093,1.0604065360552093,0.0,0,False
2021-11-06,1.0604065360552093,1.05725082481873,-0.2975944724198709,1,True
2021-11-07,1.05725082481873,1.057425723501437,0.01654278044540547,0,True
2021-11-08,1.057425723501437,1.057425723501437,0.0,0,False
2021-11-09,1.057425723501437,1.057425723501437,0.0,0,False
2021-11-10,1.057425723501437,1.057425723501437,0.0,0,False
2021-11-11,1.057425723501437,1.043862167641764,-1.2826958488167062,10,True
2021-11-12,1.043862167641764,1.0465447724143342,0.25698840859713634,0,True
2021-11-13,1.0465447724143342,1.0453545750563273,-0.11372636788974377,1,True
2021-11-14,1.0453545750563273,1.0456873718060837,0.03183577684524597,0,True
2021-11-15,1.0456873718060837,1.0456873718060837,0.0,0,False
2021-11-16,1.0456873718060837,1.0651539544895734,1.8616063661424542,5,True
2021-11-17,1.0651539544895734,1.053898824621394,-1.0566669560526432,0,True
2021-11-18,1.053898824621394,1.050924518258762,-0.2822193452678423,2,True
2021-11-19,1.050924518258762,1.0545696081635718,0.3468460238085447,1,True
2021-11-20,1.0545696081635718,1.055097865257534,0.05009219779072982,0,True
2021-11-21,1.055097865257534,1.055097865257534,0.0,0,False
2021-11-22,1.055097865257534,1.0498307332017882,-0.49920791513118346,1,True
2021-11-23,1.0498307332017882,1.0498307332017882,0.0,0,False
2021-11-24,1.0498307332017882,1.0498307332017882,0.0,0,False
2021-11-25,1.0498307332017882,1.0521266210686506,0.21869124176432386,2,True
2021-11-26,1.0521266210686506,1.0324287984068512,-1.872191261712608,8,True
2021-11-27,1.0324287984068512,1.0480049215490068,1.5086873948296775,0,True
2021-11-28,1.0480049215490068,1.042773745421475,-0.49915568333399607,1,True
2021-11-29,1.042773745421475,1.042773745421475,0.0,0,False
2021-11-30,1.042773745421475,1.042773745421475,0.0,0,False
2021-12-01,1.042773745421475,1.042773745421475,0.0,0,False
2021-12-02,1.042773745421475,1.0405182257896548,-0.2163000019633654,2,True
2021-12-03,1.0405182257896548,1.034606828126972,-0.5681205303440628,1,True
2021-12-04,1.034606828126972,0.9620082256234982,-7.017023330003013,15,True
2021-12-05,0.9620082256234982,0.9591516641776268,-0.29693732026252473,1,True
2021-12-06,0.9591516641776268,0.953848331460991,-0.5529190966042652,7,True
2021-12-07,0.953848331460991,0.9773936772963315,2.468458040837218,0,True
2021-12-08,0.9773936772963315,0.9806932744626583,0.33759141715077323,1,True
2021-12-09,0.9806932744626583,0.9783933851987642,-0.23451667547677024,0,True
2021-12-10,0.9783933851987642,0.9735054374553392,-0.49958920587264144,1,True
2021-12-11,0.9735054374553392,0.973112327654693,-0.04038085310276163,1,True
2021-12-12,0.973112327654693,0.9746283580926121,0.1557919260536833,0,True
2021-12-13,0.9746283580926121,0.9712032703858149,-0.3514249999353791,1,True
2021-12-14,0.9712032703858149,0.9697606718716608,-0.14853723809856723,0,True
2021-12-15,0.9697606718716608,0.9697606718716608,0.0,0,False
2021-12-16,0.9697606718716608,0.9697606718716608,0.0,0,False
2021-12-17,0.9697606718716608,0.9700060728290165,0.025305311348833293,2,True
2021-12-18,0.9700060728290165,0.975587879050368,0.5754403377158379,0,True
2021-12-19,0.975587879050368,0.9725434100187946,-0.3120650734751762,1,True
2021-12-20,0.9725434100187946,0.9707133593155514,-0.18817162137861887,0,True
2021-12-21,0.9707133593155514,0.9681007630367414,-0.26914188969769937,1,True
2021-12-22,0.9681007630367414,0.9685381567832557,0.04518060136036173,0,True
2021-12-23,0.9685381567832557,0.9685381567832557,0.0,0,False
2021-12-24,0.9685381567832557,0.9685381567832557,0.0,0,False
2021-12-25,0.9685381567832557,0.9701068870580318,0.16196886656343334,1,True
2021-12-26,0.9701068870580318,0.9697831761616984,-0.03336858037521484,0,True
2021-12-27,0.9697831761616984,0.9697831761616984,0.0,0,False
2021-12-28,0.9697831761616984,0.9697831761616984,0.0,0,False
2021-12-29,0.9697831761616984,0.9697831761616984,0.0,0,False
2021-12-30,0.9697831761616984,0.9697831761616984,0.0,0,False
2021-12-31,0.9697831761616984,0.9697831761616984,0.0,0,False
2022-01-01,0.9697831761616984,0.9697831761616984,0.0,0,False
2022-01-02,0.9697831761616984,0.9697831761616984,0.0,0,False
2022-01-03,0.9697831761616984,0.9697831761616984,0.0,0,False
2022-01-04,0.9697831761616984,0.9697831761616984,0.0,0,False
2022-01-05,0.9697831761616984,0.9710279719823722,0.12835815791325533,1,True
2022-01-06,0.9710279719823722,0.9543468712705848,-1.7178805547416576,9,True
2022-01-07,0.9543468712705848,0.9648855302547518,1.1042797227528212,4,True
2022-01-08,0.9648855302547518,0.9628568921544189,-0.21024650455657712,0,True
2022-01-09,0.9628568921544189,0.9633566772547285,0.05190647793893444,1,True
2022-01-10,0.9633566772547285,0.9647816780262418,0.14792037104824907,0,True
2022-01-11,0.9647816780262418,0.9647816780262418,0.0,0,False
2022-01-12,0.9647816780262418,0.9647816780262418,0.0,0,False
2022-01-13,0.9647816780262418,0.9647816780262418,0.0,0,False
2022-01-14,0.9647816780262418,0.9647816780262418,0.0,0,False
2022-01-15,0.9647816780262418,0.9651195253783738,0.03501801079215383,1,True
2022-01-16,0.9651195253783738,0.964140083559415,-0.10148399169260802,0,True
2022-01-17,0.964140083559415,0.966124836800235,0.2058573515056672,1,True
2022-01-18,0.966124836800235,0.9729239535571031,0.703751368134431,0,True
2022-01-19,0.9729239535571031,0.9729239535571031,0.0,0,False
2022-01-20,0.9729239535571031,0.9729239535571031,0.0,0,False
2022-01-21,0.9729239535571031,0.9414864010354758,-3.2312445804925094,7,True
2022-01-22,0.9414864010354758,0.9189262453019512,-2.3962274663460015,8,True
2022-01-23,0.9189262453019512,0.926468493729113,0.8207675497050815,0,True
2022-01-24,0.926468493729113,0.9208519607692853,-0.6062303249213197,2,True
2022-01-25,0.9208519607692853,0.9376379742741544,1.8228786189308899,0,True
2022-01-26,0.9376379742741544,0.9376379742741544,0.0,0,False
2022-01-27,0.9376379742741544,0.9502716579346286,1.3473946242689605,4,True
2022-01-28,0.9502716579346286,0.938027180673116,-1.2885238825417034,0,True
2022-01-29,0.938027180673116,0.938027180673116,0.0,0,False
2022-01-30,0.938027180673116,0.9444681781287438,0.6866536053897532,1,True
2022-01-31,0.9444681781287438,0.9465407067050434,0.21943868774974007,0,True
2022-02-01,0.9465407067050434,0.9465407067050434,0.0,0,False
2022-02-02,0.9465407067050434,0.9465407067050434,0.0,0,False
2022-02-03,0.9465407067050434,0.9437749685187529,-0.29219432050822114,3,True
2022-02-04,0.9437749685187529,0.9550426650094281,1.1938965183999173,0,True
2022-02-05,0.9550426650094281,0.9550426650094281,0.0,0,False
2022-02-06,0.9550426650094281,0.9550426650094281,0.0,0,False
2022-02-07,0.9550426650094281,0.9550426650094281,0.0,0,False
2022-02-08,0.9550426650094281,0.9550426650094281,0.0,0,False
2022-02-09,0.9550426650094281,0.9573014701166815,0.23651352866325137,2,True
2022-02-10,0.9573014701166815,0.9587717453362165,0.1535853924214292,5,True
2022-02-11,0.9587717453362165,0.9562511933474055,-0.2628938536280101,0,True
2022-02-12,0.9562511933474055,0.937195494636997,-1.9927503194744345,4,True
2022-02-13,0.937195494636997,0.937195494636997,0.0,0,False
2022-02-14,0.937195494636997,0.937195494636997,0.0,0,False
2022-02-15,0.937195494636997,0.937195494636997,0.0,0,False
2022-02-16,0.937195494636997,0.937195494636997,0.0,0,False
2022-02-17,0.937195494636997,0.937195494636997,0.0,0,False
2022-02-18,0.937195494636997,0.937195494636997,0.0,0,False
2022-02-19,0.937195494636997,0.937195494636997,0.0,0,False
2022-02-20,0.937195494636997,0.937195494636997,0.0,0,False
2022-02-21,0.937195494636997,0.937195494636997,0.0,0,False
2022-02-22,0.937195494636997,0.9355546852427967,-0.17507653457465855,2,True
2022-02-23,0.9355546852427967,0.9347825355669019,-0.08253389011615431,0,True
2022-02-24,0.9347825355669019,0.9161652320475746,-1.9916186718269002,4,True
2022-02-25,0.9161652320475746,0.9161652320475746,0.0,0,False
2022-02-26,0.9161652320475746,0.9161652320475746,0.0,0,False
2022-02-27,0.9161652320475746,0.9161652320475746,0.0,0,False
2022-02-28,0.9161652320475746,0.9182804643608868,0.2308789112838161,1,True
2022-03-01,0.9182804643608868,0.9209812478541046,0.2941131384187168,0,True
2022-03-02,0.9209812478541046,0.9209812478541046,0.0,0,False
2022-03-03,0.9209812478541046,0.9209812478541046,0.0,0,False
2022-03-04,0.9209812478541046,0.9192079025690367,-0.1925495539892741,1,True
2022-03-05,0.9192079025690367,0.9185968759925325,-0.06647316399223113,0,True
2022-03-06,0.9185968759925325,0.9124631279838595,-0.6677301185076923,3,True
2022-03-07,0.9124631279838595,0.907481128942773,-0.5459945600316485,0,True
2022-03-08,0.907481128942773,0.9084124649043646,0.10262868635919631,1,True
2022-03-09,0.9084124649043646,0.9165043239503795,0.8907692660147237,1,True
2022-03-10,0.9165043239503795,0.9161878939030129,-0.034525756081837944,3,True
2022-03-11,0.9161878939030129,0.9121432915954557,-0.4414599160797672,0,True
2022-03-12,0.9121432915954557,0.9121432915954557,0.0,0,False
2022-03-13,0.9121432915954557,0.9121432915954557,0.0,0,False
2022-03-14,0.9121432915954557,0.9075909319284725,-0.49908382914493066,1,True
2022-03-15,0.9075909319284725,0.9083430052198914,0.08286478687273835,1,True
2022-03-16,0.9083430052198914,0.9114061041180084,0.33721830635724537,1,True
2022-03-17,0.9114061041180084,0.9125693516364504,0.127632184290416,1,True
2022-03-18,0.9125693516364504,0.911702598396017,-0.09497943787823981,0,True
2022-03-19,0.911702598396017,0.911702598396017,0.0,0,False
2022-03-20,0.911702598396017,0.907148446796272,-0.499521621168697,1,True
2022-03-21,0.907148446796272,0.9125536771347624,0.5958484917854223,3,True
2022-03-22,0.9125536771347624,0.9118973812432417,-0.0719186068682931,0,True
2022-03-23,0.9118973812432417,0.9118973812432417,0.0,0,False
2022-03-24,0.9118973812432417,0.9118973812432417,0.0,0,False
2022-03-25,0.9118973812432417,0.9118973812432417,0.0,0,False
2022-03-26,0.9118973812432417,0.9118973812432417,0.0,0,False
2022-03-27,0.9118973812432417,0.9118973812432417,0.0,0,False
2022-03-28,0.9118973812432417,0.9118973812432417,0.0,0,False
2022-03-29,0.9118973812432417,0.9118973812432417,0.0,0,False
2022-03-30,0.9118973812432417,0.9193691805101759,0.8193684312095995,4,True
2022-03-31,0.9193691805101759,0.9258667838546779,0.7067458298848361,5,True
2022-04-01,0.9258667838546779,0.9052666501130168,-2.2249565597219356,0,True
2022-04-02,0.9052666501130168,0.9052666501130168,0.0,0,False
2022-04-03,0.9052666501130168,0.9007476800582526,-0.49918662685740633,1,True
2022-04-04,0.9007476800582526,0.9007476800582526,0.0,0,False
2022-04-05,0.9007476800582526,0.9003905471212271,-0.03964849923370206,3,True
2022-04-06,0.9003905471212271,0.8747930380288472,-2.842934010604792,7,True
2022-04-07,0.8747930380288472,0.8693306738635813,-0.6244178826084523,0,True
2022-04-08,0.8693306738635813,0.8693306738635813,0.0,0,False
2022-04-09,0.8693306738635813,0.8693306738635813,0.0,0,False
2022-04-10,0.8693306738635813,0.8693306738635813,0.0,0,False
2022-04-11,0.8693306738635813,0.8614198396359704,-0.9099913836529749,6,True
2022-04-12,0.8614198396359704,0.8657108124910607,0.49812793456252,0,True
2022-04-13,0.8657108124910607,0.8657108124910607,0.0,0,False
2022-04-14,0.8657108124910607,0.8657108124910607,0.0,0,False
2022-04-15,0.8657108124910607,0.8657108124910607,0.0,0,False
2022-04-16,0.8657108124910607,0.8657108124910607,0.0,0,False
2022-04-17,0.8657108124910607,0.869357833221309,0.42127471178903253,1,True
2022-04-18,0.869357833221309,0.8708044618283726,0.16640197531818668,6,True
2022-04-19,0.8708044618283726,0.8865885646790165,1.8125886513607137,0,True
2022-04-20,0.8865885646790165,0.8865885646790165,0.0,0,False
2022-04-21,0.8865885646790165,0.8887520871731799,0.24402779150967113,2,True
2022-04-22,0.8887520871731799,0.8842890686327153,-0.5021668702528737,0,True
2022-04-23,0.8842890686327153,0.8842890686327153,0.0,0,False
2022-04-24,0.8842890686327153,0.8842890686327153,0.0,0,False
2022-04-25,0.8842890686327153,0.8788725641163063,-0.6125264586594903,3,True
2022-04-26,0.8788725641163063,0.881926145391919,0.34744300826856644,2,True
2022-04-27,0.881926145391919,0.8807018860792228,-0.13881653459226762,0,True
2022-04-28,0.8807018860792228,0.8807018860792228,0.0,0,False
2022-04-29,0.8807018860792228,0.8807018860792228,0.0,0,False
2022-04-30,0.8807018860792228,0.8781062734688331,-0.2947209096990977,1,True
2022-05-01,0.8781062734688331,0.8829274487531732,0.5490423460129401,6,True
2022-05-02,0.8829274487531732,0.8919484537684598,1.021715320780392,0,True
2022-05-03,0.8919484537684598,0.8927393565528818,0.08867135551169358,3,True
2022-05-04,0.8927393565528818,0.8857292261344922,-0.7852381960013144,1,True
2022-05-05,0.8857292261344922,0.8857292261344922,0.0,0,False
2022-05-06,0.8857292261344922,0.8741803266499546,-1.3038860120873963,4,True
2022-05-07,0.8741803266499546,0.8701755940507703,-0.458112871806593,2,True
2022-05-08,0.8701755940507703,0.8590861830509428,-1.2743877299758566,3,True
2022-05-09,0.8590861830509428,0.8497616250821138,-1.0854042531232233,3,True
2022-05-10,0.8497616250821138,0.8362570896125026,-1.5892145598250917,7,True
2022-05-11,0.8362570896125026,0.8106415957216123,-3.063112314271643,8,True
2022-05-12,0.8106415957216123,0.8021498803071541,-1.0475301858769215,0,True
2022-05-13,0.8021498803071541,0.8021498803071541,0.0,0,False
2022-05-14,0.8021498803071541,0.7921371307858748,-1.2482392339752346,4,True
2022-05-15,0.7921371307858748,0.8139712546263506,2.756356569072116,1,True
2022-05-16,0.8139712546263506,0.8126565667123803,-0.16151527544713273,8,True
2022-05-17,0.8126565667123803,0.8247122195497011,1.4834867927164153,4,True
2022-05-18,0.8247122195497011,0.8103086910027925,-1.7464914676264987,0,True
2022-05-19,0.8103086910027925,0.8246471911480119,1.7695108425253236,6,True
2022-05-20,0.8246471911480119,0.8315512321273111,0.8372114830935029,0,True
2022-05-21,0.8315512321273111,0.8315512321273111,0.0,0,False
2022-05-22,0.8315512321273111,0.8315512321273111,0.0,0,False
2022-05-23,0.8315512321273111,0.8316281269141258,0.009247149645608133,1,True
2022-05-24,0.8316281269141258,0.8184500161464815,-1.5846158085758288,7,True
2022-05-25,0.8184500161464815,0.8143820755894902,-0.4970298096082293,1,True
2022-05-26,0.8143820755894902,0.7973035371915467,-2.0971161951939044,8,True
2022-05-27,0.7973035371915467,0.7890898399036219,-1.0301844786562708,2,True
2022-05-28,0.7890898399036219,0.790047709305038,0.12138914391965905,0,True
2022-05-29,0.790047709305038,0.786107656598129,-0.49871073107405905,1,True
2022-05-30,0.786107656598129,0.786107656598129,0.0,0,False
2022-05-31,0.786107656598129,0.7841293584661683,-0.2516574053637588,1,True
2022-06-01,0.7841293584661683,0.7880473990932857,0.4996676358071106,1,True
2022-06-02,0.7880473990932857,0.7889631412174911,0.11620393966900178,1,True
2022-06-03,0.7889631412174911,0.7902362776960445,0.16136830886532838,0,True
2022-06-04,0.7902362776960445,0.7902362776960445,0.0,0,False
2022-06-05,0.7902362776960445,0.7902362776960445,0.0,0,False
2022-06-06,0.7902362776960445,0.7917908779197185,0.19672600050790745,1,True
2022-06-07,0.7917908779197185,0.7885410852697627,-0.4104357274857695,4,True
2022-06-08,0.7885410852697627,0.7995594377049564,1.397308604588976,3,True
2022-06-09,0.7995594377049564,0.7979827116845666,-0.1971993507969394,2,True
2022-06-10,0.7979827116845666,0.7946887533683146,-0.41278567417812884,4,True
2022-06-11,0.7946887533683146,0.770852235083573,-2.99947849818053,3,True
2022-06-12,0.770852235083573,0.76001501841948,-1.4058747151350026,7,True
2022-06-13,0.76001501841948,0.7323157793515852,-3.644564698931596,4,True
2022-06-14,0.7323157793515852,0.7409823703025099,1.183449980908291,4,True
2022-06-15,0.7409823703025099,0.7406600234499157,-0.04350263454482306,4,True
2022-06-16,0.7406600234499157,0.7626624856002534,2.970656097767055,1,True
2022-06-17,0.7626624856002534,0.7626624856002534,0.0,0,False
2022-06-18,0.7626624856002534,0.7575313143479158,-0.6727971218223994,4,True
2022-06-19,0.7575313143479158,0.7609997352030552,0.4578584131700314,1,True
2022-06-20,0.7609997352030552,0.7609997352030552,0.0,0,False
2022-06-21,0.7609997352030552,0.7609997352030552,0.0,0,False
2022-06-22,0.7609997352030552,0.7609997352030552,0.0,0,False
2022-06-23,0.7609997352030552,0.7609997352030552,0.0,0,False
2022-06-24,0.7609997352030552,0.757202339358095,-0.49900094169506026,1,True
2022-06-25,0.757202339358095,0.7558724443981183,-0.17563270619370686,3,True
2022-06-26,0.7558724443981183,0.7595879714712268,0.49155477232234457,0,True
2022-06-27,0.7595879714712268,0.7561728578187605,-0.44960080737608266,4,True
2022-06-28,0.7561728578187605,0.7529376496459139,-0.42783976433362625,1,True
2022-06-29,0.7529376496459139,0.7503137934357367,-0.3484825352286669,2,True
2022-06-30,0.7503137934357367,0.7504825219541845,0.02248772712483138,1,True
2022-07-01,0.7504825219541845,0.7501778159823944,-0.04060134152047423,1,True
2022-07-02,0.7501778159823944,0.7488064408951735,-0.18280667036588705,1,True
2022-07-03,0.7488064408951735,0.7496679793653175,0.11505489577707806,1,True
2022-07-04,0.7496679793653175,0.7524015064924722,0.36463170395364397,0,True
2022-07-05,0.7524015064924722,0.7524015064924722,0.0,0,False
2022-07-06,0.7524015064924722,0.7524015064924722,0.0,0,False
2022-07-07,0.7524015064924722,0.7524015064924722,0.0,0,False
2022-07-08,0.7524015064924722,0.7524015064924722,0.0,0,False
2022-07-09,0.7524015064924722,0.7524015064924722,0.0,0,False
2022-07-10,0.7524015064924722,0.7524015064924722,0.0,0,False
2022-07-11,0.7524015064924722,0.7486442887726914,-0.4993633967183442,1,True
2022-07-12,0.7486442887726914,0.7495729555130237,0.12404646028285615,2,True
2022-07-13,0.7495729555130237,0.7520498344351682,0.33043867230364565,4,True
2022-07-14,0.7520498344351682,0.757965424442798,0.7865954803477626,0,True
2022-07-15,0.757965424442798,0.757965424442798,0.0,0,False
2022-07-16,0.757965424442798,0.757965424442798,0.0,0,False
2022-07-17,0.757965424442798,0.757965424442798,0.0,0,False
2022-07-18,0.757965424442798,0.757965424442798,0.0,0,False
2022-07-19,0.757965424442798,0.757965424442798,0.0,0,False
2022-07-20,0.757965424442798,0.7579577792715031,-0.0010086438046341684,1,True
2022-07-21,0.7579577792715031,0.7522584520215099,-0.7519320212625913,5,True
2022-07-22,0.7522584520215099,0.756210082978308,0.5253023008487512,0,True
2022-07-23,0.756210082978308,0.7548785859347231,-0.17607501851084617,1,True
2022-07-24,0.7548785859347231,0.758473572632164,0.4762337632070235,1,True
2022-07-25,0.758473572632164,0.7590507009907924,0.07609076696313277,1,True
2022-07-26,0.7590507009907924,0.7564804942404039,-0.33860804647616316,1,True
2022-07-27,0.7564804942404039,0.7578563635006069,0.18187769158339862,0,True
2022-07-28,0.7578563635006069,0.7578563635006069,0.0,0,False
2022-07-29,0.7578563635006069,0.7578563635006069,0.0,0,False
2022-07-30,0.7578563635006069,0.7578563635006069,0.0,0,False
2022-07-31,0.7578563635006069,0.7570442901868105,-0.10715398760331452,1,True
2022-08-01,0.7570442901868105,0.75688877786667,-0.020542037256787715,1,True
2022-08-02,0.75688877786667,0.7556731108956077,-0.1606136867940644,1,True
2022-08-03,0.7556731108956077,0.7579534394860331,0.3017612453780183,1,True
2022-08-04,0.7579534394860331,0.7559904255204699,-0.2589887271828073,0,True
2022-08-05,0.7559904255204699,0.757509155182244,0.20089271113830076,1,True
2022-08-06,0.757509155182244,0.7573967863769131,-0.014833986435969226,0,True
2022-08-07,0.7573967863769131,0.7579955957676446,0.07906151722611998,2,True
2022-08-08,0.7579955957676446,0.7585007261968524,0.06664028551461865,0,True
2022-08-09,0.7585007261968524,0.7573564963363782,-0.15085415490784237,5,True
2022-08-10,0.7573564963363782,0.7719908440962531,1.9322931579337732,1,True
2022-08-11,0.7719908440962531,0.7740664740973552,0.2688671785391339,1,True
2022-08-12,0.7740664740973552,0.7726961468634759,-0.17702965827027795,1,True
2022-08-13,0.7726961468634759,0.7727880366242993,0.011892095126442292,0,True
2022-08-14,0.7727880366242993,0.7727880366242993,0.0,0,False
2022-08-15,0.7727880366242993,0.7727880366242993,0.0,0,False
2022-08-16,0.7727880366242993,0.772195622303948,-0.07665935447694894,1,True
2022-08-17,0.772195622303948,0.7696630075763473,-0.32797579453303083,1,True
2022-08-18,0.7696630075763473,0.7659529856802254,-0.4820319879741519,1,True
2022-08-19,0.7659529856802254,0.7490077630631148,-2.212305837813522,10,True
2022-08-20,0.7490077630631148,0.7527988453022442,0.5061472558876456,1,True
2022-08-21,0.7527988453022442,0.75660254236082,0.505274029352254,0,True
2022-08-22,0.75660254236082,0.75660254236082,0.0,0,False
2022-08-23,0.75660254236082,0.75660254236082,0.0,0,False
2022-08-24,0.75660254236082,0.75660254236082,0.0,0,False
2022-08-25,0.75660254236082,0.7551877253568187,-0.1869960679205085,1,True
2022-08-26,0.7551877253568187,0.754031461283167,-0.15310948984311734,0,True
2022-08-27,0.754031461283167,0.7545614774989032,0.07029099486568491,3,True
2022-08-28,0.7545614774989032,0.7544989335852945,-0.008288776391818242,0,True
2022-08-29,0.7544989335852945,0.7544269071578192,-0.00954625967899414,1,True
2022-08-30,0.7544269071578192,0.7520882578286245,-0.3099901802290139,1,True
2022-08-31,0.7520882578286245,0.7520882578286245,0.0,0,False
2022-09-01,0.7520882578286245,0.7520882578286245,0.0,0,False
2022-09-02,0.7520882578286245,0.7520882578286245,0.0,0,False
2022-09-03,0.7520882578286245,0.7520882578286245,0.0,0,False
2022-09-04,0.7520882578286245,0.7520882578286245,0.0,0,False
2022-09-05,0.7520882578286245,0.7520882578286245,0.0,0,False
2022-09-06,0.7520882578286245,0.7504719817607283,-0.21490510602607538,1,True
2022-09-07,0.7504719817607283,0.7423139899367722,-1.0870481539918542,5,True
2022-09-08,0.7423139899367722,0.7428430816096258,0.07127599372047655,0,True
2022-09-09,0.7428430816096258,0.7428430816096258,0.0,0,False
2022-09-10,0.7428430816096258,0.7428430816096258,0.0,0,False
2022-09-11,0.7428430816096258,0.7428430816096258,0.0,0,False
2022-09-12,0.7428430816096258,0.7428430816096258,0.0,0,False
2022-09-13,0.7428430816096258,0.7378623795691374,-0.6704918123079162,4,True
2022-09-14,0.7378623795691374,0.7366079912158222,-0.17000302333446404,0,True
2022-09-15,0.7366079912158222,0.7377105947344542,0.1496866083155135,1,True
2022-09-16,0.7377105947344542,0.7308068584951214,-0.9358326000208694,1,True
2022-09-17,0.7308068584951214,0.7301729820099903,-0.08673652658875985,1,True
2022-09-18,0.7301729820099903,0.7311752914969408,0.1372701416849864,0,True
2022-09-19,0.7311752914969408,0.7329762458599612,0.24630952166522224,8,True
2022-09-20,0.7329762458599612,0.7349537422235599,0.26978996587789794,0,True
2022-09-21,0.7349537422235599,0.7349537422235599,0.0,0,False
2022-09-22,0.7349537422235599,0.7356806964435947,0.09891156113246424,1,True
2022-09-23,0.7356806964435947,0.7360014745895708,0.04360290374978426,0,True
2022-09-24,0.7360014745895708,0.7360014745895708,0.0,0,False
2022-09-25,0.7360014745895708,0.7360014745895708,0.0,0,False
2022-09-26,0.7360014745895708,0.7360014745895708,0.0,0,False
2022-09-27,0.7360014745895708,0.7360014745895708,0.0,0,False
2022-09-28,0.7360014745895708,0.7360014745895708,0.0,0,False
2022-09-29,0.7360014745895708,0.7360014745895708,0.0,0,False
2022-09-30,0.7360014745895708,0.7360014745895708,0.0,0,False
2022-10-01,0.7360014745895708,0.7360014745895708,0.0,0,False
2022-10-02,0.7360014745895708,0.7360014745895708,0.0,0,False
2022-10-03,0.7360014745895708,0.7360014745895708,0.0,0,False
2022-10-04,0.7360014745895708,0.7360014745895708,0.0,0,False
2022-10-05,0.7360014745895708,0.7360014745895708,0.0,0,False
2022-10-06,0.7360014745895708,0.7360014745895708,0.0,0,False
2022-10-07,0.7360014745895708,0.7360014745895708,0.0,0,False
2022-10-08,0.7360014745895708,0.7344348966906715,-0.21284983155405168,1,True
2022-10-09,0.7344348966906715,0.7335422129514702,-0.12154702114833826,0,True
2022-10-10,0.7335422129514702,0.7335422129514702,0.0,0,False
2022-10-11,0.7335422129514702,0.7530837758005808,2.6639997677139204,5,True
2022-10-12,0.7530837758005808,0.7531342016132593,0.006695910109710823,2,True
2022-10-13,0.7531342016132593,0.7528756485729745,-0.03433027470149952,1,True
2022-10-14,0.7528756485729745,0.7568654548646899,0.5299422685908217,0,True
2022-10-15,0.7568654548646899,0.7568654548646899,0.0,0,False
2022-10-16,0.7568654548646899,0.7568654548646899,0.0,0,False
2022-10-17,0.7568654548646899,0.7568654548646899,0.0,0,False
2022-10-18,0.7568654548646899,0.7568654548646899,0.0,0,False
2022-10-19,0.7568654548646899,0.7568654548646899,0.0,0,False
2022-10-20,0.7568654548646899,0.7600057845499104,0.41491254027201663,2,True
2022-10-21,0.7600057845499104,0.7550415183716662,-0.6531879466133428,0,True
2022-10-22,0.7550415183716662,0.7550415183716662,0.0,0,False
2022-10-23,0.7550415183716662,0.7550415183716662,0.0,0,False
2022-10-24,0.7550415183716662,0.7550415183716662,0.0,0,False
2022-10-25,0.7550415183716662,0.7545029042961376,-0.07133568981612104,1,True
2022-10-26,0.7545029042961376,0.7556406499512086,0.1507940723080914,0,True
2022-10-27,0.7556406499512086,0.7556406499512086,0.0,0,False
2022-10-28,0.7556406499512086,0.7556406499512086,0.0,0,False
2022-10-29,0.7556406499512086,0.7556406499512086,0.0,0,False
2022-10-30,0.7556406499512086,0.7556406499512086,0.0,0,False
2022-10-31,0.7556406499512086,0.7556406499512086,0.0,0,False
2022-11-01,0.7556406499512086,0.7556406499512086,0.0,0,False
2022-11-02,0.7556406499512086,0.7586956725490444,0.40429569240789665,2,True
2022-11-03,0.7586956725490444,0.75895520090962,0.03420717554689645,0,True
2022-11-04,0.75895520090962,0.7590596315360907,0.013759787975042848,2,True
2022-11-05,0.7590596315360907,0.757688966651855,-0.18057407182382468,0,True
2022-11-06,0.757688966651855,0.7578786454902073,0.025033865702228653,1,True
2022-11-07,0.7578786454902073,0.7596870881623485,0.23861902995980788,3,True
2022-11-08,0.7596870881623485,0.742908853187648,-2.2085718233393115,8,True
2022-11-09,0.742908853187648,0.7171956763158464,-3.461148263541669,6,True
2022-11-10,0.7171956763158464,0.7171956763158464,0.0,0,False
2022-11-11,0.7171956763158464,0.7109985938084717,-0.8640713702023906,7,True
2022-11-12,0.7109985938084717,0.7082761684363598,-0.38290165350810534,5,True
2022-11-13,0.7082761684363598,0.7113890632945333,0.4395029787668481,1,True
2022-11-14,0.7113890632945333,0.7089198468070264,-0.3470978983106221,2,True
2022-11-15,0.7089198468070264,0.7095988407956751,0.09577866830883242,0,True
2022-11-16,0.7095988407956751,0.7091800611009801,-0.05901640062228042,1,True
2022-11-17,0.7091800611009801,0.7101664466178451,0.1390881626499363,1,True
2022-11-18,0.7101664466178451,0.7117378957443373,0.22127898804233936,0,True
2022-11-19,0.7117378957443373,0.7113980936707258,-0.04774258552807664,3,True
2022-11-20,0.7113980936707258,0.7015761680720131,-1.3806510990256982,2,True
2022-11-21,0.7015761680720131,0.6875896697216631,-1.9935823060788893,4,True
2022-11-22,0.6875896697216631,0.6848688725463693,-0.3957007056832662,0,True
2022-11-23,0.6848688725463693,0.6910551764973898,0.9032829785385887,1,True
2022-11-24,0.6910551764973898,0.6892592357086802,-0.25988384861138636,1,True
2022-11-25,0.6892592357086802,0.6879912633235546,-0.18396160971595465,1,True
2022-11-26,0.6879912633235546,0.6889143045115151,0.13416466707751873,0,True
2022-11-27,0.6889143045115151,0.6889143045115151,0.0,0,False
2022-11-28,0.6889143045115151,0.6892449237447643,0.04799134392827753,4,True
2022-11-29,0.6892449237447643,0.6918621474213302,0.3797233155300006,0,True
2022-11-30,0.6918621474213302,0.6918621474213302,0.0,0,False
2022-12-01,0.6918621474213302,0.6918621474213302,0.0,0,False
2022-12-02,0.6918621474213302,0.6918621474213302,0.0,0,False
2022-12-03,0.6918621474213302,0.6918621474213302,0.0,0,False
2022-12-04,0.6918621474213302,0.6918621474213302,0.0,0,False
2022-12-05,0.6918621474213302,0.6918621474213302,0.0,0,False
2022-12-06,0.6918621474213302,0.6925158378941352,0.09448276296677438,2,True
2022-12-07,0.6925158378941352,0.6890941383305583,-0.49409693993163195,1,True
2022-12-08,0.6890941383305583,0.68712939311908,-0.28512000061969855,1,True
2022-12-09,0.68712939311908,0.68712939311908,0.0,0,False
2022-12-10,0.68712939311908,0.68712939311908,0.0,0,False
2022-12-11,0.68712939311908,0.68712939311908,0.0,0,False
2022-12-12,0.68712939311908,0.6866732446295619,-0.06638465681804151,1,True
2022-12-13,0.6866732446295619,0.6866404505448106,-0.0047757918351654105,0,True
2022-12-14,0.6866404505448106,0.6866404505448106,0.0,0,False
2022-12-15,0.6866404505448106,0.6866404505448106,0.0,0,False
2022-12-16,0.6866404505448106,0.6871673976919512,0.07674280574681003,5,True
2022-12-17,0.6871673976919512,0.6757130516584814,-1.6668931139548482,5,True
2022-12-18,0.6757130516584814,0.6762050944000757,0.0728182977059122,0,True
2022-12-19,0.6762050944000757,0.6762050944000757,0.0,0,False
2022-12-20,0.6762050944000757,0.6762050944000757,0.0,0,False
2022-12-21,0.6762050944000757,0.6762050944000757,0.0,0,False
2022-12-22,0.6762050944000757,0.6762050944000757,0.0,0,False
2022-12-23,0.6762050944000757,0.6762050944000757,0.0,0,False
2022-12-24,0.6762050944000757,0.6762050944000757,0.0,0,False
2022-12-25,0.6762050944000757,0.6762050944000757,0.0,0,False
2022-12-26,0.6762050944000757,0.6762050944000757,0.0,0,False
2022-12-27,0.6762050944000757,0.6762050944000757,0.0,0,False
2022-12-28,0.6762050944000757,0.6770473404899261,0.12455482764406334,4,True
2022-12-29,0.6770473404899261,0.6724357546166724,-0.6811319678054817,0,True
2022-12-30,0.6724357546166724,0.6724357546166724,0.0,0,False
2022-12-31,0.6724357546166724,0.6724357546166724,0.0,0,False
2023-01-01,0.6724357546166724,0.6724357546166724,0.0,0,False
2023-01-02,0.6724357546166724,0.6724357546166724,0.0,0,False
2023-01-03,0.6724357546166724,0.6724357546166724,0.0,0,False
2023-01-04,0.6724357546166724,0.6724357546166724,0.0,0,False
2023-01-05,0.6724357546166724,0.6724357546166724,0.0,0,False
2023-01-06,0.6724357546166724,0.6718025999737824,-0.09415838443196378,1,True
2023-01-07,0.6718025999737824,0.6729404826913563,0.16937754001224992,0,True
2023-01-08,0.6729404826913563,0.6729404826913563,0.0,0,False
2023-01-09,0.6729404826913563,0.6729404826913563,0.0,0,False
2023-01-10,0.6729404826913563,0.6728185068980012,-0.01812579217516097,1,True
2023-01-11,0.6728185068980012,0.6696643399644284,-0.46879907452529457,1,True
2023-01-12,0.6696643399644284,0.6702559589461538,0.08834560038790684,0,True
2023-01-13,0.6702559589461538,0.6702559589461538,0.0,0,False
2023-01-14,0.6702559589461538,0.6717534262563909,0.22341723191714458,4,True
2023-01-15,0.6717534262563909,0.673519455356904,0.2628984135377044,1,True
2023-01-16,0.673519455356904,0.6735181949150613,-0.00018714260334729005,0,True
2023-01-17,0.6735181949150613,0.6735181949150613,0.0,0,False
2023-01-18,0.6735181949150613,0.6735181949150613,0.0,0,False
2023-01-19,0.6735181949150613,0.666538200464738,-1.036348312936597,5,True
2023-01-20,0.666538200464738,0.6665307849056737,-0.0011125482469065417,0,True
2023-01-21,0.6665307849056737,0.6670945658424854,0.08458438073366548,1,True
2023-01-22,0.6670945658424854,0.6670148305660978,-0.011952619683974763,0,True
2023-01-23,0.6670148305660978,0.6670148305660978,0.0,0,False
2023-01-24,0.6670148305660978,0.6670148305660978,0.0,0,False
2023-01-25,0.6670148305660978,0.6707524167031542,0.5603452825605704,6,True
2023-01-26,0.6707524167031542,0.681351420736625,1.5801663578890235,0,True
2023-01-27,0.681351420736625,0.681351420736625,0.0,0,False
2023-01-28,0.681351420736625,0.681351420736625,0.0,0,False
2023-01-29,0.681351420736625,0.681351420736625,0.0,0,False
2023-01-30,0.681351420736625,0.6835791357527446,0.32695536375504375,4,True
2023-01-31,0.6835791357527446,0.6936105972164079,1.4674908783774976,2,True
2023-02-01,0.6936105972164079,0.6953484704229506,0.25055459266583036,0,True
2023-02-02,0.6953484704229506,0.6953484704229506,0.0,0,False
2023-02-03,0.6953484704229506,0.6956436816866132,0.042455153957998704,1,True
2023-02-04,0.6956436816866132,0.6970105179620556,0.19648511320169426,0,True
2023-02-05,0.6970105179620556,0.6985387016840701,0.21924830151525132,5,True
2023-02-06,0.6985387016840701,0.6915737325189635,-0.9970770622035885,0,True
2023-02-07,0.6915737325189635,0.6915737325189635,0.0,0,False
2023-02-08,0.6915737325189635,0.689897410077876,-0.24239243948461775,1,True
2023-02-09,0.689897410077876,0.6939216266561049,0.5833065205701704,4,True
2023-02-10,0.6939216266561049,0.664354988817564,-4.260803627207532,3,True
2023-02-11,0.664354988817564,0.664354988817564,0.0,0,False
2023-02-12,0.664354988817564,0.664354988817564,0.0,0,False
2023-02-13,0.664354988817564,0.6644638820209943,0.016390815943756465,2,True
2023-02-14,0.6644638820209943,0.6641654454953506,-0.04491388226188775,0,True
2023-02-15,0.6641654454953506,0.6641654454953506,0.0,0,False
2023-02-16,0.6641654454953506,0.6641654454953506,0.0,0,False
2023-02-17,0.6641654454953506,0.6701750427713026,0.9048343777460222,1,True
2023-02-18,0.6701750427713026,0.6701750427713026,0.0,0,False
2023-02-19,0.6701750427713026,0.6701750427713026,0.0,0,False
2023-02-20,0.6701750427713026,0.6761105641560842,0.8856673265893455,1,True
2023-02-21,0.6761105641560842,0.6727347764595291,-0.49929521523875975,1,True
2023-02-22,0.6727347764595291,0.6727347764595291,0.0,0,False
2023-02-23,0.6727347764595291,0.6788178182080119,0.904225849672402,1,True
2023-02-24,0.6788178182080119,0.6788178182080119,0.0,0,False
2023-02-25,0.6788178182080119,0.6784000410332711,-0.061544815638991945,1,True
2023-02-26,0.6784000410332711,0.6789682949582214,0.08376384000283732,0,True
2023-02-27,0.6789682949582214,0.6789682949582214,0.0,0,False
2023-02-28,0.6789682949582214,0.6789682949582214,0.0,0,False
2023-03-01,0.6789682949582214,0.6789682949582214,0.0,0,False
2023-03-02,0.6789682949582214,0.6765675075003806,-0.3535934557869935,1,True
2023-03-03,0.6765675075003806,0.6686480213668411,-1.1705389404227495,9,True
2023-03-04,0.6686480213668411,0.6703298357657325,0.25152462059985226,0,True
2023-03-05,0.6703298357657325,0.6750496497082963,0.7041032176603457,3,True
2023-03-06,0.6750496497082963,0.6738947376937497,-0.1710854920146443,0,True
2023-03-07,0.6738947376937497,0.6738947376937497,0.0,0,False
2023-03-08,0.6738947376937497,0.6738947376937497,0.0,0,False
2023-03-09,0.6738947376937497,0.6738947376937497,0.0,0,False
2023-03-10,0.6738947376937497,0.6583085937529516,-2.3128454740777737,7,True
2023-03-11,0.6583085937529516,0.654830168041822,-0.5283883188125227,5,True
2023-03-12,0.654830168041822,0.6603524274360567,0.8433116957253572,0,True
2023-03-13,0.6603524274360567,0.6603524274360567,0.0,0,False
2023-03-14,0.6603524274360567,0.6603524274360567,0.0,0,False
2023-03-15,0.6603524274360567,0.6570524095526175,-0.4997358601757873,1,True
2023-03-16,0.6570524095526175,0.6575004751009668,0.0681932737533586,1,True
2023-03-17,0.6575004751009668,0.6574792591060301,-0.0032267649591299907,1,True
2023-03-18,0.6574792591060301,0.6638757903449206,0.9728871519974369,1,True
2023-03-19,0.6638757903449206,0.6612466670991877,-0.39602637782091277,1,True
2023-03-20,0.6612466670991877,0.6612334593982115,-0.001997393957997584,0,True
2023-03-21,0.6612334593982115,0.6612334593982115,0.0,0,False
2023-03-22,0.6612334593982115,0.6612334593982115,0.0,0,False
2023-03-23,0.6612334593982115,0.6720402351686844,1.6343358940589692,6,True
2023-03-24,0.6720402351686844,0.6699898337953859,-0.30510098443493616,1,True
2023-03-25,0.6699898337953859,0.6672556832514523,-0.40808836284053074,1,True
2023-03-26,0.6672556832514523,0.6666435313467949,-0.09174172959824922,0,True
2023-03-27,0.6666435313467949,0.6633170748046134,-0.4989857976212764,1,True
2023-03-28,0.6633170748046134,0.6731365941121046,1.4803658281197674,4,True
2023-03-29,0.6731365941121046,0.6732254366500345,0.013198292695282277,0,True
2023-03-30,0.6732254366500345,0.6732254366500345,0.0,0,False
2023-03-31,0.6732254366500345,0.6732254366500345,0.0,0,False
2023-04-01,0.6732254366500345,0.6732254366500345,0.0,0,False
2023-04-02,0.6732254366500345,0.6732254366500345,0.0,0,False
2023-04-03,0.6732254366500345,0.6732254366500345,0.0,0,False
2023-04-04,0.6732254366500345,0.6732254366500345,0.0,0,False
2023-04-05,0.6732254366500345,0.6732254366500345,0.0,0,False
2023-04-06,0.6732254366500345,0.6732254366500345,0.0,0,False
2023-04-07,0.6732254366500345,0.671429851695935,-0.2667137716950041,1,True
2023-04-08,0.671429851695935,0.6710286564082606,-0.059752375718935546,0,True
2023-04-09,0.6710286564082606,0.6710286564082606,0.0,0,False
2023-04-10,0.6710286564082606,0.6710286564082606,0.0,0,False
2023-04-11,0.6710286564082606,0.6710286564082606,0.0,0,False
2023-04-12,0.6710286564082606,0.6734846103397886,0.3659983680389667,1,True
2023-04-13,0.6734846103397886,0.6737219640509381,0.03524263323995136,0,True
2023-04-14,0.6737219640509381,0.677314460734924,0.5332313440376879,1,True
2023-04-15,0.677314460734924,0.6769218707950212,-0.05796272819522663,0,True
2023-04-16,0.6769218707950212,0.6769218707950212,0.0,0,False
2023-04-17,0.6769218707950212,0.6769218707950212,0.0,0,False
2023-04-18,0.6769218707950212,0.6769218707950212,0.0,0,False
2023-04-19,0.6769218707950212,0.671632024554414,-0.7814559506541752,7,True
2023-04-20,0.671632024554414,0.6653698463593071,-0.9323823114690599,0,True
2023-04-21,0.6653698463593071,0.6653698463593071,0.0,0,False
2023-04-22,0.6653698463593071,0.6653698463593071,0.0,0,False
2023-04-23,0.6653698463593071,0.6653698463593071,0.0,0,False
2023-04-24,0.6653698463593071,0.6653698463593071,0.0,0,False
2023-04-25,0.6653698463593071,0.6653698463593071,0.0,0,False
2023-04-26,0.6653698463593071,0.6653698463593071,0.0,0,False
2023-04-27,0.6653698463593071,0.6639489125998786,-0.21355547853623147,8,True
2023-04-28,0.6639489125998786,0.668480165079741,0.6824700506126158,0,True
2023-04-29,0.668480165079741,0.668480165079741,0.0,0,False
2023-04-30,0.668480165079741,0.668480165079741,0.0,0,False
2023-05-01,0.668480165079741,0.668480165079741,0.0,0,False
2023-05-02,0.668480165079741,0.668480165079741,0.0,0,False
2023-05-03,0.668480165079741,0.668480165079741,0.0,0,False
2023-05-04,0.668480165079741,0.668480165079741,0.0,0,False
2023-05-05,0.668480165079741,0.668480165079741,0.0,0,False
2023-05-06,0.668480165079741,0.6651464960822504,-0.49869377905817913,1,True
2023-05-07,0.6651464960822504,0.6651464960822504,0.0,0,False
2023-05-08,0.6651464960822504,0.6750217389236578,1.4846718579400342,5,True
2023-05-09,0.6750217389236578,0.6625043925992045,-1.8543619564627134,6,True
2023-05-10,0.6625043925992045,0.6578905012319195,-0.6964318152191118,1,True
2023-05-11,0.6578905012319195,0.6538485789335409,-0.614376144785489,5,True
2023-05-12,0.6538485789335409,0.6514947082966652,-0.3600024092298093,0,True
2023-05-13,0.6514947082966652,0.6514947082966652,0.0,0,False
2023-05-14,0.6514947082966652,0.6514947082966652,0.0,0,False
2023-05-15,0.6514947082966652,0.6514947082966652,0.0,0,False
2023-05-16,0.6514947082966652,0.6514947082966652,0.0,0,False
2023-05-17,0.6514947082966652,0.6514947082966652,0.0,0,False
2023-05-18,0.6514947082966652,0.6499098295151227,-0.2432680974011614,1,True
2023-05-19,0.6499098295151227,0.6482383671950906,-0.257183726745458,0,True
2023-05-20,0.6482383671950906,0.6482383671950906,0.0,0,False
2023-05-21,0.6482383671950906,0.6482383671950906,0.0,0,False
2023-05-22,0.6482383671950906,0.6482383671950906,0.0,0,False
2023-05-23,0.6482383671950906,0.6482383671950906,0.0,0,False
2023-05-24,0.6482383671950906,0.6482383671950906,0.0,0,False
2023-05-25,0.6482383671950906,0.6482383671950906,0.0,0,False
2023-05-26,0.6482383671950906,0.6494142237630303,0.18139262151783964,1,True
2023-05-27,0.6494142237630303,0.6540958736054763,0.7209034959718252,0,True
2023-05-28,0.6540958736054763,0.6540958736054763,0.0,0,False
2023-05-29,0.6540958736054763,0.6540958736054763,0.0,0,False
2023-05-30,0.6540958736054763,0.6563700952960235,0.34768934988251843,2,True
2023-05-31,0.6563700952960235,0.6507929311163837,-0.8496980925257636,1,True
2023-06-01,0.6507929311163837,0.6504982526421119,-0.04527991319239755,0,True
2023-06-02,0.6504982526421119,0.6504982526421119,0.0,0,False
2023-06-03,0.6504982526421119,0.6504982526421119,0.0,0,False
2023-06-04,0.6504982526421119,0.6472468935630195,-0.4998259512437597,1,True
2023-06-05,0.6472468935630195,0.6472468935630195,0.0,0,False
2023-06-06,0.6472468935630195,0.6444778683708998,-0.42781591069158686,8,True
2023-06-07,0.6444778683708998,0.6444824749869192,0.0007147826551534564,0,True
2023-06-08,0.6444824749869192,0.6444824749869192,0.0,0,False
2023-06-09,0.6444824749869192,0.6444824749869192,0.0,0,False
2023-06-10,0.6444824749869192,0.6494910877240203,0.7771526661299433,6,True
2023-06-11,0.6494910877240203,0.6504210462171764,0.14318264110673162,1,True
2023-06-12,0.6504210462171764,0.6504167477105922,-0.0006608806109920096,0,True
2023-06-13,0.6504167477105922,0.6504167477105922,0.0,0,False
2023-06-14,0.6504167477105922,0.6504167477105922,0.0,0,False
2023-06-15,0.6504167477105922,0.6529133710591508,0.3838497943582375,4,True
2023-06-16,0.6529133710591508,0.6577545144705426,0.7414679536335012,0,True
2023-06-17,0.6577545144705426,0.6577545144705426,0.0,0,False
2023-06-18,0.6577545144705426,0.6577545144705426,0.0,0,False
2023-06-19,0.6577545144705426,0.6577545144705426,0.0,0,False
2023-06-20,0.6577545144705426,0.6544713112926832,-0.49915327156699885,1,True
2023-06-21,0.6544713112926832,0.6544713112926832,0.0,0,False
2023-06-22,0.6544713112926832,0.6544713112926832,0.0,0,False
2023-06-23,0.6544713112926832,0.6544713112926832,0.0,0,False
2023-06-24,0.6544713112926832,0.6544713112926832,0.0,0,False
2023-06-25,0.6544713112926832,0.6534939683751714,-0.1493331946944232,3,True
2023-06-26,0.6534939683751714,0.651437924739577,-0.31462320007429323,0,True
2023-06-27,0.651437924739577,0.651437924739577,0.0,0,False
2023-06-28,0.651437924739577,0.651437924739577,0.0,0,False
2023-06-29,0.651437924739577,0.649219992356798,-0.3404671878238674,2,True
2023-06-30,0.649219992356798,0.6447697257991698,-0.6854789763132252,6,True
2023-07-01,0.6447697257991698,0.6537851307591834,1.398236393440988,0,True
2023-07-02,0.6537851307591834,0.6537851307591834,0.0,0,False
2023-07-03,0.6537851307591834,0.6537851307591834,0.0,0,False
2023-07-04,0.6537851307591834,0.6537851307591834,0.0,0,False
2023-07-05,0.6537851307591834,0.654141070736362,0.05444295999286197,1,True
2023-07-06,0.654141070736362,0.6542841742873704,0.021876558040823113,1,True
2023-07-07,0.6542841742873704,0.65378275492787,-0.0766363270281678,0,True
2023-07-08,0.65378275492787,0.65378275492787,0.0,0,False
2023-07-09,0.65378275492787,0.65378275492787,0.0,0,False
2023-07-10,0.65378275492787,0.65378275492787,0.0,0,False
2023-07-11,0.65378275492787,0.65378275492787,0.0,0,False
2023-07-12,0.65378275492787,0.6527447072118309,-0.15877563429362862,1,True
2023-07-13,0.6527447072118309,0.6523457276189003,-0.061123374655125406,0,True
2023-07-14,0.6523457276189003,0.6523457276189003,0.0,0,False
2023-07-15,0.6523457276189003,0.6580640933722715,0.8765851466895569,5,True
2023-07-16,0.6580640933722715,0.6587946562950672,0.11101698605859855,1,True
2023-07-17,0.6587946562950672,0.6595918199650675,0.12100336005811396,0,True
2023-07-18,0.6595918199650675,0.6595918199650675,0.0,0,False
2023-07-19,0.6595918199650675,0.6595918199650675,0.0,0,False
2023-07-20,0.6595918199650675,0.6595918199650675,0.0,0,False
2023-07-21,0.6595918199650675,0.6595918199650675,0.0,0,False
2023-07-22,0.6595918199650675,0.6595918199650675,0.0,0,False
2023-07-23,0.6595918199650675,0.6595918199650675,0.0,0,False
2023-07-24,0.6595918199650675,0.6592576384845467,-0.05066489158985776,2,True
2023-07-25,0.6592576384845467,0.6592047234574433,-0.008026456428322781,0,True
2023-07-26,0.6592047234574433,0.6592047234574433,0.0,0,False
2023-07-27,0.6592047234574433,0.6592047234574433,0.0,0,False
2023-07-28,0.6592047234574433,0.6592047234574433,0.0,0,False
2023-07-29,0.6592047234574433,0.6592047234574433,0.0,0,False
2023-07-30,0.6592047234574433,0.6592047234574433,0.0,0,False
2023-07-31,0.6592047234574433,0.6559164315418408,-0.4988271167651659,1,True
2023-08-01,0.6559164315418408,0.6527229791939871,-0.48686878301659187,2,True
2023-08-02,0.6527229791939871,0.6558669864038817,0.4816755821553942,0,True
2023-08-03,0.6558669864038817,0.6558669864038817,0.0,0,False
2023-08-04,0.6558669864038817,0.6558669864038817,0.0,0,False
2023-08-05,0.6558669864038817,0.6558669864038817,0.0,0,False
2023-08-06,0.6558669864038817,0.6558669864038817,0.0,0,False
2023-08-07,0.6558669864038817,0.6560635278440907,0.02996666157670802,1,True
2023-08-08,0.6560635278440907,0.6547580633158043,-0.19898446916815082,1,True
2023-08-09,0.6547580633158043,0.6548437010625554,0.01307929623919346,0,True
2023-08-10,0.6548437010625554,0.652006779704891,-0.43322114163444336,1,True
2023-08-11,0.652006779704891,0.651570974363872,-0.06684061494209859,0,True
2023-08-12,0.651570974363872,0.651570974363872,0.0,0,False
2023-08-13,0.651570974363872,0.6532845439359358,0.2629904706447084,1,True
2023-08-14,0.6532845439359358,0.6527564721809427,-0.08083334588195878,0,True
2023-08-15,0.6527564721809427,0.6527564721809427,0.0,0,False
2023-08-16,0.6527564721809427,0.651295269844951,-0.22385106824136525,6,True
2023-08-17,0.651295269844951,0.6540733273974525,0.4265434866681739,4,True
2023-08-18,0.6540733273974525,0.669460142601148,2.352460276116042,5,True
2023-08-19,0.669460142601148,0.6696512895359895,0.028552399564651942,0,True
2023-08-20,0.6696512895359895,0.6696512895359895,0.0,0,False
2023-08-21,0.6696512895359895,0.6696512895359895,0.0,0,False
2023-08-22,0.6696512895359895,0.670067096690567,0.06209308651754508,1,True
2023-08-23,0.670067096690567,0.6706664454961865,0.08944608809768884,0,True
2023-08-24,0.6706664454961865,0.6706664454961865,0.0,0,False
2023-08-25,0.6706664454961865,0.6581125991734252,-1.8718464904671661,4,True
2023-08-26,0.6581125991734252,0.6598485484289347,0.263776936908644,0,True
2023-08-27,0.6598485484289347,0.6598485484289347,0.0,0,False
2023-08-28,0.6598485484289347,0.6580884035309256,-0.266749832548685,1,True
2023-08-29,0.6580884035309256,0.6624047324964962,0.6558889265350532,1,True
2023-08-30,0.6624047324964962,0.6596178981980902,-0.4207147325024141,1,True
2023-08-31,0.6596178981980902,0.6628861258124298,0.49547285227820037,1,True
2023-09-01,0.6628861258124298,0.6617545737373102,-0.1707008234231422,0,True
2023-09-02,0.6617545737373102,0.6598648590732175,-0.2855612547444042,1,True
2023-09-03,0.6598648590732175,0.6614401298379612,0.2387262699450554,0,True
2023-09-04,0.6614401298379612,0.6598551184087212,-0.23963036981566876,2,True
2023-09-05,0.6598551184087212,0.6621247760639527,0.3439630294457485,0,True
2023-09-06,0.6621247760639527,0.6618930332631981,-0.0349998684737618,2,True
2023-09-07,0.6618930332631981,0.661689963579005,-0.030680136213545595,1,True
2023-09-08,0.661689963579005,0.6610094808053412,-0.10284012318747537,1,True
2023-09-09,0.6610094808053412,0.66015054734317,-0.12994268419942445,2,True
2023-09-10,0.66015054734317,0.6531535261738878,-1.0599129543166108,3,True
2023-09-11,0.6531535261738878,0.6509397774623333,-0.33893236778838043,0,True
2023-09-12,0.6509397774623333,0.6509397774623333,0.0,0,False
2023-09-13,0.6509397774623333,0.6509397774623333,0.0,0,False
2023-09-14,0.6509397774623333,0.6515587108720401,0.09508305240151227,2,True
2023-09-15,0.6515587108720401,0.659113176869381,1.1594451691437024,0,True
2023-09-16,0.659113176869381,0.6564688158953378,-0.4011998343900869,2,True
2023-09-17,0.6564688158953378,0.6565541427156736,0.012997848225193565,1,True
2023-09-18,0.6565541427156736,0.6565541427156736,0.0,0,False
2023-09-19,0.6565541427156736,0.6565541427156736,0.0,0,False
2023-09-20,0.6565541427156736,0.6576899360228612,0.1729930912460098,1,True
2023-09-21,0.6576899360228612,0.6532726836825762,-0.6716314327381512,0,True
2023-09-22,0.6532726836825762,0.6591781223314338,0.9039775879756684,1,True
2023-09-23,0.6591781223314338,0.6591781223314338,0.0,0,False
2023-09-24,0.6591781223314338,0.6558876475114991,-0.4991784023864021,1,True
2023-09-25,0.6558876475114991,0.6556565073188623,-0.03524082112443816,1,True
2023-09-26,0.6556565073188623,0.6557565825532848,0.015263363255835216,0,True
2023-09-27,0.6557565825532848,0.6557565825532848,0.0,0,False
2023-09-28,0.6557565825532848,0.6557565825532848,0.0,0,False
2023-09-29,0.6557565825532848,0.6524870013104895,-0.4985967857256912,1,True
2023-09-30,0.6524870013104895,0.6524870013104895,0.0,0,False
2023-10-01,0.6524870013104895,0.6520721279989009,-0.06358338338623426,1,True
2023-10-02,0.6520721279989009,0.6537794698209145,0.26183327713349414,0,True
2023-10-03,0.6537794698209145,0.657824577514395,0.6187266318700146,2,True
2023-10-04,0.657824577514395,0.6547515632021815,-0.46714799313595234,3,True
2023-10-05,0.6547515632021815,0.6498572908772451,-0.7475006704833365,0,True
2023-10-06,0.6498572908772451,0.6498572908772451,0.0,0,False
2023-10-07,0.6498572908772451,0.6481276319879743,-0.2661598036294843,1,True
2023-10-08,0.6481276319879743,0.646482835814229,-0.2537765854389251,1,True
2023-10-09,0.646482835814229,0.6452748124278186,-0.18686085994672474,1,True
2023-10-10,0.6452748124278186,0.6431860142855894,-0.323706752843822,1,True
2023-10-11,0.6431860142855894,0.643085581544523,-0.01561488260560795,0,True
2023-10-12,0.643085581544523,0.643085581544523,0.0,0,False
2023-10-13,0.643085581544523,0.643085581544523,0.0,0,False
2023-10-14,0.643085581544523,0.643085581544523,0.0,0,False
2023-10-15,0.643085581544523,0.643085581544523,0.0,0,False
2023-10-16,0.643085581544523,0.643085581544523,0.0,0,False
2023-10-17,0.643085581544523,0.643085581544523,0.0,0,False
2023-10-18,0.643085581544523,0.6402039653067018,-0.4480921856310882,3,True
2023-10-19,0.6402039653067018,0.6329236385719178,-1.1371886350776017,3,True
2023-10-20,0.6329236385719178,0.6320382452816702,-0.13988943314636737,0,True
2023-10-21,0.6320382452816702,0.6322031553142278,0.02609178064598705,2,True
2023-10-22,0.6322031553142278,0.6317969597620672,-0.06425079481906515,0,True
2023-10-23,0.6317969597620672,0.6317969597620672,0.0,0,False
2023-10-24,0.6317969597620672,0.6305848193060297,-0.19185601280733433,1,True
2023-10-25,0.6305848193060297,0.6358144866391808,0.8293360659881399,3,True
2023-10-26,0.6358144866391808,0.6326189227098545,-0.5025937591037866,1,True
2023-10-27,0.6326189227098545,0.6280681779058421,-0.7193500922354712,5,True
2023-10-28,0.6280681779058421,0.6277819368334159,-0.045574840836648534,1,True
2023-10-29,0.6277819368334159,0.6286658898965141,0.14080574977306526,0,True
2023-10-30,0.6286658898965141,0.6286658898965141,0.0,0,False
2023-10-31,0.6286658898965141,0.6272009626606896,-0.2330215873594832,1,True
2023-11-01,0.6272009626606896,0.6257374871318103,-0.23333438817934038,1,True
2023-11-02,0.6257374871318103,0.6251066627231401,-0.10081294818402586,2,True
2023-11-03,0.6251066627231401,0.6235228929288619,-0.25335992858864786,0,True
2023-11-04,0.6235228929288619,0.623176317949751,-0.05558336077812198,1,True
2023-11-05,0.623176317949751,0.6282193226048287,0.8092420250610965,1,True
2023-11-06,0.6282193226048287,0.6219586404762895,-0.9965758618471265,2,True
2023-11-07,0.6219586404762895,0.6170161753224558,-0.7946613861733343,2,True
2023-11-08,0.6170161753224558,0.6178329410423002,0.13237346969350305,0,True
2023-11-09,0.6178329410423002,0.6178329410423002,0.0,0,False
2023-11-10,0.6178329410423002,0.6177766760869834,-0.009106823475923953,6,True
2023-11-11,0.6177766760869834,0.6199985709055192,0.3596598746021584,0,True
2023-11-12,0.6199985709055192,0.6206884003932543,0.11126307706283978,1,True
2023-11-13,0.6206884003932543,0.6215242858516368,0.13467070721038255,1,True
2023-11-14,0.6215242858516368,0.6205864510704416,-0.1508927008234351,2,True
2023-11-15,0.6205864510704416,0.6172967159024804,-0.5301010298060516,1,True
2023-11-16,0.6172967159024804,0.6166031822273436,-0.11235013199817345,0,True
2023-11-17,0.6166031822273436,0.616612718167239,0.0015465278432325036,2,True
2023-11-18,0.616612718167239,0.6150434143783997,-0.2545039605254429,3,True
2023-11-19,0.6150434143783997,0.612530701118551,-0.40854242173915534,2,True
2023-11-20,0.612530701118551,0.6136276818989279,0.17908992616593178,0,True
2023-11-21,0.6136276818989279,0.6161326476296645,0.4082224131389811,2,True
2023-11-22,0.6161326476296645,0.6159405716585268,-0.031174451131044112,4,True
2023-11-23,0.6159405716585268,0.6162162484578318,0.044757045077048474,2,True
2023-11-24,0.6162162484578318,0.6217068690835448,0.8910217215878369,1,True
2023-11-25,0.6217068690835448,0.620273813299456,-0.2305034503159442,2,True
2023-11-26,0.620273813299456,0.6190597744333347,-0.19572628089252753,0,True
2023-11-27,0.6190597744333347,0.6190597744333347,0.0,0,False
2023-11-28,0.6190597744333347,0.6190885373125061,0.004646220019344227,1,True
2023-11-29,0.6190885373125061,0.6206999824065031,0.2602931562894595,1,True
2023-11-30,0.6206999824065031,0.6206944688419828,-0.0008882817265409848,0,True
2023-12-01,0.6206944688419828,0.6206944688419828,0.0,0,False
2023-12-02,0.6206944688419828,0.6206944688419828,0.0,0,False
2023-12-03,0.6206944688419828,0.6211494519071467,0.07330225868014129,1,True
2023-12-04,0.6211494519071467,0.629126877212165,1.2843004659385704,5,True
2023-12-05,0.629126877212165,0.6302404919931367,0.17700957013733198,0,True
2023-12-06,0.6302404919931367,0.627474040510591,-0.4389517204451354,1,True
2023-12-07,0.627474040510591,0.627024966806288,-0.07156849133351795,2,True
2023-12-08,0.627024966806288,0.627766463629863,0.11825634748672265,0,True
2023-12-09,0.627766463629863,0.627766463629863,0.0,0,False
2023-12-10,0.627766463629863,0.6261604460282197,-0.2558304233642783,1,True
2023-12-11,0.6261604460282197,0.626374379598221,0.03416593484277808,5,True
2023-12-12,0.626374379598221,0.6314708639139647,0.8136482719827809,0,True
2023-12-13,0.6314708639139647,0.6323935062270175,0.14611003702278413,3,True
2023-12-14,0.6323935062270175,0.636808915057054,0.6982059092256687,0,True
2023-12-15,0.636808915057054,0.636808915057054,0.0,0,False
2023-12-16,0.636808915057054,0.6446414015595617,1.2299586763489412,3,True
2023-12-17,0.6446414015595617,0.6377334741338169,-1.0715922695986868,2,True
2023-12-18,0.6377334741338169,0.6374327490728899,-0.04715528870981034,2,True
2023-12-19,0.6374327490728899,0.6472327470324757,1.5374167665278105,1,True
2023-12-20,0.6472327470324757,0.6489318012872246,0.26251055165842363,0,True
2023-12-21,0.6489318012872246,0.6480766939673582,-0.13177152332035647,1,True
2023-12-22,0.6480766939673582,0.6465894485128065,-0.22948602663785955,0,True
2023-12-23,0.6465894485128065,0.6463557705874473,-0.03614007712261502,1,True
2023-12-24,0.6463557705874473,0.6460466356846013,-0.04782736024233625,1,True
2023-12-25,0.6460466356846013,0.6518023389511732,0.890911421661178,1,True
2023-12-26,0.6518023389511732,0.6512540207569757,-0.08412338548521303,0,True
2023-12-27,0.6512540207569757,0.6472354915409056,-0.6170448224487202,7,True
2023-12-28,0.6472354915409056,0.6494071375379962,0.3355264081579268,1,True
2023-12-29,0.6494071375379962,0.6542013429497209,0.7382434122760406,0,True
2023-12-30,0.6542013429497209,0.6535692256757633,-0.09662427030605603,1,True
2023-12-31,0.6535692256757633,0.6539937091702284,0.06494851314735595,0,True
